# energy (eV)    P(omega), $W$ = 300 nm, $h$ = 300 nm, $s$ = 20 nm, $d/W = 5$, $E_{\rm e}$ = 200 keV
0.2000000000	0.0597001153
0.2050000000	0.0605950507
0.2100000000	0.0614321687
0.2150000000	0.0622133498
0.2200000000	0.0629401870
0.2250000000	0.0636140382
0.2300000000	0.0642359342
0.2350000000	0.0648065585
0.2400000000	0.0653261572
0.2450000000	0.0657945229
0.2500000000	0.0662108752
0.2550000000	0.0665737390
0.2600000000	0.0668809093
0.2650000000	0.0671291832
0.2700000000	0.0673142295
0.2750000000	0.0674303092
0.2800000000	0.0674699759
0.2850000000	0.0674236613
0.2900000000	0.0672791057
0.2950000000	0.0670207609
0.3000000000	0.0666287615
0.3050000000	0.0660777964
0.3100000000	0.0653354595
0.3150000000	0.0690448142
0.3200000000	0.0734501243
0.3250000000	0.0790216734
0.3300000000	0.0864827098
0.3350000000	0.0957699175
0.3400000000	0.1079316243
0.3450000000	0.1226833223
0.3500000000	0.1419812544
0.3550000000	0.1675162067
0.3600000000	0.2008577991
0.3650000000	0.2473400574
0.3700000000	0.3086322025
0.3750000000	0.3938938312
0.3800000000	0.5172091423
0.3850000000	0.7093616980
0.3900000000	1.0129284610
0.3950000000	1.5285869472
0.4000000000	2.5116411068
0.4050000000	4.7156853840
0.4100000000	10.7298806863
0.4150000000	34.4363828680
0.4200000000	21.9408177536
0.4250000000	-41.3032587127
0.4300000000	11.4862542718
0.4350000000	7.1581491353
0.4400000000	4.3760386583
0.4450000000	2.8784122074
0.4500000000	2.0162410671
0.4550000000	1.4856523259
0.4600000000	1.1400746013
0.4650000000	0.9045776649
0.4700000000	0.7381289810
0.4750000000	0.6177474979
0.4800000000	0.5284934560
0.4850000000	0.4613317281
0.4900000000	0.4100655537
0.4950000000	0.3705349743
0.5000000000	0.3398965378
0.5050000000	0.3160639503
0.5100000000	0.2976938320
0.5150000000	0.2837972603
0.5200000000	0.2733403325
0.5250000000	0.2658573808
0.5300000000	0.2608484219
0.5350000000	0.2579478797
0.5400000000	0.2568862485
0.5450000000	0.2574383533
0.5500000000	0.2595331449
0.5550000000	0.2630437393
0.5600000000	0.2679054214
0.5650000000	0.2740891988
0.5700000000	0.2815687288
0.5750000000	0.2903963219
0.5800000000	0.3006569790
0.5850000000	0.3124062586
0.5900000000	0.3257515991
0.5950000000	0.3408281195
0.6000000000	0.3578079477
0.6050000000	0.3769404113
0.6100000000	0.3984635083
0.6150000000	0.4227022946
0.6200000000	0.4500903508
0.6250000000	0.4810434210
0.6300000000	0.5161759435
0.6350000000	0.5562537294
0.6400000000	0.6020736666
0.6450000000	0.6547859153
0.6500000000	0.7159027730
0.6550000000	0.7869985869
0.6600000000	0.8704928289
0.6650000000	0.9694902946
0.6700000000	1.0876408992
0.6750000000	1.2305108308
0.6800000000	1.4055848369
0.6850000000	1.6226687026
0.6900000000	1.8969494597
0.6950000000	2.2496679897
0.7000000000	2.7145649098
0.7050000000	3.3432219988
0.7100000000	4.2230385163
0.7150000000	5.5095962157
0.7200000000	7.4925435711
0.7250000000	10.7841586271
0.7300000000	16.8260533902
0.7350000000	29.7541807916
0.7400000000	65.2105598935
0.7450000000	216.3421115663
0.7500000000	670.2513934351
0.7550000000	168.6218681126
0.7600000000	55.8455116335
0.7650000000	26.7588660283
0.7700000000	15.5625085472
0.7750000000	10.1575378768
0.7800000000	7.1485172896
0.7850000000	5.3093767911
0.7900000000	4.1020565708
0.7950000000	3.2693817676
0.8000000000	2.6707927777
0.8050000000	2.2249706536
0.8100000000	1.8850012227
0.8150000000	1.6154970170
0.8200000000	1.4027940523
0.8250000000	1.2315256102
0.8300000000	1.0912280665
0.8350000000	0.9758762728
0.8400000000	0.8791765988
0.8450000000	0.7980323363
0.8500000000	0.7294416543
0.8550000000	0.6702500217
0.8600000000	0.6197199655
0.8650000000	0.5765589476
0.8700000000	0.5384222151
0.8750000000	0.5059820625
0.8800000000	0.4784566983
0.8850000000	0.4537786077
0.8900000000	0.4339845510
0.8950000000	0.4159780100
0.9000000000	0.4017094179
0.9050000000	0.3918871452
0.9100000000	0.3828863067
0.9150000000	0.3774324448
0.9200000000	0.3767900529
0.9250000000	0.3763170085
0.9300000000	0.3708090422
0.9350000000	0.3542495609
0.9400000000	0.2619368971
0.9450000000	-0.1577057208
0.9500000000	-2.3724423145
0.9550000000	-13.6063125985
0.9600000000	3.2106391036
0.9650000000	5.6401715098
0.9700000000	2.5016692011
0.9750000000	1.3133182032
0.9800000000	0.8230666165
0.9850000000	0.5937725794
0.9900000000	0.4616562094
0.9950000000	0.3815433567
1.0000000000	0.3303910546
1.0050000000	0.2979625689
1.0100000000	0.2728216997
1.0150000000	0.2544546396
1.0200000000	0.2420839960
1.0250000000	0.2316999432
1.0300000000	0.2238111133
1.0350000000	0.2178429026
1.0400000000	0.2140485458
1.0450000000	0.2108926553
1.0500000000	0.2088100855
1.0550000000	0.2076775905
1.0600000000	0.2077739371
1.0650000000	0.2083232582
1.0700000000	0.2096418137
1.0750000000	0.2117351311
1.0800000000	0.2148106703
1.0850000000	0.2187134803
1.0900000000	0.2244714068
1.0950000000	0.2313094867
1.1000000000	0.2394573997
1.1050000000	0.2488475059
1.1100000000	0.2597767499
1.1150000000	0.2724907735
1.1200000000	0.2872811654
1.1250000000	0.3045276029
1.1300000000	0.3247403603
1.1350000000	0.3485540932
1.1400000000	0.3766919110
1.1450000000	0.4104724389
1.1500000000	0.4513307688
1.1550000000	0.5013409998
1.1600000000	0.5634293418
1.1650000000	0.6413931700
1.1700000000	0.7423441484
1.1750000000	0.8757250247
1.1800000000	1.0571450110
1.1850000000	1.3122625805
1.1900000000	1.6894363254
1.1950000000	2.2815141155
1.2000000000	3.2857558077
1.2050000000	5.1835078880
1.2100000000	9.3582127115
1.2150000000	20.6425995055
1.2200000000	50.6615928671
1.2250000000	45.5184108130
1.2300000000	18.1586510801
1.2350000000	8.5178830324
1.2400000000	4.8661839820
1.2450000000	3.1895569883
1.2500000000	2.3051370267
1.2550000000	1.7948044580
1.2600000000	1.4843636485
1.2650000000	1.2900261898
1.2700000000	1.1743016521
1.2750000000	1.1128829373
1.2800000000	1.0942134013
1.2850000000	1.1132626225
1.2900000000	1.1696603088
1.2950000000	1.2663480166
1.3000000000	1.4152397808
1.3050000000	1.6316176010
1.3100000000	1.9439487697
1.3150000000	2.4014823873
1.3200000000	3.0927458104
1.3250000000	4.1864760703
1.3300000000	6.0521977896
1.3350000000	9.5466791930
1.3400000000	17.0153927223
1.3450000000	35.5567243179
1.3500000000	75.4620800740
1.3550000000	70.3805296735
1.3600000000	32.4561580541
1.3650000000	15.9469380651
1.3700000000	9.1453613775
1.3750000000	5.8812633959
1.3800000000	4.1014950970
1.3850000000	3.0293834372
1.3900000000	2.3384005065
1.3950000000	1.8669687179
1.4000000000	1.5316403006
1.4050000000	1.2853628530
1.4100000000	1.0996450415
1.4150000000	0.9574750070
1.4200000000	0.8468654081
1.4250000000	0.7646810891
1.4300000000	0.7126994476
1.4350000000	0.6788504111
1.4400000000	0.4678525159
1.4450000000	-0.1174069505
1.4500000000	-1.1347213246
1.4550000000	-0.3782791917
1.4600000000	1.1572889055
1.4650000000	0.6695636261
1.4700000000	-0.4310158703
1.4750000000	-2.1734178511
1.4800000000	-0.9591511043
1.4850000000	1.6415260989
1.4900000000	1.3288683923
1.4950000000	0.8620639469
1.5000000000	0.6068572173
1.5050000000	0.4687063921
1.5100000000	0.3896238064
1.5150000000	0.3411360972
1.5200000000	0.3093752581
1.5250000000	0.2892113908
1.5300000000	0.2733188588
1.5350000000	0.2617682445
1.5400000000	0.2533934348
1.5450000000	0.2474985447
1.5500000000	0.2436011348
1.5550000000	0.2414988840
1.5600000000	0.2416017912
1.5650000000	0.2430690478
1.5700000000	0.2467829697
1.5750000000	0.2534285314
1.5800000000	0.2643729332
1.5850000000	0.2823099135
1.5900000000	0.3129398506
1.5950000000	0.3688668178
1.6000000000	0.4766614027
1.6050000000	0.6536062652
1.6100000000	0.7362857248
1.6150000000	0.5874583521
1.6200000000	0.4494141383
1.6250000000	0.3793201258
1.6300000000	0.3472554935
1.6350000000	0.3341712370
1.6400000000	0.3314387908
1.6450000000	0.3351128958
1.6500000000	0.3432740355
1.6550000000	0.3551395258
1.6600000000	0.3703115263
1.6650000000	0.3887423848
1.6700000000	0.4105894213
1.6750000000	0.4361701411
1.6800000000	0.4659460201
1.6850000000	0.5005323648
1.6900000000	0.5406425187
1.6950000000	0.5866890863
1.7000000000	0.6396847415
1.7050000000	0.7009856978
1.7100000000	0.7752878169
1.7150000000	0.9002978419
1.7200000000	1.0891469236
1.7250000000	1.2931010269
1.7300000000	1.5355161224
1.7350000000	1.7978516702
1.7400000000	2.0401878511
1.7450000000	2.3456518607
1.7500000000	2.8138291449
1.7550000000	3.5159776785
1.7600000000	4.5693942256
1.7650000000	6.1945382853
1.7700000000	8.8124718909
1.7750000000	13.2218767524
1.7800000000	20.7319387007
1.7850000000	31.7990502594
1.7900000000	39.4921634365
1.7950000000	33.6021072054
1.8000000000	22.3419877328
1.8050000000	14.0933282063
1.8100000000	9.2793348566
1.8150000000	6.4584040577
1.8200000000	4.7224835999
1.8250000000	3.5968746636
1.8300000000	2.8322054335
1.8350000000	2.2918876504
1.8400000000	1.8975234405
1.8450000000	1.6014962285
1.8500000000	1.3737653506
1.8550000000	1.1954958914
1.8600000000	1.0534411676
1.8650000000	0.9384959355
1.8700000000	0.8440264154
1.8750000000	0.7649455037
1.8800000000	0.6969245143
1.8850000000	0.6357447175
1.8900000000	0.5761867221
1.8950000000	0.5103436869
1.9000000000	0.4248170918
1.9050000000	0.2758703967
1.9100000000	0.0620027016
1.9150000000	-0.1436042297
1.9200000000	0.1068925146
1.9250000000	1.1057654304
1.9300000000	1.9036872993
1.9350000000	1.9212083035
1.9400000000	1.5420264499
1.9450000000	1.1684699274
1.9500000000	0.9037212357
1.9550000000	0.7286136680
1.9600000000	0.6119311005
1.9650000000	0.5341786940
1.9700000000	0.4769511208
1.9750000000	0.4349874903
1.9800000000	0.4031364547
1.9850000000	0.3777037024
1.9900000000	0.3559386587
1.9950000000	0.3355093953
2.0000000000	0.3159974615
2.0050000000	0.3043899237
2.0100000000	0.3121867420
2.0150000000	0.3325225987
2.0200000000	0.3462512697
2.0250000000	0.3521997796
2.0300000000	0.3567197169
2.0350000000	0.3627501125
2.0400000000	0.3717167880
2.0450000000	0.3842219734
2.0500000000	0.4008763682
2.0550000000	0.4222871555
2.0600000000	0.4484895841
2.0650000000	0.4774012502
2.0700000000	0.5038373223
2.0750000000	0.5237503823
2.0800000000	0.5401554313
2.0850000000	0.5596008562
2.0900000000	0.5862544610
2.0950000000	0.6215646401
2.1000000000	0.6666470024
2.1050000000	0.7208274263
2.1100000000	0.7878804366
2.1150000000	0.8705130310
2.1200000000	0.9726160200
2.1250000000	1.0997098847
2.1300000000	1.2596152421
2.1350000000	1.4635218735
2.1400000000	1.7275900958
2.1450000000	2.0754410632
2.1500000000	2.5414739920
2.1550000000	3.1743423170
2.1600000000	4.0362966608
2.1650000000	5.1800952230
2.1700000000	6.5856384402
2.1750000000	7.9872068962
2.1800000000	8.8674300599
2.1850000000	8.9499236536
2.1900000000	8.6156904327
2.1950000000	8.3785392641
2.2000000000	8.2957168158
2.2050000000	7.9061436384
2.2100000000	7.0124895770
2.2150000000	5.8880805112
2.2200000000	4.8653913424
2.2250000000	4.0366146258
2.2300000000	3.3559833629
2.2350000000	2.7861150452
2.2400000000	2.3180852714
2.2450000000	1.9484821343
2.2500000000	1.6620658539
2.2550000000	1.4404192025
2.2600000000	1.2664813588
2.2650000000	1.1248664522
2.2700000000	1.0010033611
2.2750000000	0.8825695960
2.2800000000	0.7666892307
2.2850000000	0.6675051565
2.2900000000	0.6091264352
2.2950000000	0.6023734118
2.3000000000	0.6286608510
2.3050000000	0.6563809548
2.3100000000	0.6661577923
2.3150000000	0.6585967296
2.3200000000	0.6420729654
2.3250000000	0.6251952268
2.3300000000	0.6125339663
2.3350000000	0.6054223065
2.3400000000	0.6028548911
2.3450000000	0.6019085441
2.3500000000	0.5988184707
2.3550000000	0.5911795666
2.3600000000	0.5796572195
2.3650000000	0.5671851768
2.3700000000	0.5567455237
2.3750000000	0.5499962168
2.3800000000	0.5472045284
2.3850000000	0.5477064410
2.3900000000	0.5506534800
2.3950000000	0.5552318049
2.4000000000	0.5618463113
2.4050000000	0.5722186112
2.4100000000	0.5870781663
2.4150000000	0.6074344152
2.4200000000	0.6339842150
2.4250000000	0.6674750147
2.4300000000	0.7088247235
2.4350000000	0.7592102502
2.4400000000	0.8201459360
2.4450000000	0.8935733567
2.4500000000	0.9819531620
2.4550000000	1.0883905899
2.4600000000	1.2167026008
2.4650000000	1.3714918595
2.4700000000	1.5580531218
2.4750000000	1.7817257387
2.4800000000	2.0481422739
2.4850000000	2.3596404157
2.4900000000	2.7132978561
2.4950000000	3.0962107271
2.5000000000	3.4805287485
2.5050000000	3.8367198305
2.5100000000	4.0702757491
2.5150000000	4.1281820791
2.5200000000	4.0015725047
2.5250000000	3.7297109519
2.5300000000	3.3749942497
2.5350000000	2.9940347131
2.5400000000	2.6241977272
2.5450000000	2.2849840267
2.5500000000	1.9842476655
2.5550000000	1.7233381372
2.5600000000	1.4985339658
2.5650000000	1.3090164452
2.5700000000	1.1507612883
2.5750000000	1.0213371752
2.5800000000	0.9188857531
2.5850000000	0.8412138492
2.5900000000	0.7844867706
2.5950000000	0.7432006026
2.6000000000	0.7116016545
2.6050000000	0.6890535019
2.6100000000	0.6690625299
2.6150000000	0.6513607608
2.6200000000	0.6363638996
2.6250000000	0.6244984003
2.6300000000	0.6160378834
2.6350000000	0.6111138755
2.6400000000	0.6097952808
2.6450000000	0.6121520401
2.6500000000	0.6183278937
2.6550000000	0.6283547411
2.6600000000	0.6424525476
2.6650000000	0.6608306538
2.6700000000	0.6837353951
2.6750000000	0.7114551047
2.6800000000	0.7442981526
2.6850000000	0.7825794775
2.6900000000	0.8265778031
2.6950000000	0.8765064025
2.7000000000	0.9324430932
2.7050000000	1.0009323507
2.7100000000	1.0767657400
2.7150000000	1.1590172194
2.7200000000	1.2461309392
2.7250000000	1.3358950315
2.7300000000	1.4254471290
2.7350000000	1.5112847116
2.7400000000	1.5892419812
2.7450000000	1.6551626084
2.7500000000	1.7028738881
2.7550000000	1.7282899754
2.7600000000	1.7283252551
2.7650000000	1.7022999051
2.7700000000	1.6522863626
2.7750000000	1.5827596561
2.7800000000	1.4996263496
2.7850000000	1.4091689738
2.7900000000	1.3170161162
2.7950000000	1.2276795743
2.8000000000	1.1443519181
2.8050000000	1.0597107885
2.8100000000	0.9868487573
2.8150000000	0.9256031056
2.8200000000	0.8750174355
2.8250000000	0.8338199806
2.8300000000	0.8007279150
2.8350000000	0.7746495213
2.8400000000	0.7544230943
2.8450000000	0.7401198391
2.8500000000	0.7308860314
2.8550000000	0.7263991120
2.8600000000	0.7264211482
2.8650000000	0.7307497376
2.8700000000	0.7391881006
2.8750000000	0.7515113012
2.8800000000	0.7674441116
2.8850000000	0.7866382893
2.8900000000	0.8086787081
2.8950000000	0.8330721939
2.9000000000	0.8592776527
2.9050000000	0.8924117415
2.9100000000	0.9255248422
2.9150000000	0.9574348335
2.9200000000	0.9867851516
2.9250000000	1.0120098862
2.9300000000	1.0316509571
2.9350000000	1.0436619667
2.9400000000	1.0470685851
2.9450000000	1.0413944329
2.9500000000	1.0270282524
2.9550000000	1.0051922417
2.9600000000	0.9777036291
2.9650000000	0.9466543808
2.9700000000	0.9140915149
2.9750000000	0.8817794960
2.9800000000	0.8510828981
2.9850000000	0.8229448163
2.9900000000	0.7979467259
2.9950000000	0.7763701022
3.0000000000	0.7582967796
