# energy (eV)    P(omega), $W$ = 300 nm, $h$ = 300 nm, $s$ = 20 nm, $d/W = 5$, $E_{\rm e}$ = 200 keV
0.2000000000	0.2194121963
0.2050000000	0.2225642125
0.2100000000	0.2255271251
0.2150000000	0.2283068450
0.2200000000	0.2309084672
0.2250000000	0.2333362046
0.2300000000	0.2355931503
0.2350000000	0.2376812370
0.2400000000	0.2396010140
0.2450000000	0.2413511769
0.2500000000	0.2429288295
0.2550000000	0.2443284100
0.2600000000	0.2455417926
0.2650000000	0.2465576504
0.2700000000	0.2473604567
0.2750000000	0.2479298886
0.2800000000	0.2482396034
0.2850000000	0.2482559171
0.2900000000	0.2479355559
0.2950000000	0.2472239554
0.3000000000	0.2460508502
0.3050000000	0.2443274712
0.3100000000	0.2419398545
0.3150000000	0.2549735826
0.3200000000	0.2704551783
0.3250000000	0.2900256513
0.3300000000	0.3162141414
0.3350000000	0.3488227728
0.3400000000	0.3915287384
0.3450000000	0.4433729065
0.3500000000	0.5112225500
0.3550000000	0.6010452095
0.3600000000	0.7184143346
0.3650000000	0.8821168833
0.3700000000	1.0981829360
0.3750000000	1.3989686114
0.3800000000	1.8343039742
0.3850000000	2.5130574128
0.3900000000	3.5861544001
0.3950000000	5.4102800475
0.4000000000	8.8900567343
0.4050000000	16.6968582554
0.4100000000	38.0140423702
0.4150000000	122.0984773453
0.4200000000	77.7187593078
0.4250000000	-146.7099625677
0.4300000000	40.8835524326
0.4350000000	25.5097379611
0.4400000000	15.6178055669
0.4450000000	10.2893505012
0.4500000000	7.2198747302
0.4550000000	5.3297946064
0.4600000000	4.0980919190
0.4650000000	3.2583239441
0.4700000000	2.6645187071
0.4750000000	2.2349267028
0.4800000000	1.9163521705
0.4850000000	1.6766306852
0.4900000000	1.4936872433
0.4950000000	1.3526963648
0.5000000000	1.2435273841
0.5050000000	1.1587385859
0.5100000000	1.0935479216
0.5150000000	1.0444366399
0.5200000000	1.0077049106
0.5250000000	0.9817049217
0.5300000000	0.9646533195
0.5350000000	0.9552495017
0.5400000000	0.9525362325
0.5450000000	0.9557143237
0.5500000000	0.9645457989
0.5550000000	0.9785848779
0.5600000000	0.9976143856
0.5650000000	1.0215426386
0.5700000000	1.0502920774
0.5750000000	1.0840684031
0.5800000000	1.1232060644
0.5850000000	1.1679247803
0.5900000000	1.2186426467
0.5950000000	1.2758780832
0.6000000000	1.3402906463
0.6050000000	1.4128257549
0.6100000000	1.4943941496
0.6150000000	1.5862318304
0.6200000000	1.6899885739
0.6250000000	1.8072439999
0.6300000000	1.9403328024
0.6350000000	2.0921650821
0.6400000000	2.2657700342
0.6450000000	2.4655179711
0.6500000000	2.6971568465
0.6550000000	2.9666715503
0.6600000000	3.2832570151
0.6650000000	3.6587205031
0.6700000000	4.1069434207
0.6750000000	4.6490850437
0.6800000000	5.3136342517
0.6850000000	6.1378840503
0.6900000000	7.1796419885
0.6950000000	8.5197298396
0.7000000000	10.2866087681
0.7050000000	12.6766565673
0.7100000000	16.0227150516
0.7150000000	20.9173557762
0.7200000000	28.4640052175
0.7250000000	40.9955960006
0.7300000000	64.0061862218
0.7350000000	113.2611248846
0.7400000000	248.3981792052
0.7450000000	824.6588107970
0.7500000000	2556.6909727529
0.7550000000	643.6751203691
0.7600000000	213.3330964280
0.7650000000	102.2961657718
0.7700000000	59.5385278327
0.7750000000	38.8900332636
0.7800000000	27.3906187568
0.7850000000	20.3596383700
0.7900000000	15.7425175656
0.7950000000	12.5570454409
0.8000000000	10.2663419058
0.8050000000	8.5597006878
0.8100000000	7.2578464829
0.8150000000	6.2254394683
0.8200000000	5.4103803232
0.8250000000	4.7539196942
0.8300000000	4.2159955767
0.8350000000	3.7736254977
0.8400000000	3.4027034124
0.8450000000	3.0913841314
0.8500000000	2.8282076300
0.8550000000	2.6010338551
0.8600000000	2.4070996299
0.8650000000	2.2414858637
0.8700000000	2.0951083582
0.8750000000	1.9706585097
0.8800000000	1.8651556242
0.8850000000	1.7705564953
0.8900000000	1.6948732547
0.8950000000	1.6260166408
0.9000000000	1.5716651822
0.9050000000	1.5346491297
0.9100000000	1.5007478944
0.9150000000	1.4806930256
0.9200000000	1.4795046566
0.9250000000	1.4788802177
0.9300000000	1.4582019354
0.9350000000	1.3934529366
0.9400000000	1.0279367555
0.9450000000	-0.6376765412
0.9500000000	-9.4365842432
0.9550000000	-54.0980282340
0.9600000000	12.7778965751
0.9650000000	22.4585909978
0.9700000000	9.9679585500
0.9750000000	5.2353028096
0.9800000000	3.2818226796
0.9850000000	2.3679212273
0.9900000000	1.8410832070
0.9950000000	1.5215143048
1.0000000000	1.3174306938
1.0050000000	1.1881022970
1.0100000000	1.0877281524
1.0150000000	1.0143555578
1.0200000000	0.9649571995
1.0250000000	0.9233862896
1.0300000000	0.8917353925
1.0350000000	0.8677058187
1.0400000000	0.8523571631
1.0450000000	0.8394524002
1.0500000000	0.8307679741
1.0550000000	0.8258065383
1.0600000000	0.8257153958
1.0650000000	0.8273021531
1.0700000000	0.8318558095
1.0750000000	0.8393914698
1.0800000000	0.8507540203
1.0850000000	0.8651993017
1.0900000000	0.8867307130
1.0950000000	0.9123361436
1.1000000000	0.9429144708
1.1050000000	0.9780730345
1.1100000000	1.0189602175
1.1150000000	1.0664821762
1.1200000000	1.1217507727
1.1250000000	1.1860349435
1.1300000000	1.2612524994
1.1350000000	1.3497193951
1.1400000000	1.4541164009
1.1450000000	1.5791416957
1.1500000000	1.7300661739
1.1550000000	1.9144336966
1.1600000000	2.1428855099
1.1650000000	2.4292700307
1.1700000000	2.7993214071
1.1750000000	3.2873841495
1.1800000000	3.9501540566
1.1850000000	4.8807695187
1.1900000000	6.2550262625
1.1950000000	8.4098650337
1.2000000000	12.0618559619
1.2050000000	18.9596074853
1.2100000000	34.1297109039
1.2150000000	75.1395480353
1.2200000000	184.2867833642
1.2250000000	165.7334978162
1.2300000000	66.3063382779
1.2350000000	31.2626323941
1.2400000000	17.9957361284
1.2450000000	11.9157803662
1.2500000000	8.7215494857
1.2550000000	6.8929526741
1.2600000000	5.7971436406
1.2650000000	5.1301714432
1.2700000000	4.7577302141
1.2750000000	4.5931714105
1.2800000000	4.5973149119
1.2850000000	4.7557974440
1.2900000000	5.0729302966
1.2950000000	5.5667834375
1.3000000000	6.2941153191
1.3050000000	7.3288134265
1.3100000000	8.8045190516
1.3150000000	10.9514836966
1.3200000000	14.1819438516
1.3250000000	19.2831369536
1.3300000000	27.9733142568
1.3350000000	44.2419901512
1.3400000000	79.0103631242
1.3450000000	165.3425048987
1.3500000000	351.2456647242
1.3550000000	327.7998206803
1.3600000000	151.2217742016
1.3650000000	74.3117438671
1.3700000000	42.6168357825
1.3750000000	27.4038880374
1.3800000000	19.1086560856
1.3850000000	14.1125246728
1.3900000000	10.8941529378
1.3950000000	8.6997828280
1.4000000000	7.1415278591
1.4050000000	6.0004864631
1.4100000000	5.1453924538
1.4150000000	4.5001665472
1.4200000000	4.0149610698
1.4250000000	3.6899890877
1.4300000000	3.5710012654
1.4350000000	3.6372564327
1.4400000000	2.8015468471
1.4450000000	0.2418024312
1.4500000000	-3.9139260330
1.4550000000	-1.0973290346
1.4600000000	4.7396873155
1.4650000000	2.5659678180
1.4700000000	-2.4234866327
1.4750000000	-10.6059397923
1.4800000000	-4.7203674323
1.4850000000	7.7581453020
1.4900000000	6.2887759516
1.4950000000	4.0705251186
1.5000000000	2.8600054862
1.5050000000	2.2081814739
1.5100000000	1.8366592576
1.5150000000	1.6110315408
1.5200000000	1.4652772114
1.5250000000	1.3747122592
1.5300000000	1.3055279835
1.5350000000	1.2578353276
1.5400000000	1.2264142314
1.5450000000	1.2084634185
1.5500000000	1.2021738658
1.5550000000	1.2075899323
1.5600000000	1.2279298300
1.5650000000	1.2615365194
1.5700000000	1.3159622126
1.5750000000	1.4004160262
1.5800000000	1.5321900598
1.5850000000	1.7449447363
1.5900000000	2.1095978017
1.5950000000	2.7830855944
1.6000000000	4.0969052681
1.6050000000	6.2692627754
1.6100000000	7.2753800634
1.6150000000	5.3894235456
1.6200000000	3.6201741215
1.6250000000	2.6862735138
1.6300000000	2.2173857267
1.6350000000	1.9760135539
1.6400000000	1.8537028146
1.6450000000	1.8000466775
1.6500000000	1.7898032002
1.6550000000	1.8111491538
1.6600000000	1.8570282622
1.6650000000	1.9242194373
1.6700000000	2.0114994712
1.6750000000	2.1188776463
1.6800000000	2.2473153691
1.6850000000	2.3983031218
1.6900000000	2.5731591633
1.6950000000	2.7694034304
1.7000000000	2.9837496338
1.7050000000	3.2034451938
1.7100000000	3.4541554781
1.7150000000	4.0769856904
1.7200000000	5.1695978762
1.7250000000	6.1707875609
1.7300000000	7.2453419905
1.7350000000	8.4260538167
1.7400000000	9.5845857893
1.7450000000	11.0726376169
1.7500000000	13.3229495160
1.7550000000	16.6723134952
1.7600000000	21.6835874108
1.7650000000	29.4085114138
1.7700000000	41.8520102829
1.7750000000	62.8160726754
1.7800000000	98.5384261225
1.7850000000	151.2205596996
1.7900000000	187.9266586718
1.7950000000	160.0232135336
1.8000000000	106.4999250330
1.8050000000	67.2571342195
1.8100000000	44.3442232910
1.8150000000	30.9140615430
1.8200000000	22.6489541445
1.8250000000	17.2906564632
1.8300000000	13.6525559533
1.8350000000	11.0846312396
1.8400000000	9.2137751131
1.8450000000	7.8136533979
1.8500000000	6.7416253942
1.8550000000	5.9084371372
1.8600000000	5.2518255764
1.8650000000	4.7294752206
1.8700000000	4.3112899626
1.8750000000	3.9751735428
1.8800000000	3.7035980304
1.8850000000	3.4810737349
1.8900000000	3.2897509128
1.8950000000	3.1029931308
1.9000000000	2.8748051894
1.9050000000	2.4428754582
1.9100000000	1.8483955248
1.9150000000	1.5332064796
1.9200000000	3.7509270578
1.9250000000	9.8814768701
1.9300000000	14.7434440651
1.9350000000	14.5168355773
1.9400000000	11.4179981925
1.9450000000	8.4135647248
1.9500000000	6.3040988507
1.9550000000	4.9219052793
1.9600000000	4.0085049400
1.9650000000	3.3971525668
1.9700000000	2.9558004125
1.9750000000	2.6322727245
1.9800000000	2.3852734315
1.9850000000	2.1848415815
1.9900000000	2.0080514875
1.9950000000	1.8348952943
2.0000000000	1.6624556792
2.0050000000	1.5522939876
2.0100000000	1.6154165414
2.0150000000	1.7892979804
2.0200000000	1.8965191862
2.0250000000	1.9250153959
2.0300000000	1.9314504139
2.0350000000	1.9431433507
2.0400000000	1.9702463155
2.0450000000	2.0153480876
2.0500000000	2.0801287264
2.0550000000	2.1661140059
2.0600000000	2.2733053587
2.0650000000	2.3952107119
2.0700000000	2.5157296077
2.0750000000	2.6227960401
2.0800000000	2.7270567899
2.0850000000	2.8505304274
2.0900000000	3.0079762640
2.0950000000	3.2056096772
2.1000000000	3.4501165550
2.1050000000	3.7392829836
2.1100000000	4.0934315486
2.1150000000	4.5274185675
2.1200000000	5.0620784606
2.1250000000	5.7266350393
2.1300000000	6.5622817961
2.1350000000	7.6278309894
2.1400000000	9.0082048431
2.1450000000	10.8275608082
2.1500000000	13.2668003548
2.1550000000	16.5819484267
2.1600000000	21.1006772518
2.1650000000	27.1004847028
2.1700000000	34.4703739787
2.1750000000	41.7976244702
2.1800000000	46.3250661594
2.1850000000	46.5606239790
2.1900000000	44.5026568397
2.1950000000	42.9013914082
2.2000000000	42.1915014260
2.2050000000	40.2182834096
2.2100000000	36.0284480713
2.2150000000	30.8768324492
2.2200000000	26.2520695207
2.2250000000	22.4299941047
2.2300000000	19.0648478743
2.2350000000	16.0226232609
2.2400000000	13.4096509334
2.2450000000	11.3189719258
2.2500000000	9.7162622281
2.2550000000	8.5122418471
2.2600000000	7.6106818306
2.2650000000	6.9151646457
2.2700000000	6.3214766323
2.2750000000	5.7269586944
2.2800000000	5.0869788497
2.2850000000	4.4780771028
2.2900000000	4.0573720278
2.2950000000	3.9137810518
2.3000000000	3.9653031104
2.3050000000	4.0438740335
2.3100000000	4.0505324134
2.3150000000	3.9860841392
2.3200000000	3.8933662658
2.3250000000	3.8166244700
2.3300000000	3.7784991277
2.3350000000	3.7828838482
2.3400000000	3.8171096755
2.3450000000	3.8524988090
2.3500000000	3.8529397424
2.3550000000	3.7953935461
2.3600000000	3.6863802566
2.3650000000	3.5543902989
2.3700000000	3.4287908646
2.3750000000	3.3271205919
2.3800000000	3.2550744564
2.3850000000	3.2110370165
2.3900000000	3.1913299179
2.3950000000	3.1916931047
2.4000000000	3.2132885467
2.4050000000	3.2632212836
2.4100000000	3.3438730741
2.4150000000	3.4585419651
2.4200000000	3.6092113138
2.4250000000	3.7993485041
2.4300000000	4.0340088517
2.4350000000	4.3199735552
2.4400000000	4.6659934222
2.4450000000	5.0832410621
2.4500000000	5.5858132998
2.4550000000	6.1914279046
2.4600000000	6.9218538681
2.4650000000	7.8032094738
2.4700000000	8.8654495047
2.4750000000	10.1385795806
2.4800000000	11.6535884215
2.4850000000	13.4227427345
2.4900000000	15.4287488065
2.4950000000	17.5998153683
2.5000000000	19.7841162098
2.5050000000	21.8274024441
2.5100000000	23.2077284791
2.5150000000	23.6240655939
2.5200000000	23.0047043731
2.5250000000	21.5408320329
2.5300000000	19.5654816283
2.5350000000	17.3998239884
2.5400000000	15.2707423216
2.5450000000	13.3064155127
2.5500000000	11.5638354787
2.5550000000	10.0559726970
2.5600000000	8.7620937407
2.5650000000	7.6742647176
2.5700000000	6.7668778744
2.5750000000	6.0239027893
2.5800000000	5.4333654985
2.5850000000	4.9822480905
2.5900000000	4.6491383588
2.5950000000	4.4039316095
2.6000000000	4.2152822385
2.6050000000	4.0812107281
2.6100000000	3.9651183706
2.6150000000	3.8651654277
2.6200000000	3.7833269761
2.6250000000	3.7217913231
2.6300000000	3.6820194079
2.6350000000	3.6647569114
2.6400000000	3.6704365365
2.6450000000	3.6994613759
2.6500000000	3.7526200747
2.6550000000	3.8301336413
2.6600000000	3.9331924942
2.6650000000	4.0629992403
2.6700000000	4.2210309272
2.6750000000	4.4090773152
2.6800000000	4.6291213411
2.6850000000	4.8831914936
2.6900000000	5.1729490533
2.6950000000	5.4993580008
2.7000000000	5.8620881272
2.7050000000	6.3023953175
2.7100000000	6.7829367685
2.7150000000	7.2943589276
2.7200000000	7.8230566015
2.7250000000	8.3519362360
2.7300000000	8.8617076845
2.7350000000	9.3319945136
2.7400000000	9.7416019883
2.7450000000	10.0717127383
2.7500000000	10.2931400227
2.7550000000	10.3882119157
2.7600000000	10.3435194990
2.7650000000	10.1575007580
2.7700000000	9.8426246603
2.7750000000	9.4238757814
2.7800000000	8.9338203209
2.7850000000	8.4070071596
2.7900000000	7.8744347918
2.7950000000	7.3609613507
2.8000000000	6.8841639272
2.8050000000	6.4017534411
2.8100000000	5.9888698096
2.8150000000	5.6444060736
2.8200000000	5.3628178798
2.8250000000	5.1367974627
2.8300000000	4.9589832974
2.8350000000	4.8230755574
2.8400000000	4.7224421223
2.8450000000	4.6573140057
2.8500000000	4.6228712603
2.8550000000	4.6172773600
2.8600000000	4.6391607869
2.8650000000	4.6872859352
2.8700000000	4.7602711452
2.8750000000	4.8563634867
2.8800000000	4.9732653184
2.8850000000	5.1079885149
2.8900000000	5.2569412615
2.8950000000	5.4160612209
2.9000000000	5.5810760793
2.9050000000	5.7793844225
2.9100000000	5.9696344828
2.9150000000	6.1458408688
2.9200000000	6.3017211815
2.9250000000	6.4301466678
2.9300000000	6.5245535305
2.9350000000	6.5747352834
2.9400000000	6.5762860981
2.9450000000	6.5273288925
2.9500000000	6.4306887547
2.9550000000	6.2937116500
2.9600000000	6.1270010644
2.9650000000	5.9425718152
2.9700000000	5.7520424678
2.9750000000	5.5653424227
2.9800000000	5.3900798366
2.9850000000	5.2314459172
2.9900000000	5.0925629041
2.9950000000	4.9748965086
3.0000000000	4.8787553372
