# energy (eV)    P(omega), $W$ = 300 nm, $h$ = 300 nm, $s$ = 20 nm, $d/W = 5$, $E_{\rm e}$ = 200 keV
0.2000000000	0.1446275350
0.2050000000	0.1468303554
0.2100000000	0.1488775739
0.2150000000	0.1507743805
0.2200000000	0.1525254503
0.2250000000	0.1541346407
0.2300000000	0.1556050307
0.2350000000	0.1569387640
0.2400000000	0.1581369287
0.2450000000	0.1591993660
0.2500000000	0.1601245225
0.2550000000	0.1609090587
0.2600000000	0.1615477847
0.2650000000	0.1620329865
0.2700000000	0.1623541808
0.2750000000	0.1624973328
0.2800000000	0.1624441385
0.2850000000	0.1621709773
0.2900000000	0.1616476368
0.2950000000	0.1608356226
0.3000000000	0.1596858055
0.3050000000	0.1581355748
0.3100000000	0.1561047373
0.3150000000	0.1652969980
0.3200000000	0.1762134310
0.3250000000	0.1900300088
0.3300000000	0.2085503935
0.3350000000	0.2315967333
0.3400000000	0.2617751728
0.3450000000	0.2983464558
0.3500000000	0.3461681064
0.3550000000	0.4094121587
0.3600000000	0.4919262749
0.3650000000	0.6069009365
0.3700000000	0.7583512091
0.3750000000	0.9688577209
0.3800000000	1.2730812658
0.3850000000	1.7468127363
0.3900000000	2.4946132829
0.3950000000	3.7638612797
0.4000000000	6.1817863691
0.4050000000	11.5989226995
0.4100000000	26.3690545522
0.4150000000	84.5434851265
0.4200000000	53.9023227011
0.4250000000	-101.1794039181
0.4300000000	28.0806320766
0.4350000000	17.4760156834
0.4400000000	10.6673317090
0.4450000000	7.0050280716
0.4500000000	4.8981832756
0.4550000000	3.6024719060
0.4600000000	2.7590836066
0.4650000000	2.1846749461
0.4700000000	1.7788809209
0.4750000000	1.4855004126
0.4800000000	1.2680264755
0.4850000000	1.1043820622
0.4900000000	0.9794351169
0.4950000000	0.8830318541
0.5000000000	0.8082306053
0.5050000000	0.7499436536
0.5100000000	0.7048893656
0.5150000000	0.6706493814
0.5200000000	0.6447118055
0.5250000000	0.6259311196
0.5300000000	0.6130893828
0.5350000000	0.6052920138
0.5400000000	0.6018786020
0.5450000000	0.6022977250
0.5500000000	0.6063640072
0.5550000000	0.6137631793
0.5600000000	0.6243277773
0.5650000000	0.6379778305
0.5700000000	0.6546361871
0.5750000000	0.6744167181
0.5800000000	0.6975036405
0.5850000000	0.7240147750
0.5900000000	0.7541864548
0.5950000000	0.7883213210
0.6000000000	0.8268034083
0.6050000000	0.8701993365
0.6100000000	0.9190425240
0.6150000000	0.9740676559
0.6200000000	1.0362555130
0.6250000000	1.1065453769
0.6300000000	1.1863284791
0.6350000000	1.2773381939
0.6400000000	1.3813758427
0.6450000000	1.5010459032
0.6500000000	1.6397700601
0.6550000000	1.8011082097
0.6600000000	1.9905366986
0.6650000000	2.2150747712
0.6700000000	2.4829731972
0.6750000000	2.8068202800
0.6800000000	3.2035362601
0.6850000000	3.6952781498
0.6900000000	4.3163612276
0.6950000000	5.1147674401
0.7000000000	6.1667030057
0.7050000000	7.5886372020
0.7100000000	9.5778757712
0.7150000000	12.4855967594
0.7200000000	16.9654042341
0.7250000000	24.3986614192
0.7300000000	38.0370511310
0.7350000000	67.2072827883
0.7400000000	147.1735546716
0.7450000000	487.8604694798
0.7500000000	1510.2003212148
0.7550000000	379.6228958088
0.7600000000	125.6224438826
0.7650000000	60.1432168107
0.7700000000	34.9492225455
0.7750000000	22.7921301854
0.7800000000	16.0269200912
0.7850000000	11.8936328123
0.7900000000	9.1813898634
0.7950000000	7.3115240629
0.8000000000	5.9678428359
0.8050000000	4.9674690991
0.8100000000	4.2049049969
0.8150000000	3.6006692161
0.8200000000	3.1239446006
0.8250000000	2.7402149706
0.8300000000	2.4259891542
0.8350000000	2.1677012117
0.8400000000	1.9512435576
0.8450000000	1.7696488635
0.8500000000	1.6161679299
0.8550000000	1.4837593139
0.8600000000	1.3707317102
0.8650000000	1.2741736253
0.8700000000	1.1888805386
0.8750000000	1.1162929676
0.8800000000	1.0546532189
0.8850000000	0.9993950793
0.8900000000	0.9549609300
0.8950000000	0.9145424563
0.9000000000	0.8823894665
0.9050000000	0.8600221071
0.9100000000	0.8395094614
0.9150000000	0.8267872340
0.9200000000	0.8245875123
0.9250000000	0.8228054556
0.9300000000	0.8101816664
0.9350000000	0.7737964808
0.9400000000	0.5738573135
0.9450000000	-0.3324109893
0.9500000000	-5.1099216587
0.9550000000	-29.3234430333
0.9600000000	6.9160157566
0.9650000000	12.1389341841
0.9700000000	5.3815282944
0.9750000000	2.8248173913
0.9800000000	1.7706326443
0.9850000000	1.2777189328
0.9900000000	0.9938474266
0.9950000000	0.8217658545
1.0000000000	0.7119056872
1.0050000000	0.6422248602
1.0100000000	0.5882577711
1.0150000000	0.5488478286
1.0200000000	0.5222865076
1.0250000000	0.5000419544
1.0300000000	0.4831721447
1.0350000000	0.4704460205
1.0400000000	0.4623815338
1.0450000000	0.4557389803
1.0500000000	0.4514302762
1.0550000000	0.4491929086
1.0600000000	0.4496066986
1.0650000000	0.4510557187
1.0700000000	0.4542032318
1.0750000000	0.4590630739
1.0800000000	0.4660730867
1.0850000000	0.4749625879
1.0900000000	0.4879912216
1.0950000000	0.5034438663
1.1000000000	0.5218227620
1.1050000000	0.5430407156
1.1100000000	0.5677485261
1.1150000000	0.5965075042
1.1200000000	0.6299622817
1.1250000000	0.6690451381
1.1300000000	0.7148996920
1.1350000000	0.7689854268
1.1400000000	0.8329410820
1.1450000000	0.9098551944
1.1500000000	1.0030065984
1.1550000000	1.1171717326
1.1600000000	1.2590898109
1.1650000000	1.4374820833
1.1700000000	1.6687934683
1.1750000000	1.9747599568
1.1800000000	2.3913479534
1.1850000000	2.9777004541
1.1900000000	3.8451530676
1.1950000000	5.2077523403
1.2000000000	7.5198278255
1.2050000000	11.8898957782
1.2100000000	21.5031860505
1.2150000000	47.4809094859
1.2200000000	116.5444939119
1.2250000000	104.6086474352
1.2300000000	41.6330109862
1.2350000000	19.4518902951
1.2400000000	11.0488447471
1.2450000000	7.1862781141
1.2500000000	5.1433184023
1.2550000000	3.9581379433
1.2600000000	3.2298776752
1.2650000000	2.7655459939
1.2700000000	2.4779931023
1.2750000000	2.3105729525
1.2800000000	2.2354323091
1.2850000000	2.2392392563
1.2900000000	2.3185803553
1.2950000000	2.4769529034
1.3000000000	2.7356231615
1.3050000000	3.1215001623
1.3100000000	3.6864499199
1.3150000000	4.5206454762
1.3200000000	5.7868635803
1.3250000000	7.7948686703
1.3300000000	11.2252813831
1.3350000000	17.6539660358
1.3400000000	31.3950249219
1.3450000000	65.4995765595
1.3500000000	138.8586177049
1.3550000000	129.4183704943
1.3600000000	59.6590721847
1.3650000000	29.3096992543
1.3700000000	16.8102249252
1.3750000000	10.8128146558
1.3800000000	7.5429069543
1.3850000000	5.5729233130
1.3900000000	4.3026800580
1.3950000000	3.4355826068
1.4000000000	2.8179093380
1.4050000000	2.3630962278
1.4100000000	2.0182495325
1.4150000000	1.7509754742
1.4200000000	1.5371693605
1.4250000000	1.3659325492
1.4300000000	1.2274306833
1.4350000000	1.0866431565
1.4400000000	0.6407716793
1.4450000000	-0.5139404514
1.4500000000	-2.6262450472
1.4550000000	-0.9537018341
1.4600000000	2.3965952601
1.4650000000	1.4582596039
1.4700000000	-0.6228495441
1.4750000000	-3.8044639550
1.4800000000	-1.6583487390
1.4850000000	2.9862272441
1.4900000000	2.4158836795
1.4950000000	1.5740893063
1.5000000000	1.1133246076
1.5050000000	0.8630221384
1.5100000000	0.7195250359
1.5150000000	0.6312006426
1.5200000000	0.5731018729
1.5250000000	0.5361198286
1.5300000000	0.5067370345
1.5350000000	0.4852293630
1.5400000000	0.4694750853
1.5450000000	0.4581778876
1.5500000000	0.4504872643
1.5550000000	0.4459726279
1.5600000000	0.4453551270
1.5650000000	0.4469746192
1.5700000000	0.4523379455
1.5750000000	0.4624674303
1.5800000000	0.4794384906
1.5850000000	0.5073391789
1.5900000000	0.5547917651
1.5950000000	0.6407434552
1.6000000000	0.8046779416
1.6050000000	1.0700539759
1.6100000000	1.1877956620
1.6150000000	0.9598759666
1.6200000000	0.7538125533
1.6250000000	0.6516636922
1.6300000000	0.6070647885
1.6350000000	0.5911771568
1.6400000000	0.5910879660
1.6450000000	0.6009574876
1.6500000000	0.6180293384
1.6550000000	0.6411537510
1.6600000000	0.6698867922
1.6650000000	0.7042834940
1.6700000000	0.7447360935
1.6750000000	0.7919251616
1.6800000000	0.8468158093
1.6850000000	0.9106925590
1.6900000000	0.9852030919
1.6950000000	1.0719139370
1.7000000000	1.1741306224
1.7050000000	1.2978810531
1.7100000000	1.4503073377
1.7150000000	1.6666824216
1.7200000000	1.9664649691
1.7250000000	2.3298938506
1.7300000000	2.7863427061
1.7350000000	3.2741170304
1.7400000000	3.7047556186
1.7450000000	4.2402649773
1.7500000000	5.0710673396
1.7550000000	6.3252053548
1.7600000000	8.2110570393
1.7650000000	11.1222035667
1.7700000000	15.8115850777
1.7750000000	23.7073329578
1.7800000000	37.1483914407
1.7850000000	56.9390217745
1.7900000000	70.6614858419
1.7950000000	60.0742739035
1.8000000000	39.9078171232
1.8050000000	25.1489223992
1.8100000000	16.5401846313
1.8150000000	11.4975175900
1.8200000000	8.3951573032
1.8250000000	6.3836884004
1.8300000000	5.0170344351
1.8350000000	4.0509159453
1.8400000000	3.3451570972
1.8450000000	2.8145503084
1.8500000000	2.4053212844
1.8550000000	2.0837338241
1.8600000000	1.8259313892
1.8650000000	1.6154282501
1.8700000000	1.4400535601
1.8750000000	1.2902647424
1.8800000000	1.1576708359
1.8850000000	1.0337617869
1.8900000000	0.9077224988
1.8950000000	0.7631079990
1.9000000000	0.5722423651
1.9050000000	0.2473797020
1.9100000000	-0.2243478519
1.9150000000	-0.7324224776
1.9200000000	-0.5054117572
1.9250000000	0.9785126256
1.9300000000	2.1704714123
1.9350000000	2.2672715537
1.9400000000	1.8690181450
1.9450000000	1.4666055625
1.9500000000	1.1772545067
1.9550000000	0.9831166761
1.9600000000	0.8521324037
1.9650000000	0.7654145136
1.9700000000	0.6997433173
1.9750000000	0.6515459890
1.9800000000	0.6152438737
1.9850000000	0.5868961801
1.9900000000	0.5636948084
1.9950000000	0.5433651998
2.0000000000	0.5253586706
2.0050000000	0.5161859913
2.0100000000	0.5246057838
2.0150000000	0.5447332548
2.0200000000	0.5605783114
2.0250000000	0.5713843084
2.0300000000	0.5829229833
2.0350000000	0.5976839330
2.0400000000	0.6175676540
2.0450000000	0.6438113689
2.0500000000	0.6779024460
2.0550000000	0.7213493699
2.0600000000	0.7742241326
2.0650000000	0.8315045724
2.0700000000	0.8807312271
2.0750000000	0.9120084753
2.0800000000	0.9320922465
2.0850000000	0.9560713965
2.0900000000	0.9932870873
2.0950000000	1.0465947710
2.1000000000	1.1175308910
2.1050000000	1.2044735988
2.1100000000	1.3134886972
2.1150000000	1.4487873422
2.1200000000	1.6166193166
2.1250000000	1.8259685868
2.1300000000	2.0896448400
2.1350000000	2.4260210943
2.1400000000	2.8616545239
2.1450000000	3.4353636030
2.1500000000	4.2036567913
2.1550000000	5.2464039673
2.1600000000	6.6657239331
2.1650000000	8.5479759679
2.1700000000	10.8604517966
2.1750000000	13.1683359426
2.1800000000	14.6275645014
2.1850000000	14.7918961225
2.1900000000	14.2896552932
2.1950000000	13.9562559558
2.2000000000	13.8602947771
2.2050000000	13.1937399150
2.2100000000	11.6178357024
2.2150000000	9.6160583464
2.2200000000	7.7844822208
2.2250000000	6.3175036682
2.2300000000	5.1628923698
2.2350000000	4.2458431691
2.2400000000	3.5182792082
2.2450000000	2.9504044319
2.2500000000	2.5075273525
2.2550000000	2.1580977912
2.2600000000	1.8757819858
2.2650000000	1.6386707869
2.2700000000	1.4283572932
2.2750000000	1.2319244711
2.2800000000	1.0502897485
2.2850000000	0.9062559374
2.2900000000	0.8335969795
2.2950000000	0.8439516484
2.3000000000	0.9039983427
2.3050000000	0.9626792158
2.3100000000	0.9880103768
2.3150000000	0.9816154517
2.3200000000	0.9574976682
2.3250000000	0.9299525770
2.3300000000	0.9067055974
2.3350000000	0.8904345899
2.3400000000	0.8805858388
2.3450000000	0.8742949636
2.3500000000	0.8677375565
2.3550000000	0.8584680414
2.3600000000	0.8471647683
2.3650000000	0.8367942315
2.3700000000	0.8302972460
2.3750000000	0.8291107370
2.3800000000	0.8329903209
2.3850000000	0.8404606082
2.3900000000	0.8498781404
2.3950000000	0.8598374110
2.4000000000	0.8711773094
2.4050000000	0.8870231884
2.4100000000	0.9089636799
2.4150000000	0.9390134090
2.4200000000	0.9785427267
2.4250000000	1.0287982250
2.4300000000	1.0911781173
2.4350000000	1.1674349711
2.4400000000	1.2598236920
2.4450000000	1.3712534153
2.4500000000	1.5054265920
2.4550000000	1.6670273233
2.4600000000	1.8618397107
2.4650000000	2.0968624616
2.4700000000	2.3802022354
2.4750000000	2.7201114178
2.4800000000	3.1255161080
2.4850000000	3.6004301885
2.4900000000	4.1409232704
2.4950000000	4.7274462146
2.5000000000	5.3165674951
2.5050000000	5.8610561041
2.5100000000	6.2128081386
2.5150000000	6.2898132130
2.5200000000	6.0814690404
2.5250000000	5.6529634070
2.5300000000	5.1034686837
2.5350000000	4.5199711377
2.5400000000	3.9575657546
2.5450000000	3.4434815497
2.5500000000	2.9878928576
2.5550000000	2.5920920845
2.5600000000	2.2503368402
2.5650000000	1.9618784193
2.5700000000	1.7209616826
2.5750000000	1.5241801617
2.5800000000	1.3688733545
2.5850000000	1.2517451723
2.5900000000	1.1668451230
2.5950000000	1.1055586865
2.6000000000	1.0588756490
2.6050000000	1.0255805068
2.6100000000	0.9956842628
2.6150000000	0.9688193505
2.6200000000	0.9456572215
2.6250000000	0.9268580305
2.6300000000	0.9128204315
2.6350000000	0.9037172803
2.6400000000	0.8996392382
2.6450000000	0.9006886574
2.6500000000	0.9070853390
2.6550000000	0.9188661444
2.6600000000	0.9363400772
2.6650000000	0.9597800801
2.6700000000	0.9895078129
2.6750000000	1.0259049548
2.6800000000	1.0693963334
2.6850000000	1.1204459818
2.6900000000	1.1795023683
2.6950000000	1.2469720057
2.7000000000	1.3231366174
2.7050000000	1.4171675512
2.7100000000	1.5225583944
2.7150000000	1.6385861383
2.7200000000	1.7636875201
2.7250000000	1.8952579941
2.7300000000	2.0294663198
2.7350000000	2.1610926588
2.7400000000	2.2834435027
2.7450000000	2.3894523300
2.7500000000	2.4688614750
2.7550000000	2.5146247321
2.7600000000	2.5214500244
2.7650000000	2.4879758203
2.7700000000	2.4172514526
2.7750000000	2.3161189799
2.7800000000	2.1936529839
2.7850000000	2.0595072587
2.7900000000	1.9223060330
2.7950000000	1.7889540938
2.8000000000	1.6643216977
2.8050000000	1.5375889367
2.8100000000	1.4281877814
2.8150000000	1.3358687450
2.8200000000	1.2591807287
2.8250000000	1.1961951377
2.8300000000	1.1449773077
2.8350000000	1.1038783901
2.8400000000	1.0711455382
2.8450000000	1.0468968749
2.8500000000	1.0298478110
2.8550000000	1.0195197304
2.8600000000	1.0155740339
2.8650000000	1.0177432324
2.8700000000	1.0257892298
2.8750000000	1.0394683975
2.8800000000	1.0584989357
2.8850000000	1.0825304156
2.8900000000	1.1111314164
2.8950000000	1.1437749889
2.9000000000	1.1798360481
2.9050000000	1.2272077609
2.9100000000	1.2758445335
2.9150000000	1.3238706689
2.9200000000	1.3690305102
2.9250000000	1.4087086470
2.9300000000	1.4404469394
2.9350000000	1.4609729603
2.9400000000	1.4686474351
2.9450000000	1.4626308774
2.9500000000	1.4434172544
2.9550000000	1.4127595938
2.9600000000	1.3733280842
2.9650000000	1.3282204245
2.9700000000	1.2804763894
2.9750000000	1.2327334875
2.9800000000	1.1870372781
2.9850000000	1.1448147703
2.9900000000	1.1069441247
2.9950000000	1.0738727051
3.0000000000	1.0457447614
