# energy (eV)    P(omega), $W$ = 400 nm, $h$ = 300 nm, $s$ = 20 nm, $d/W = 5$, $E_{\rm e}$ = 200 keV
0.2000000000	0.0628524945
0.2050000000	0.0634242370
0.2100000000	0.0638267746
0.2150000000	0.0640533283
0.2200000000	0.0640944183
0.2250000000	0.0639371661
0.2300000000	0.0635646258
0.2350000000	0.0629547334
0.2400000000	0.0620791135
0.2450000000	0.0609011962
0.2500000000	0.0593742262
0.2550000000	0.0574380436
0.2600000000	0.0550151233
0.2650000000	0.0575537591
0.2700000000	0.0640023398
0.2750000000	0.0732300645
0.2800000000	0.0860869051
0.2850000000	0.1050412582
0.2900000000	0.1285270554
0.2950000000	0.1621959314
0.3000000000	0.2074565281
0.3050000000	0.2768302233
0.3100000000	0.3734656392
0.3150000000	0.5604508408
0.3200000000	0.8524854066
0.3250000000	1.0524247232
0.3300000000	1.3290053416
0.3350000000	1.7210980765
0.3400000000	2.3366045271
0.3450000000	3.3926161943
0.3500000000	5.4983951833
0.3550000000	10.3730120417
0.3600000000	25.4929566720
0.3650000000	0.1151874933
0.3700000000	11.8150854489
0.3750000000	15.5363828120
0.3800000000	7.2394193840
0.3850000000	4.0780308843
0.3900000000	2.6156961482
0.3950000000	1.8432266580
0.4000000000	1.3959673670
0.4050000000	1.1043856486
0.4100000000	0.9145595163
0.4150000000	0.7893586952
0.4200000000	0.7102292654
0.4250000000	0.6480831408
0.4300000000	0.5746486912
0.4350000000	0.5165296519
0.4400000000	0.4705639775
0.4450000000	0.4340158293
0.4500000000	0.4051612443
0.4550000000	0.3822803466
0.4600000000	0.3644313404
0.4650000000	0.3506181169
0.4700000000	0.3401812371
0.4750000000	0.3326593132
0.4800000000	0.3276497169
0.4850000000	0.3247994089
0.4900000000	0.3238996114
0.4950000000	0.3247896992
0.5000000000	0.3273324279
0.5050000000	0.3314666221
0.5100000000	0.3371421663
0.5150000000	0.3443292766
0.5200000000	0.3530428458
0.5250000000	0.3632950881
0.5300000000	0.3752365165
0.5350000000	0.3889340407
0.5400000000	0.4045081485
0.5450000000	0.4221168485
0.5500000000	0.4419836984
0.5550000000	0.4643532334
0.5600000000	0.4895230952
0.5650000000	0.5178760181
0.5700000000	0.5499403526
0.5750000000	0.5861076897
0.5800000000	0.6271107424
0.5850000000	0.6739506363
0.5900000000	0.7273026417
0.5950000000	0.7885877045
0.6000000000	0.8596830784
0.6050000000	0.9419957220
0.6100000000	1.0387508982
0.6150000000	1.1526231817
0.6200000000	1.2882038230
0.6250000000	1.4520797109
0.6300000000	1.6509683466
0.6350000000	1.8974924945
0.6400000000	2.2055784172
0.6450000000	2.6004973071
0.6500000000	3.1145304474
0.6550000000	3.8023591653
0.6600000000	4.7563117791
0.6650000000	6.1222588822
0.6700000000	8.1906272900
0.6750000000	11.5162490863
0.6800000000	17.3949078827
0.6850000000	29.1908083089
0.6900000000	58.5029673562
0.6950000000	164.2263442116
0.7000000000	796.5105972478
0.7050000000	387.2427808145
0.7100000000	99.4744796701
0.7150000000	42.3021259250
0.7200000000	23.1017217300
0.7250000000	14.5120057538
0.7300000000	9.9532277426
0.7350000000	7.2583085934
0.7400000000	5.5325811043
0.7450000000	4.3612260339
0.7500000000	3.5314604843
0.7550000000	2.9218561557
0.7600000000	2.4623839045
0.7650000000	2.1060699021
0.7700000000	1.8247966236
0.7750000000	1.5989869056
0.7800000000	1.4154863740
0.7850000000	1.2643925299
0.7900000000	1.1378110211
0.7950000000	1.0320922345
0.8000000000	0.9422027888
0.8050000000	0.8651905916
0.8100000000	0.7996301160
0.8150000000	0.7421691302
0.8200000000	0.6921432111
0.8250000000	0.6501626857
0.8300000000	0.6134158160
0.8350000000	0.5814697337
0.8400000000	0.5560293301
0.8450000000	0.5338311895
0.8500000000	0.5150094750
0.8550000000	0.5031121804
0.8600000000	0.4935821403
0.8650000000	0.4867583969
0.8700000000	0.4891328572
0.8750000000	0.4899640127
0.8800000000	0.4873261474
0.8850000000	0.4661368479
0.8900000000	0.3617401583
0.8950000000	-0.1614427778
0.9000000000	-2.9668875397
0.9050000000	-19.4946816427
0.9100000000	3.7121712707
0.9150000000	8.7934296971
0.9200000000	3.6503215940
0.9250000000	1.8990032022
0.9300000000	1.1591975119
0.9350000000	0.8057428668
0.9400000000	0.6150692597
0.9450000000	0.5093800090
0.9500000000	0.4343237576
0.9550000000	0.3840819695
0.9600000000	0.3530095828
0.9650000000	0.3273714321
0.9700000000	0.3090770309
0.9750000000	0.2966090732
0.9800000000	0.2890184436
0.9850000000	0.2876265911
0.9900000000	0.2903941243
0.9950000000	0.3015699395
1.0000000000	0.3282890099
1.0050000000	0.3906703967
1.0100000000	0.5541552507
1.0150000000	1.1144686190
1.0200000000	2.1402530045
1.0250000000	0.9729887786
1.0300000000	0.4983434650
1.0350000000	0.3568772427
1.0400000000	0.3012462829
1.0450000000	0.2751477753
1.0500000000	0.2620645242
1.0550000000	0.2551995879
1.0600000000	0.2521167490
1.0650000000	0.2515373557
1.0700000000	0.2527525027
1.0750000000	0.2555125389
1.0800000000	0.2593224512
1.0850000000	0.2645080603
1.0900000000	0.2720019602
1.0950000000	0.2807387354
1.1000000000	0.2908039794
1.1050000000	0.3022158027
1.1100000000	0.3151547897
1.1150000000	0.3297930982
1.1200000000	0.3463350512
1.1250000000	0.3649497360
1.1300000000	0.3861193923
1.1350000000	0.4101690811
1.1400000000	0.4375855942
1.1450000000	0.4689879413
1.1500000000	0.5048578288
1.1550000000	0.5466951156
1.1600000000	0.5954482335
1.1650000000	0.6523594434
1.1700000000	0.7176863544
1.1750000000	0.7839397227
1.1800000000	0.8466391112
1.1850000000	1.1767059642
1.1900000000	1.4602972410
1.1950000000	2.0018484630
1.2000000000	2.7263825045
1.2050000000	2.3914974983
1.2100000000	2.2886973121
1.2150000000	2.5479729523
1.2200000000	3.0473970797
1.2250000000	3.8143555720
1.2300000000	4.9805709831
1.2350000000	6.8254021844
1.2400000000	9.9330209284
1.2450000000	15.7846464067
1.2500000000	28.4576169470
1.2550000000	61.6018053971
1.2600000000	148.7940215762
1.2650000000	150.7221506995
1.2700000000	62.6973362465
1.2750000000	28.9411478134
1.2800000000	16.0281247974
1.2850000000	10.0794383758
1.2900000000	6.9085347199
1.2950000000	5.0350428359
1.3000000000	3.8417112982
1.3050000000	3.0382449452
1.3100000000	2.4716716603
1.3150000000	2.0622943013
1.3200000000	1.7588222439
1.3250000000	1.5304483535
1.3300000000	1.3584605101
1.3350000000	1.2313767150
1.3400000000	1.1432357656
1.3450000000	1.0924027820
1.3500000000	1.0862925118
1.3550000000	1.1417853922
1.3600000000	1.3018329752
1.3650000000	1.6757353614
1.3700000000	2.5686678000
1.3750000000	4.7903585128
1.3800000000	7.8247073074
1.3850000000	5.4661550739
1.3900000000	2.7855924419
1.3950000000	1.6162971011
1.4000000000	1.0585133713
1.4050000000	0.7156981437
1.4100000000	0.4054197531
1.4150000000	-0.0574554325
1.4200000000	-1.0937626463
1.4250000000	-3.8397020201
1.4300000000	-5.1627286000
1.4350000000	2.3652550256
1.4400000000	3.0255247572
1.4450000000	1.8139328020
1.4500000000	1.1287019426
1.4550000000	0.7780634815
1.4600000000	0.5745540602
1.4650000000	0.4137197566
1.4700000000	0.2416849331
1.4750000000	0.2840171474
1.4800000000	0.4163801557
1.4850000000	0.3780870161
1.4900000000	0.3347873719
1.4950000000	0.3067808010
1.5000000000	0.2883827374
1.5050000000	0.2762179274
1.5100000000	0.2679423875
1.5150000000	0.2634269238
1.5200000000	0.2600983128
1.5250000000	0.2588973649
1.5300000000	0.2599346572
1.5350000000	0.2636850023
1.5400000000	0.2713330087
1.5450000000	0.2855095271
1.5500000000	0.3121277320
1.5550000000	0.3629742546
1.5600000000	0.4392983570
1.5650000000	0.4515302377
1.5700000000	0.3826555226
1.5750000000	0.3343247979
1.5800000000	0.3134759116
1.5850000000	0.3069162566
1.5900000000	0.3077672904
1.5950000000	0.3130418355
1.6000000000	0.3214384634
1.6050000000	0.3325091472
1.6100000000	0.3459193395
1.6150000000	0.3616192305
1.6200000000	0.3798589160
1.6250000000	0.4008541457
1.6300000000	0.4249595053
1.6350000000	0.4526321270
1.6400000000	0.4844565581
1.6450000000	0.5211793800
1.6500000000	0.5637377279
1.6550000000	0.6133192166
1.6600000000	0.6714625223
1.6650000000	0.7401537478
1.6700000000	0.8213240024
1.6750000000	0.9197122631
1.6800000000	1.0395073931
1.6850000000	1.1872992448
1.6900000000	1.3724441783
1.6950000000	1.6086723106
1.7000000000	1.9166527467
1.7050000000	2.3415200638
1.7100000000	2.9342856362
1.7150000000	3.7958831486
1.7200000000	5.1089872837
1.7250000000	7.1921755053
1.7300000000	10.3934663336
1.7350000000	14.5017603567
1.7400000000	19.6952889685
1.7450000000	28.8090686147
1.7500000000	40.6395977547
1.7550000000	41.2933430447
1.7600000000	28.9699158199
1.7650000000	18.0455567752
1.7700000000	11.5679117873
1.7750000000	7.8844836674
1.7800000000	5.7077348019
1.7850000000	4.3687645337
1.7900000000	3.5383997023
1.7950000000	3.0632750221
1.8000000000	2.8715020456
1.8050000000	2.8107863952
1.8100000000	2.5007913004
1.8150000000	1.9377550636
1.8200000000	1.4879279991
1.8250000000	1.2559984880
1.8300000000	1.0934767197
1.8350000000	0.9490399925
1.8400000000	0.8312625999
1.8450000000	0.7377988019
1.8500000000	0.6624767193
1.8550000000	0.6002520517
1.8600000000	0.5430137335
1.8650000000	0.4946237518
1.8700000000	0.4457179789
1.8750000000	0.3752163892
1.8800000000	0.2145110970
1.8850000000	-0.1377041338
1.8900000000	-0.6114546616
1.8950000000	-0.6927405232
1.9000000000	0.0741298622
1.9050000000	0.7891257534
1.9100000000	0.8725564727
1.9150000000	0.7371482957
1.9200000000	0.6044357590
1.9250000000	0.5102624067
1.9300000000	0.4532305202
1.9350000000	0.4096888996
1.9400000000	0.3807235367
1.9450000000	0.3615495870
1.9500000000	0.3481473553
1.9550000000	0.3369332520
1.9600000000	0.3272508961
1.9650000000	0.3203756694
1.9700000000	0.3167041628
1.9750000000	0.3159920834
1.9800000000	0.3180414298
1.9850000000	0.3229117037
1.9900000000	0.3309226400
1.9950000000	0.3424742085
2.0000000000	0.3572660031
2.0050000000	0.3740464789
2.0100000000	0.3860836325
2.0150000000	0.3941120965
2.0200000000	0.4037929417
2.0250000000	0.4187358317
2.0300000000	0.4400030283
2.0350000000	0.4681263127
2.0400000000	0.5040713030
2.0450000000	0.5495134489
2.0500000000	0.6068590076
2.0550000000	0.6787820351
2.0600000000	0.7665794422
2.0650000000	0.8688708706
2.0700000000	0.9871928792
2.0750000000	1.1347446282
2.0800000000	1.3333177846
2.0850000000	1.6041593940
2.0900000000	1.9596261349
2.0950000000	2.3741793375
2.1000000000	2.7436623871
2.1050000000	2.9227012113
2.1100000000	2.8376802108
2.1150000000	2.6420332938
2.1200000000	2.5037492816
2.1250000000	2.4978526494
2.1300000000	2.6466018606
2.1350000000	2.9676389263
2.1400000000	3.4962997857
2.1450000000	4.2950989751
2.1500000000	5.4515773572
2.1550000000	7.0314917179
2.1600000000	8.9074325243
2.1650000000	10.4841278814
2.1700000000	10.8566782222
2.1750000000	9.7184821257
2.1800000000	7.8459862123
2.1850000000	6.0535468997
2.1900000000	4.6521250408
2.1950000000	3.6396401514
2.2000000000	2.9292990365
2.2050000000	2.4392236627
2.2100000000	2.0990121828
2.2150000000	1.8380667598
2.2200000000	1.6042420375
2.2250000000	1.3818358390
2.2300000000	1.1804619048
2.2350000000	1.0075544221
2.2400000000	0.8611079542
2.2450000000	0.7346571020
2.2500000000	0.6217663432
2.2550000000	0.5188364354
2.2600000000	0.4159046147
2.2650000000	0.3410241693
2.2700000000	0.3003489643
2.2750000000	0.3105883074
2.2800000000	0.3696654407
2.2850000000	0.4448934755
2.2900000000	0.4999587477
2.2950000000	0.5243642283
2.3000000000	0.5271553657
2.3050000000	0.5187336922
2.3100000000	0.5076402625
2.3150000000	0.4978107719
2.3200000000	0.4908012324
2.3250000000	0.4874661935
2.3300000000	0.4884970741
2.3350000000	0.4944666204
2.3400000000	0.5058641074
2.3450000000	0.5231845904
2.3500000000	0.5469525424
2.3550000000	0.5779542235
2.3600000000	0.6156805835
2.3650000000	0.6603663334
2.3700000000	0.7118871988
2.3750000000	0.7708024609
2.3800000000	0.8392388200
2.3850000000	0.9197197951
2.3900000000	1.0128034053
2.3950000000	1.1143448078
2.4000000000	1.2136886032
2.4050000000	1.2993010858
2.4100000000	1.3467541620
2.4150000000	1.3512903492
2.4200000000	1.3245109942
2.4250000000	1.2861994457
2.4300000000	1.2539138714
2.4350000000	1.2382532074
2.4400000000	1.2434469609
2.4450000000	1.2701785839
2.4500000000	1.3185335913
2.4550000000	1.3895894912
2.4600000000	1.4879016164
2.4650000000	1.6181397118
2.4700000000	1.7855038765
2.4750000000	1.9932419493
2.4800000000	2.2397148834
2.4850000000	2.5144063323
2.4900000000	2.7932603987
2.4950000000	3.0363576078
2.5000000000	3.1937445862
2.5050000000	3.2139782991
2.5100000000	3.0765179515
2.5150000000	2.8188835858
2.5200000000	2.5010256070
2.5250000000	2.1756120620
2.5300000000	1.8747473528
2.5350000000	1.6119206730
2.5400000000	1.3891179135
2.5450000000	1.2030334262
2.5500000000	1.0488768189
2.5550000000	0.9223439760
2.5600000000	0.8165409372
2.5650000000	0.7373601427
2.5700000000	0.6804664750
2.5750000000	0.6438309462
2.5800000000	0.6233871394
2.5850000000	0.6135735363
2.5900000000	0.6091707765
2.5950000000	0.6069288057
2.6000000000	0.6057996995
2.6050000000	0.6106301592
2.6100000000	0.6182835684
2.6150000000	0.6299317980
2.6200000000	0.6461974515
2.6250000000	0.6671188870
2.6300000000	0.6921055613
2.6350000000	0.7199041095
2.6400000000	0.7485994650
2.6450000000	0.7757631720
2.6500000000	0.7988233647
2.6550000000	0.8156713820
2.6600000000	0.8253277297
2.6650000000	0.8283677342
2.6700000000	0.8267998334
2.6750000000	0.8235598828
2.6800000000	0.8214926877
2.6850000000	0.8232561451
2.6900000000	0.8307012288
2.6950000000	0.8449654689
2.7000000000	0.8665942776
2.7050000000	0.8989700232
2.7100000000	0.9406363312
2.7150000000	0.9909195840
2.7200000000	1.0484273446
2.7250000000	1.1107959127
2.7300000000	1.1744568606
2.7350000000	1.2345992076
2.7400000000	1.2855003541
2.7450000000	1.3213499169
2.7500000000	1.3374646510
2.7550000000	1.3314850480
2.7600000000	1.3040139575
2.7650000000	1.2583989526
2.7700000000	1.1997625641
2.7750000000	1.1337802089
2.7800000000	1.0656560194
2.7850000000	0.9995531689
2.7900000000	0.9378852388
2.7950000000	0.8832933662
2.8000000000	0.8363239417
2.8050000000	0.7928214967
2.8100000000	0.7585227901
2.8150000000	0.7320775245
2.8200000000	0.7120188132
2.8250000000	0.6970005904
2.8300000000	0.6858788124
2.8350000000	0.6777045350
2.8400000000	0.6716759191
2.8450000000	0.6671121938
2.8500000000	0.6634667030
2.8550000000	0.6603765450
2.8600000000	0.6577188605
2.8650000000	0.6556289791
2.8700000000	0.6544660414
2.8750000000	0.6547239939
2.8800000000	0.6569222140
2.8850000000	0.6615068528
2.8900000000	0.6687821390
2.8950000000	0.6788689455
2.9000000000	0.6916844051
2.9050000000	0.7108537142
2.9100000000	0.7318751377
2.9150000000	0.7533451594
2.9200000000	0.7734900365
2.9250000000	0.7904043396
2.9300000000	0.8023189301
2.9350000000	0.8079110435
2.9400000000	0.8065602659
2.9450000000	0.7984670052
2.9500000000	0.7845775582
2.9550000000	0.7663429261
2.9600000000	0.7454129984
2.9650000000	0.7233505915
2.9700000000	0.7014409473
2.9750000000	0.6806084016
2.9800000000	0.6614220310
2.9850000000	0.6441571070
2.9900000000	0.6288776466
2.9950000000	0.6155166535
3.0000000000	0.6039416063
