# energy (eV)    P(omega), $W$ = 300 nm, $h$ = 300 nm, $s$ = 20 nm, $d/W = 5$, $E_{\rm e}$ = 200 keV
0.2000000000	0.3454109029
0.2050000000	0.3506752771
0.2100000000	0.3555669982
0.2150000000	0.3600985318
0.2200000000	0.3642810892
0.2250000000	0.3681239051
0.2300000000	0.3716343332
0.2350000000	0.3748175763
0.2400000000	0.3776762135
0.2450000000	0.3802098966
0.2500000000	0.3824149258
0.2550000000	0.3842833620
0.2600000000	0.3858027981
0.2650000000	0.3869547820
0.2700000000	0.3877143209
0.2750000000	0.3880478253
0.2800000000	0.3879116212
0.2850000000	0.3872491936
0.2900000000	0.3859884187
0.2950000000	0.3840372108
0.3000000000	0.3812782019
0.3050000000	0.3775617388
0.3100000000	0.3726962450
0.3150000000	0.3946657961
0.3200000000	0.4207560678
0.3250000000	0.4537782610
0.3300000000	0.4980438299
0.3350000000	0.5531263634
0.3400000000	0.6252551472
0.3450000000	0.7126612031
0.3500000000	0.8269539704
0.3550000000	0.9781042279
0.3600000000	1.1753047284
0.3650000000	1.4500786957
0.3700000000	1.8120144921
0.3750000000	2.3150713580
0.3800000000	3.0420730642
0.3850000000	4.1741261026
0.3900000000	5.9610690277
0.3950000000	8.9939953029
0.4000000000	14.7716206042
0.4050000000	27.7155972402
0.4100000000	63.0072929922
0.4150000000	202.0061287482
0.4200000000	128.7961065558
0.4250000000	-241.7409320444
0.4300000000	67.0872005563
0.4350000000	41.7502365790
0.4400000000	25.4831720641
0.4450000000	16.7335144513
0.4500000000	11.7001249819
0.4550000000	8.6046434261
0.4600000000	6.5898059312
0.4650000000	5.2175766224
0.4700000000	4.2481712086
0.4750000000	3.5473180400
0.4800000000	3.0278001467
0.4850000000	2.6368736355
0.4900000000	2.3383878297
0.4950000000	2.1080862601
0.5000000000	1.9293840837
0.5050000000	1.7901278664
0.5100000000	1.6824770928
0.5150000000	1.6006545153
0.5200000000	1.5386597386
0.5250000000	1.4937555816
0.5300000000	1.4630323822
0.5350000000	1.4443529798
0.5400000000	1.4361396462
0.5450000000	1.4370746084
0.5500000000	1.4467141488
0.5550000000	1.4643072400
0.5600000000	1.4894534003
0.5650000000	1.5219601802
0.5700000000	1.5616429428
0.5750000000	1.6087723274
0.5800000000	1.6637875661
0.5850000000	1.7269676986
0.5900000000	1.7988764933
0.5950000000	1.8802342296
0.6000000000	1.9719565856
0.6050000000	2.0753930717
0.6100000000	2.1918157488
0.6150000000	2.3229749196
0.6200000000	2.4712081526
0.6250000000	2.6387544407
0.6300000000	2.8289291456
0.6350000000	3.0458634256
0.6400000000	3.2938510310
0.6450000000	3.5790988441
0.6500000000	3.9097621552
0.6550000000	4.2943250276
0.6600000000	4.7458399000
0.6650000000	5.2810353049
0.6700000000	5.9195757333
0.6750000000	6.6914602107
0.6800000000	7.6370192130
0.6850000000	8.8090558589
0.6900000000	10.2893515459
0.6950000000	12.1922542851
0.7000000000	14.6993835368
0.7050000000	18.0883021236
0.7100000000	22.8292233366
0.7150000000	29.7590571421
0.7200000000	40.4354244429
0.7250000000	58.1502873354
0.7300000000	90.6526462572
0.7350000000	160.1687599287
0.7400000000	350.7350806785
0.7450000000	1162.6069669988
0.7500000000	3598.8163429899
0.7550000000	904.6182679579
0.7600000000	299.3422611748
0.7650000000	143.3095978135
0.7700000000	83.2748755743
0.7750000000	54.3061659085
0.7800000000	38.1858097290
0.7850000000	28.3370196276
0.7900000000	21.8743814978
0.7950000000	17.4189903839
0.8000000000	14.2173986547
0.8050000000	11.8338361182
0.8100000000	10.0169222380
0.8150000000	8.5772652259
0.8200000000	7.4414349577
0.8250000000	6.5271827813
0.8300000000	5.7785317520
0.8350000000	5.1631627125
0.8400000000	4.6474572329
0.8450000000	4.2148164109
0.8500000000	3.8491568078
0.8550000000	3.5337041930
0.8600000000	3.2644254450
0.8650000000	3.0343832239
0.8700000000	2.8311809124
0.8750000000	2.6582452046
0.8800000000	2.5113882779
0.8850000000	2.3797361227
0.8900000000	2.2738624969
0.8950000000	2.1775572962
0.9000000000	2.1009360632
0.9050000000	2.0476152898
0.9100000000	1.9987145384
0.9150000000	1.9683616285
0.9200000000	1.9630584391
0.9250000000	1.9587532024
0.9300000000	1.9286528938
0.9350000000	1.8420220140
0.9400000000	1.3662223141
0.9450000000	-0.7902186084
0.9500000000	-12.1577015870
0.9550000000	-69.7690022742
0.9600000000	16.4550248107
0.9650000000	28.8807425165
0.9700000000	12.8034457477
0.9750000000	6.7206509436
0.9800000000	4.2126379376
0.9850000000	3.0399582738
0.9900000000	2.3646182348
0.9950000000	1.9552346092
1.0000000000	1.6938778229
1.0050000000	1.5281045142
1.0100000000	1.3997200477
1.0150000000	1.3059670702
1.0200000000	1.2427786058
1.0250000000	1.1898641454
1.0300000000	1.1497376492
1.0350000000	1.1194704146
1.0400000000	1.1002924777
1.0450000000	1.0845019493
1.0500000000	1.0742658163
1.0550000000	1.0689600838
1.0600000000	1.0699623302
1.0650000000	1.0734329068
1.0700000000	1.0809480649
1.0750000000	1.0925407260
1.0800000000	1.1092521245
1.0850000000	1.1304438838
1.0900000000	1.1614959287
1.0950000000	1.1983232929
1.1000000000	1.2421216936
1.1050000000	1.2926888481
1.1100000000	1.3515738787
1.1150000000	1.4201147244
1.1200000000	1.4998472788
1.1250000000	1.5929981312
1.1300000000	1.7022926749
1.1350000000	1.8312107324
1.1400000000	1.9836584992
1.1450000000	2.1670046217
1.1500000000	2.3890663816
1.1550000000	2.6612330062
1.1600000000	2.9995757588
1.1650000000	3.4248892389
1.1700000000	3.9763941547
1.1750000000	4.7059213223
1.1800000000	5.6992387306
1.1850000000	7.0973828521
1.1900000000	9.1658454948
1.1950000000	12.4150678598
1.2000000000	17.9284442866
1.2050000000	28.3493583645
1.2100000000	51.2732829173
1.2150000000	113.2192720513
1.2200000000	277.9032286873
1.2250000000	249.4330760503
1.2300000000	99.2634948591
1.2350000000	46.3720488269
1.2400000000	26.3346961019
1.2450000000	17.1239479235
1.2500000000	12.2518531951
1.2550000000	9.4249263705
1.2600000000	7.6873039273
1.2650000000	6.5787743969
1.2700000000	5.8914558485
1.2750000000	5.4902279601
1.2800000000	5.3085674921
1.2850000000	5.3145570668
1.2900000000	5.4998513637
1.2950000000	5.8725406124
1.3000000000	6.4828542926
1.3050000000	7.3943258943
1.3100000000	8.7295723806
1.3150000000	10.7018227411
1.3200000000	13.6960549655
1.3250000000	18.4448394366
1.3300000000	26.5580051644
1.3350000000	41.7626382652
1.3400000000	74.2620451321
1.3450000000	154.9230018429
1.3500000000	328.4210462386
1.3550000000	306.0849196033
1.3600000000	141.0964289769
1.3650000000	69.3185423074
1.3700000000	39.7570088437
1.3750000000	25.5731087160
1.3800000000	17.8397872811
1.3850000000	13.1807677590
1.3900000000	10.1765840516
1.3950000000	8.1258219887
1.4000000000	6.6648875030
1.4050000000	5.5890538918
1.4100000000	4.7731732609
1.4150000000	4.1405406959
1.4200000000	3.6339632110
1.4250000000	3.2272181525
1.4300000000	2.8959009512
1.4350000000	2.5560430738
1.4400000000	1.4961664973
1.4450000000	-1.2426085561
1.4500000000	-6.2612310841
1.4550000000	-2.2793454746
1.4600000000	5.6934714645
1.4650000000	3.4702784432
1.4700000000	-1.4571580262
1.4750000000	-8.9800167035
1.4800000000	-3.9121695680
1.4850000000	7.0601210715
1.4900000000	5.7116171774
1.4950000000	3.7222093927
1.5000000000	2.6332476910
1.5050000000	2.0416225570
1.5100000000	1.7024418087
1.5150000000	1.4936579307
1.5200000000	1.3563197758
1.5250000000	1.2689140676
1.5300000000	1.1994696809
1.5350000000	1.1486546430
1.5400000000	1.1114570351
1.5450000000	1.0848147514
1.5500000000	1.0667278760
1.5550000000	1.0561836882
1.5600000000	1.0549028599
1.5650000000	1.0589758502
1.5700000000	1.0720020000
1.5750000000	1.0964534998
1.5800000000	1.1373387820
1.5850000000	1.2045159230
1.5900000000	1.3187716862
1.5950000000	1.5257746236
1.6000000000	1.9206649094
1.6050000000	2.5598166193
1.6100000000	2.8427285647
1.6150000000	2.2925436744
1.6200000000	1.7952636590
1.6250000000	1.5484475582
1.6300000000	1.4402566750
1.6350000000	1.4011584661
1.6400000000	1.4000190619
1.6450000000	1.4227518971
1.6500000000	1.4627056659
1.6550000000	1.5170804843
1.6600000000	1.5847899832
1.6650000000	1.6659397164
1.6700000000	1.7614425276
1.6750000000	1.8728993476
1.6800000000	2.0025916367
1.6850000000	2.1535570899
1.6900000000	2.3297067448
1.6950000000	2.5347884194
1.7000000000	2.7766928483
1.7050000000	3.0698615149
1.7100000000	3.4310477413
1.7150000000	3.9416236501
1.7200000000	4.6475192053
1.7250000000	5.5062700771
1.7300000000	6.5863933889
1.7350000000	7.7401160464
1.7400000000	8.7571189539
1.7450000000	10.0212127645
1.7500000000	11.9832565974
1.7550000000	14.9457580297
1.7600000000	19.4008480587
1.7650000000	26.2782128074
1.7700000000	37.3564839403
1.7750000000	56.0092687453
1.7800000000	87.7615114319
1.7850000000	134.5119556344
1.7900000000	166.9244871500
1.7950000000	141.9096102691
1.8000000000	94.2684240162
1.8050000000	59.4034530505
1.8100000000	39.0674492976
1.8150000000	27.1556223502
1.8200000000	19.8272904020
1.8250000000	15.0758776465
1.8300000000	11.8476245366
1.8350000000	9.5654808892
1.8400000000	7.8983201438
1.8450000000	6.6448577081
1.8500000000	5.6780664008
1.8550000000	4.9182443953
1.8600000000	4.3090310414
1.8650000000	3.8114681670
1.8700000000	3.3967865755
1.8750000000	3.0424155453
1.8800000000	2.7284911563
1.8850000000	2.4348482043
1.8900000000	2.1358435753
1.8950000000	1.7924804757
1.9000000000	1.3391451276
1.9050000000	0.5679524069
1.9100000000	-0.5521520513
1.9150000000	-1.7614561622
1.9200000000	-1.2398000639
1.9250000000	2.2452328390
1.9300000000	5.0450296484
1.9350000000	5.2779254799
1.9400000000	4.3557019656
1.9450000000	3.4227420554
1.9500000000	2.7514583166
1.9550000000	2.3007710535
1.9600000000	1.9965218555
1.9650000000	1.7951528529
1.9700000000	1.6424617624
1.9750000000	1.5303933959
1.9800000000	1.4460112837
1.9850000000	1.3801829333
1.9900000000	1.3264142005
1.9950000000	1.2794566797
2.0000000000	1.2380270858
2.0050000000	1.2171114933
2.0100000000	1.2366313717
2.0150000000	1.2831097040
2.0200000000	1.3199731879
2.0250000000	1.3455202521
2.0300000000	1.3730178605
2.0350000000	1.4081681469
2.0400000000	1.4554223059
2.0450000000	1.5177185250
2.0500000000	1.5986055739
2.0550000000	1.7016816319
2.0600000000	1.8271167403
2.0650000000	1.9629260746
2.0700000000	2.0793844953
2.0750000000	2.1528725328
2.0800000000	2.1994743423
2.0850000000	2.2551431974
2.0900000000	2.3421185869
2.0950000000	2.4671708070
2.1000000000	2.6338884666
2.1050000000	2.8384000352
2.1100000000	3.0949776270
2.1150000000	3.4135141224
2.1200000000	3.8087121531
2.1250000000	4.3017187162
2.1300000000	4.9226954647
2.1350000000	5.7148984872
2.1400000000	6.7408777159
2.1450000000	8.0920347692
2.1500000000	9.9014388983
2.1550000000	12.3571656280
2.1600000000	15.6996649739
2.1650000000	20.1322643578
2.1700000000	25.5779020667
2.1750000000	31.0127041793
2.1800000000	34.4493826117
2.1850000000	34.8376690563
2.1900000000	33.6574142626
2.1950000000	32.8753261413
2.2000000000	32.6512441995
2.2050000000	31.0790934727
2.2100000000	27.3603116892
2.2150000000	22.6356572663
2.2200000000	18.3121034412
2.2250000000	14.8504446517
2.2300000000	12.1293820882
2.2350000000	9.9717911020
2.2400000000	8.2619791509
2.2450000000	6.9280069246
2.2500000000	5.8874746526
2.2550000000	5.0660152559
2.2600000000	4.4017515937
2.2650000000	3.8433481653
2.2700000000	3.3478478785
2.2750000000	2.8853413962
2.2800000000	2.4583742124
2.2850000000	2.1206101349
2.2900000000	1.9511759635
2.2950000000	1.9770545293
2.3000000000	2.1196004389
2.3050000000	2.2586708336
2.3100000000	2.3189652658
2.3150000000	2.3043588831
2.3200000000	2.2478414370
2.3250000000	2.1830819715
2.3300000000	2.1282830324
2.3350000000	2.0897785963
2.3400000000	2.0663297414
2.3450000000	2.0513023963
2.3500000000	2.0358277527
2.3550000000	2.0142321521
2.3600000000	1.9880902723
2.3650000000	1.9642804268
2.3700000000	1.9496146332
2.3750000000	1.9473998849
2.3800000000	1.9570191593
2.3850000000	1.9749710199
2.3900000000	1.9973652305
2.3950000000	2.0208854177
2.4000000000	2.0475191623
2.4050000000	2.0846428397
2.4100000000	2.1360300059
2.4150000000	2.2064490452
2.4200000000	2.2991379780
2.4250000000	2.4170299232
2.4300000000	2.5634064096
2.4350000000	2.7423779353
2.4400000000	2.9592331787
2.4450000000	3.2207971660
2.4500000000	3.5357579267
2.4550000000	3.9151078192
2.4600000000	4.3724246976
2.4650000000	4.9241348501
2.4700000000	5.5892803974
2.4750000000	6.3872388679
2.4800000000	7.3390037797
2.4850000000	8.4540437499
2.4900000000	9.7231823730
2.4950000000	11.1005442089
2.5000000000	12.4840932521
2.5050000000	13.7627825159
2.5100000000	14.5885352676
2.5150000000	14.7686695547
2.5200000000	14.2784620719
2.5250000000	13.2713420760
2.5300000000	11.9804635031
2.5350000000	10.6101303634
2.5400000000	9.2895976120
2.5450000000	8.0826441453
2.5500000000	7.0130424684
2.5550000000	6.0837810238
2.5600000000	5.2813650325
2.5650000000	4.6040725480
2.5700000000	4.0384097145
2.5750000000	3.5763969322
2.5800000000	3.2117962819
2.5850000000	2.9368687787
2.5900000000	2.7376340775
2.5950000000	2.5938501207
2.6000000000	2.4843453064
2.6050000000	2.4062500197
2.6100000000	2.3361035576
2.6150000000	2.2730448989
2.6200000000	2.2186511403
2.6250000000	2.1744700374
2.6300000000	2.1414331525
2.6350000000	2.1199438535
2.6400000000	2.1102121325
2.6450000000	2.1124791122
2.6500000000	2.1272625281
2.6550000000	2.1546491969
2.6600000000	2.1953631069
2.6650000000	2.2500416105
2.6700000000	2.3194356191
2.6750000000	2.4044367566
2.6800000000	2.5060389963
2.6850000000	2.6253302409
2.6900000000	2.7633653823
2.6950000000	2.9211046117
2.7000000000	3.0992201295
2.7050000000	3.3191832184
2.7100000000	3.5658202537
2.7150000000	3.8374810780
2.7200000000	4.1305491402
2.7250000000	4.4389634942
2.7300000000	4.7537671189
2.7350000000	5.0627164746
2.7400000000	5.3500741905
2.7450000000	5.5992092158
2.7500000000	5.7859820255
2.7550000000	5.8938125518
2.7600000000	5.9102357271
2.7650000000	5.8320421539
2.7700000000	5.6663757477
2.7750000000	5.4293100376
2.7800000000	5.1421439032
2.7850000000	4.8275357137
2.7900000000	4.5057369744
2.7950000000	4.1929482688
2.8000000000	3.9006008809
2.8050000000	3.6033277196
2.8100000000	3.3466928385
2.8150000000	3.1301085077
2.8200000000	2.9501679380
2.8250000000	2.8023443851
2.8300000000	2.6820973031
2.8350000000	2.5855566187
2.8400000000	2.5086086366
2.8450000000	2.4515309434
2.8500000000	2.4113082605
2.8550000000	2.3868189181
2.8600000000	2.3772702864
2.8650000000	2.3820371979
2.8700000000	2.4005671659
2.8750000000	2.4322945554
2.8800000000	2.4765677021
2.8850000000	2.5325770865
2.8900000000	2.5993233347
2.8950000000	2.6755851635
2.9000000000	2.7599087813
2.9050000000	2.8708189248
2.9100000000	2.9847829770
2.9150000000	3.0973954177
2.9200000000	3.2033508532
2.9250000000	3.2964978118
2.9300000000	3.3710537361
2.9350000000	3.4193304776
2.9400000000	3.4374726475
2.9450000000	3.4235043195
2.9500000000	3.3785782722
2.9550000000	3.3068019686
2.9600000000	3.2144337348
2.9650000000	3.1087347883
2.9700000000	2.9968323632
2.9750000000	2.8849093724
2.9800000000	2.7777629564
2.9850000000	2.6787383568
2.9900000000	2.5898962460
2.9950000000	2.5122855401
3.0000000000	2.4462459042
