# energy (eV)    P(omega), $W$ = 400 nm, $h$ = 300 nm, $s$ = 20 nm, $d/W = 5$, $E_{\rm e}$ = 200 keV
0.2000000000	0.0415977887
0.2050000000	0.0419761918
0.2100000000	0.0422426220
0.2150000000	0.0423925921
0.2200000000	0.0424198280
0.2250000000	0.0423158058
0.2300000000	0.0420693105
0.2350000000	0.0416657393
0.2400000000	0.0410863129
0.2450000000	0.0403068284
0.2500000000	0.0392963426
0.2550000000	0.0380150407
0.2600000000	0.0364116156
0.2650000000	0.0380916959
0.2700000000	0.0423593572
0.2750000000	0.0484662606
0.2800000000	0.0569749271
0.2850000000	0.0695189513
0.2900000000	0.0850619387
0.2950000000	0.1073441633
0.3000000000	0.1372979117
0.3050000000	0.1832099259
0.3100000000	0.2471640831
0.3150000000	0.3709125846
0.3200000000	0.5641840928
0.3250000000	0.6965069409
0.3300000000	0.8795523973
0.3350000000	1.1390459593
0.3400000000	1.5463988417
0.3450000000	2.2452863541
0.3500000000	3.6389299322
0.3550000000	6.8650450987
0.3600000000	16.8717258238
0.3650000000	0.0762022429
0.3700000000	7.8194880880
0.3750000000	10.2823416726
0.3800000000	4.7912278890
0.3850000000	2.6989486816
0.3900000000	1.7311411194
0.3950000000	1.2199021974
0.4000000000	0.9238950579
0.4050000000	0.7309190088
0.4100000000	0.6052873443
0.4150000000	0.5224263977
0.4200000000	0.4700567898
0.4250000000	0.4289271445
0.4300000000	0.3803262860
0.4350000000	0.3418615699
0.4400000000	0.3114402857
0.4450000000	0.2872517918
0.4500000000	0.2681551314
0.4550000000	0.2530120458
0.4600000000	0.2411992341
0.4650000000	0.2320574449
0.4700000000	0.2251502448
0.4750000000	0.2201722775
0.4800000000	0.2168570746
0.4850000000	0.2149709858
0.4900000000	0.2143758390
0.4950000000	0.2149653295
0.5000000000	0.2166486298
0.5050000000	0.2193852555
0.5100000000	0.2231420422
0.5150000000	0.2278992831
0.5200000000	0.2336668395
0.5250000000	0.2404528011
0.5300000000	0.2483567910
0.5350000000	0.2574231005
0.5400000000	0.2677314816
0.5450000000	0.2793865192
0.5500000000	0.2925361862
0.5550000000	0.3073423380
0.5600000000	0.3240019828
0.5650000000	0.3427684475
0.5700000000	0.3639914429
0.5750000000	0.3879301608
0.5800000000	0.4150695761
0.5850000000	0.4460723209
0.5900000000	0.4813853557
0.5950000000	0.5219491869
0.6000000000	0.5690063473
0.6050000000	0.6234880977
0.6100000000	0.6875291986
0.6150000000	0.7628999336
0.6200000000	0.8526392061
0.6250000000	0.9611068080
0.6300000000	1.0927490119
0.6350000000	1.2559206917
0.6400000000	1.4598395394
0.6450000000	1.7212323176
0.6500000000	2.0614657532
0.6550000000	2.5167329620
0.6600000000	3.1481452789
0.6650000000	4.0522533450
0.6700000000	5.4212883536
0.6750000000	7.6224894876
0.6800000000	11.5135262249
0.6850000000	19.3211412274
0.6900000000	38.7226418235
0.6950000000	108.7001985875
0.7000000000	527.2049651329
0.7050000000	256.3136197496
0.7100000000	65.8416105294
0.7150000000	27.9995709479
0.7200000000	15.2909314143
0.7250000000	9.6054439013
0.7300000000	6.5880114137
0.7350000000	4.8042569857
0.7400000000	3.6620054621
0.7450000000	2.8866902648
0.7500000000	2.3374715406
0.7550000000	1.9339765309
0.7600000000	1.6298532926
0.7650000000	1.3940100734
0.7700000000	1.2078360140
0.7750000000	1.0583730839
0.7800000000	0.9369144622
0.7850000000	0.8369057171
0.7900000000	0.7531216118
0.7950000000	0.6831464903
0.8000000000	0.6236487696
0.8050000000	0.5726744679
0.8100000000	0.5292800440
0.8150000000	0.4912466518
0.8200000000	0.4581345176
0.8250000000	0.4303476374
0.8300000000	0.4060249107
0.8350000000	0.3848798251
0.8400000000	0.3680408787
0.8450000000	0.3533479883
0.8500000000	0.3408899630
0.8550000000	0.3330152783
0.8600000000	0.3267074908
0.8650000000	0.3221910197
0.8700000000	0.3237629687
0.8750000000	0.3243133630
0.8800000000	0.3225675206
0.8850000000	0.3085420808
0.8900000000	0.2394398981
0.8950000000	-0.1068658093
0.9000000000	-1.9638501724
0.9050000000	-12.9039618025
0.9100000000	2.4571686947
0.9150000000	5.8205721044
0.9200000000	2.4162314325
0.9250000000	1.2569929773
0.9300000000	0.7672979088
0.9350000000	0.5333375425
0.9400000000	0.4071257188
0.9450000000	0.3371670081
0.9500000000	0.2874848728
0.9550000000	0.2542278851
0.9600000000	0.2336594172
0.9650000000	0.2166877084
0.9700000000	0.2045766303
0.9750000000	0.1963216610
0.9800000000	0.1912942724
0.9850000000	0.1903686797
0.9900000000	0.1921939954
0.9950000000	0.1995808015
1.0000000000	0.2172474903
1.0050000000	0.2584994956
1.0100000000	0.3666131954
1.0150000000	0.7371583338
1.0200000000	1.4155329066
1.0250000000	0.6435981747
1.0300000000	0.3297044988
1.0350000000	0.2361497306
1.0400000000	0.1993601639
1.0450000000	0.1821014674
1.0500000000	0.1734505909
1.0550000000	0.1689122072
1.0600000000	0.1668753728
1.0650000000	0.1664945033
1.0700000000	0.1673007920
1.0750000000	0.1691292356
1.0800000000	0.1716523186
1.0850000000	0.1750858196
1.0900000000	0.1800471292
1.0950000000	0.1858310341
1.1000000000	0.1924942229
1.1050000000	0.2000487149
1.1100000000	0.2086140600
1.1150000000	0.2183042340
1.1200000000	0.2292544971
1.1250000000	0.2415767799
1.1300000000	0.2555903173
1.1350000000	0.2715102780
1.1400000000	0.2896589069
1.1450000000	0.3104459590
1.1500000000	0.3341902907
1.1550000000	0.3618847506
1.1600000000	0.3941571487
1.1650000000	0.4318298013
1.1700000000	0.4750733496
1.1750000000	0.5189307987
1.1800000000	0.5604383240
1.1850000000	0.7789266986
1.1900000000	0.9666464703
1.1950000000	1.3251181593
1.2000000000	1.8047136275
1.2050000000	1.5830505289
1.2100000000	1.5150132868
1.2150000000	1.6866479587
1.2200000000	2.0172488187
1.2250000000	2.5249458812
1.2300000000	3.2969349461
1.2350000000	4.5181409262
1.2400000000	6.5752629668
1.2450000000	10.4488108370
1.2500000000	18.8378251971
1.2550000000	40.7779971265
1.2600000000	98.4958987555
1.2650000000	99.7722953610
1.2700000000	41.5032579409
1.2750000000	19.1579516661
1.2800000000	10.6100216134
1.2850000000	6.6722164463
1.2900000000	4.5731978703
1.2950000000	3.3330167241
1.3000000000	2.5430760587
1.3050000000	2.0112115086
1.3100000000	1.6361613349
1.3150000000	1.3651690535
1.3200000000	1.1642822428
1.3250000000	1.0131077693
1.3300000000	0.8992589853
1.3350000000	0.8151353378
1.3400000000	0.7567908746
1.3450000000	0.7231436502
1.3500000000	0.7191024440
1.3550000000	0.7558424455
1.3600000000	0.8617981060
1.3650000000	1.1093271521
1.3700000000	1.7004584020
1.3750000000	3.1712392973
1.3800000000	5.1800072447
1.3850000000	3.6186265428
1.3900000000	1.8440717081
1.3950000000	1.0699894306
1.4000000000	0.7007338391
1.4050000000	0.4737905645
1.4100000000	0.2683900387
1.4150000000	-0.0380227603
1.4200000000	-0.7240291255
1.4250000000	-2.5417603563
1.4300000000	-3.4175668912
1.4350000000	1.5657336831
1.4400000000	2.0028129767
1.4450000000	1.2007744243
1.4500000000	0.7471711916
1.4550000000	0.5150582199
1.4600000000	0.3803400891
1.4650000000	0.2738706698
1.4700000000	0.1599851555
1.4750000000	0.1880104553
1.4800000000	0.2756358176
1.4850000000	0.2502863324
1.4900000000	0.2216223489
1.4950000000	0.2030822671
1.5000000000	0.1909029255
1.5050000000	0.1828498963
1.5100000000	0.1773714786
1.5150000000	0.1743821144
1.5200000000	0.1721783585
1.5250000000	0.1713829602
1.5300000000	0.1720690460
1.5350000000	0.1745508026
1.5400000000	0.1796121641
1.5450000000	0.1889941710
1.5500000000	0.2066100454
1.5550000000	0.2402599355
1.5600000000	0.2907704799
1.5650000000	0.2988657475
1.5700000000	0.2532864880
1.5750000000	0.2213032966
1.5800000000	0.2075073433
1.5850000000	0.2031679605
1.5900000000	0.2037330643
1.5950000000	0.2072258166
1.6000000000	0.2127849870
1.6050000000	0.2201141312
1.6100000000	0.2289918734
1.6150000000	0.2393852877
1.6200000000	0.2514599582
1.6250000000	0.2653587303
1.6300000000	0.2813163474
1.6350000000	0.2996354349
1.6400000000	0.3207029634
1.6450000000	0.3450131671
1.6500000000	0.3731864260
1.6550000000	0.4060089334
1.6600000000	0.4444992827
1.6650000000	0.4899722602
1.6700000000	0.5437062548
1.6750000000	0.6088384247
1.6800000000	0.6881417786
1.6850000000	0.7859787626
1.6900000000	0.9085432306
1.6950000000	1.0649244633
1.7000000000	1.2688053232
1.7050000000	1.5500647098
1.7100000000	1.9424720818
1.7150000000	2.5128454429
1.7200000000	3.3821154062
1.7250000000	4.7611801185
1.7300000000	6.8804248081
1.7350000000	9.6000828343
1.7400000000	13.0381164398
1.7450000000	19.0713021760
1.7500000000	26.9029577169
1.7550000000	27.3357272000
1.7600000000	19.1777632215
1.7650000000	11.9459636249
1.7700000000	7.6578359524
1.7750000000	5.2194472985
1.7800000000	3.7784630246
1.7850000000	2.8920786164
1.7900000000	2.3423851268
1.7950000000	2.0278562940
1.8000000000	1.9009025908
1.8050000000	1.8607072439
1.8100000000	1.6554934013
1.8150000000	1.2827706582
1.8200000000	0.9849914299
1.8250000000	0.8314581983
1.8300000000	0.7238714625
1.8350000000	0.6282562259
1.8400000000	0.5502889856
1.8450000000	0.4884170430
1.8500000000	0.4385547348
1.8550000000	0.3973628203
1.8600000000	0.3594718950
1.8650000000	0.3274386334
1.8700000000	0.2950641499
1.8750000000	0.2483936248
1.8800000000	0.1420086586
1.8850000000	-0.0911556095
1.8900000000	-0.4047762958
1.8950000000	-0.4585880489
1.9000000000	0.0490744870
1.9050000000	0.5223968262
1.9100000000	0.5776271897
1.9150000000	0.4879875678
1.9200000000	0.4001323796
1.9250000000	0.3377897935
1.9300000000	0.3000344719
1.9350000000	0.2712093562
1.9400000000	0.2520332590
1.9450000000	0.2393386826
1.9500000000	0.2304652658
1.9550000000	0.2230417850
1.9600000000	0.2166335160
1.9650000000	0.2120836157
1.9700000000	0.2096541333
1.9750000000	0.2091833694
1.9800000000	0.2105403511
1.9850000000	0.2137645291
1.9900000000	0.2190675786
1.9950000000	0.2267142593
2.0000000000	0.2365057354
2.0050000000	0.2476137600
2.0100000000	0.2555823156
2.0150000000	0.2608978039
2.0200000000	0.2673073595
2.0250000000	0.2772002478
2.0300000000	0.2912796385
2.0350000000	0.3098976149
2.0400000000	0.3336934684
2.0450000000	0.3637763820
2.0500000000	0.4017393098
2.0550000000	0.4493524523
2.0600000000	0.5074743153
2.0650000000	0.5751910929
2.0700000000	0.6535199955
2.0750000000	0.7511988603
2.0800000000	0.8826537527
2.0850000000	1.0619501910
2.0900000000	1.2972682552
2.0950000000	1.5717014195
2.1000000000	1.8162983077
2.1050000000	1.9348217404
2.1100000000	1.8785384649
2.1150000000	1.7490213307
2.1200000000	1.6574784702
2.1250000000	1.6535759314
2.1300000000	1.7520488273
2.1350000000	1.9645762677
2.1400000000	2.3145507690
2.1450000000	2.8433570842
2.1500000000	3.6089473798
2.1550000000	4.6548527204
2.1600000000	5.8967280053
2.1650000000	6.9405029378
2.1700000000	7.1871330395
2.1750000000	6.4336474015
2.1800000000	5.1940541117
2.1850000000	4.0074580420
2.1900000000	3.0797158528
2.1950000000	2.4094504372
2.2000000000	1.9392047551
2.2050000000	1.6147755220
2.2100000000	1.3895564129
2.2150000000	1.2168110380
2.2200000000	1.0620186028
2.2250000000	0.9147843514
2.2300000000	0.7814731487
2.2350000000	0.6670068645
2.2400000000	0.5700580371
2.2450000000	0.4863465443
2.2500000000	0.4116119917
2.2550000000	0.3434715884
2.2600000000	0.2753298504
2.2650000000	0.2257581190
2.2700000000	0.1988303478
2.2750000000	0.2056083010
2.2800000000	0.2447172117
2.2850000000	0.2945181300
2.2900000000	0.3309711250
2.2950000000	0.3471270486
2.3000000000	0.3489740521
2.3050000000	0.3433980478
2.3100000000	0.3360534891
2.3150000000	0.3295460301
2.3200000000	0.3249058235
2.3250000000	0.3226984608
2.3300000000	0.3233814569
2.3350000000	0.3273338120
2.3400000000	0.3348793490
2.3450000000	0.3463457705
2.3500000000	0.3620802814
2.3550000000	0.3826034024
2.3600000000	0.4075781619
2.3650000000	0.4371599733
2.3700000000	0.4712665993
2.3750000000	0.5102683048
2.3800000000	0.5555729526
2.3850000000	0.6088510787
2.3900000000	0.6704720650
2.3950000000	0.7376920377
2.4000000000	0.8034571809
2.4050000000	0.8601322611
2.4100000000	0.8915460548
2.4150000000	0.8945491481
2.4200000000	0.8768216056
2.4250000000	0.8514598961
2.4300000000	0.8300874444
2.4350000000	0.8197207340
2.4400000000	0.8231597533
2.4450000000	0.8408570457
2.4500000000	0.8728693279
2.4550000000	0.9199099544
2.4600000000	0.9849945478
2.4650000000	1.0712144422
2.4700000000	1.1820120770
2.4750000000	1.3195374882
2.4800000000	1.4827055870
2.4850000000	1.6645544493
2.4900000000	1.8491588701
2.4950000000	2.0100918404
2.5000000000	2.1142837947
2.5050000000	2.1276790112
2.5100000000	2.0366792945
2.5150000000	1.8661232393
2.5200000000	1.6556985518
2.5250000000	1.4402719449
2.5300000000	1.2410968308
2.5350000000	1.0671031813
2.5400000000	0.9196056733
2.5450000000	0.7964159555
2.5500000000	0.6943627369
2.5550000000	0.6105966542
2.5600000000	0.5405538424
2.5650000000	0.4881351556
2.5700000000	0.4504707064
2.5750000000	0.4262172925
2.5800000000	0.4126829203
2.5850000000	0.4061858277
2.5900000000	0.4032707700
2.5950000000	0.4017861950
2.6000000000	0.4010383720
2.6050000000	0.4042358109
2.6100000000	0.4093020385
2.6150000000	0.4170128037
2.6200000000	0.4277802523
2.6250000000	0.4416297735
2.6300000000	0.4581704418
2.6350000000	0.4765725625
2.6400000000	0.4955684166
2.6450000000	0.5135504302
2.6500000000	0.5288160938
2.6550000000	0.5399695202
2.6600000000	0.5463623020
2.6650000000	0.5483752842
2.6700000000	0.5473380080
2.6750000000	0.5451939509
2.6800000000	0.5438263220
2.6850000000	0.5449946112
2.6900000000	0.5499241391
2.6950000000	0.5593679431
2.7000000000	0.5736870874
2.7050000000	0.5951208032
2.7100000000	0.6227048869
2.7150000000	0.6559934059
2.7200000000	0.6940645632
2.7250000000	0.7353535680
2.7300000000	0.7774980895
2.7350000000	0.8173132164
2.7400000000	0.8510105117
2.7450000000	0.8747434437
2.7500000000	0.8854116461
2.7550000000	0.8814531049
2.7600000000	0.8632668997
2.7650000000	0.8330691682
2.7700000000	0.7942510833
2.7750000000	0.7505698465
2.7800000000	0.7054706360
2.7850000000	0.6617095393
2.7900000000	0.6208843774
2.7950000000	0.5847436177
2.8000000000	0.5536489884
2.8050000000	0.5248494794
2.8100000000	0.5021429579
2.8150000000	0.4846355294
2.8200000000	0.4713561127
2.8250000000	0.4614136111
2.8300000000	0.4540506635
2.8350000000	0.4486390633
2.8400000000	0.4446479861
2.8450000000	0.4416267545
2.8500000000	0.4392134744
2.8550000000	0.4371678992
2.8600000000	0.4354086884
2.8650000000	0.4340254216
2.8700000000	0.4332558394
2.8750000000	0.4334269257
2.8800000000	0.4348824965
2.8850000000	0.4379178976
2.8900000000	0.4427345191
2.8950000000	0.4494123754
2.9000000000	0.4578965998
2.9050000000	0.4705871391
2.9100000000	0.4845037484
2.9150000000	0.4987172841
2.9200000000	0.5120535097
2.9250000000	0.5232510104
2.9300000000	0.5311385980
2.9350000000	0.5348405912
2.9400000000	0.5339462735
2.9450000000	0.5285883236
2.9500000000	0.5193932086
2.9550000000	0.5073215166
2.9600000000	0.4934655036
2.9650000000	0.4788597812
2.9700000000	0.4643552023
2.9750000000	0.4505636952
2.9800000000	0.4378619995
2.9850000000	0.4264323507
2.9900000000	0.4163171313
2.9950000000	0.4074719886
3.0000000000	0.3998091896
