# energy (eV)    P(omega), $W$ = 300 nm, $h$ = 300 nm, $s$ = 20 nm, $d/W = 5$, $E_{\rm e}$ = 200 keV
0.2000000000	0.0636491547
0.2050000000	0.0646032652
0.2100000000	0.0654957114
0.2150000000	0.0663284994
0.2200000000	0.0671033287
0.2250000000	0.0678216483
0.2300000000	0.0684845583
0.2350000000	0.0690927883
0.2400000000	0.0696466016
0.2450000000	0.0701457777
0.2500000000	0.0705894855
0.2550000000	0.0709761530
0.2600000000	0.0713034294
0.2650000000	0.0715679008
0.2700000000	0.0717649497
0.2750000000	0.0718884578
0.2800000000	0.0719304863
0.2850000000	0.0718808339
0.2900000000	0.0717264301
0.2950000000	0.0714506978
0.3000000000	0.0710324574
0.3050000000	0.0704447231
0.3100000000	0.0696529447
0.3150000000	0.0736077442
0.3200000000	0.0783045516
0.3250000000	0.0842447870
0.3300000000	0.0921995752
0.3350000000	0.1021013771
0.3400000000	0.1150679044
0.3450000000	0.1307957678
0.3500000000	0.1513706747
0.3550000000	0.1785952662
0.3600000000	0.2141429633
0.3650000000	0.2637007090
0.3700000000	0.3290479972
0.3750000000	0.4199503514
0.3800000000	0.5514235790
0.3850000000	0.7562874915
0.3900000000	1.0799349986
0.3950000000	1.6297024013
0.4000000000	2.6777792656
0.4050000000	5.0276008514
0.4100000000	11.4395621135
0.4150000000	36.7138902497
0.4200000000	23.3919289538
0.4250000000	-44.0345657683
0.4300000000	12.2457411634
0.4350000000	7.6314206058
0.4400000000	4.6653431675
0.4450000000	3.0686906183
0.4500000000	2.1495132740
0.4550000000	1.5838436657
0.4600000000	1.2154182038
0.4650000000	0.9643519855
0.4700000000	0.7868992639
0.4750000000	0.6585594401
0.4800000000	0.5634049463
0.4850000000	0.4918032613
0.4900000000	0.4371479166
0.4950000000	0.3950039181
0.5000000000	0.3623398173
0.5050000000	0.3369313907
0.5100000000	0.3173464397
0.5150000000	0.3025306513
0.5200000000	0.2913817842
0.5250000000	0.2834033706
0.5300000000	0.2780623760
0.5350000000	0.2749690504
0.5400000000	0.2738360659
0.5450000000	0.2744233595
0.5500000000	0.2766551662
0.5550000000	0.2803962084
0.5600000000	0.2855774790
0.5650000000	0.2921680559
0.5700000000	0.3001398373
0.5750000000	0.3095485718
0.5800000000	0.3204848500
0.5850000000	0.3330078761
0.5900000000	0.3472321577
0.5950000000	0.3633017086
0.6000000000	0.3813999872
0.6050000000	0.4017927464
0.6100000000	0.4247336533
0.6150000000	0.4505691729
0.6200000000	0.4797614447
0.6250000000	0.5127535939
0.6300000000	0.5502005311
0.6350000000	0.5929185103
0.6400000000	0.6417569047
0.6450000000	0.6979416356
0.6500000000	0.7630846121
0.6550000000	0.8388638732
0.6600000000	0.9278582625
0.6650000000	1.0333770655
0.6700000000	1.1593106047
0.6750000000	1.3115916720
0.6800000000	1.4981980197
0.6850000000	1.7295812629
0.6900000000	2.0219287078
0.6950000000	2.3978801976
0.7000000000	2.8933985977
0.7050000000	3.5634629229
0.7100000000	4.5012286248
0.7150000000	5.8725241301
0.7200000000	7.9860740505
0.7250000000	11.4944804788
0.7300000000	17.9342977536
0.7350000000	31.7138632623
0.7400000000	69.5053330042
0.7450000000	230.5899193149
0.7500000000	714.3911065388
0.7550000000	179.7261527605
0.7600000000	59.5229885515
0.7650000000	28.5209009316
0.7700000000	16.5872435642
0.7750000000	10.8263525169
0.7800000000	7.6191896316
0.7850000000	5.6589448528
0.7900000000	4.3721260075
0.7950000000	3.4846228219
0.8000000000	2.8466197358
0.8050000000	2.3714429203
0.8100000000	2.0090889169
0.8150000000	1.7218401183
0.8200000000	1.4951326348
0.8250000000	1.3125879276
0.8300000000	1.1630533612
0.8350000000	1.0401070327
0.8400000000	0.9370409295
0.8450000000	0.8505544110
0.8500000000	0.7774479860
0.8550000000	0.7143594588
0.8600000000	0.6605027555
0.8650000000	0.6145002224
0.8700000000	0.5738527787
0.8750000000	0.5392769114
0.8800000000	0.5099393519
0.8850000000	0.4836365284
0.8900000000	0.4625391719
0.8950000000	0.4433470289
0.9000000000	0.4281388187
0.9050000000	0.4176694797
0.9100000000	0.4080756694
0.9150000000	0.4022621930
0.9200000000	0.4015766882
0.9250000000	0.4010717126
0.9300000000	0.3952007763
0.9350000000	0.3775517417
0.9400000000	0.2791685296
0.9450000000	-0.1680670551
0.9500000000	-2.5284240018
0.9550000000	-14.5009064286
0.9600000000	3.4217318517
0.9650000000	6.0109877850
0.9700000000	2.6661404378
0.9750000000	1.3996616594
0.9800000000	0.8771792008
0.9850000000	0.6328106924
0.9900000000	0.4920087250
0.9950000000	0.4066291310
1.0000000000	0.3521140003
1.0050000000	0.3175535711
1.0100000000	0.2907599103
1.0150000000	0.2711853799
1.0200000000	0.2580014448
1.0250000000	0.2469347448
1.0300000000	0.2385273159
1.0350000000	0.2321667844
1.0400000000	0.2281230056
1.0450000000	0.2247597092
1.0500000000	0.2225403150
1.0550000000	0.2213334757
1.0600000000	0.2214362676
1.0650000000	0.2220218621
1.0700000000	0.2234272953
1.0750000000	0.2256584559
1.0800000000	0.2289364364
1.0850000000	0.2330961513
1.0900000000	0.2392330571
1.0950000000	0.2465211986
1.1000000000	0.2552053591
1.1050000000	0.2652134995
1.1100000000	0.2768620899
1.1150000000	0.2904129454
1.1200000000	0.3061768323
1.1250000000	0.3245584773
1.1300000000	0.3461017291
1.1350000000	0.3714830329
1.1400000000	0.4014730910
1.1450000000	0.4374774031
1.1500000000	0.4810255353
1.1550000000	0.5343281625
1.1600000000	0.6005041786
1.1650000000	0.6836009810
1.1700000000	0.7911985822
1.1750000000	0.9333614849
1.1800000000	1.1267267564
1.1850000000	1.3986424067
1.1900000000	1.8006512403
1.1950000000	2.4317150095
1.2000000000	3.5020823620
1.2050000000	5.5247943875
1.2100000000	9.9743862849
1.2150000000	22.0017921258
1.2200000000	53.9973295050
1.2250000000	48.5153876864
1.2300000000	19.3541461428
1.2350000000	9.0786026324
1.2400000000	5.1864661145
1.2450000000	3.3994429655
1.2500000000	2.4567853291
1.2550000000	1.9128435740
1.2600000000	1.5819525492
1.2650000000	1.3748068888
1.2700000000	1.2514469977
1.2750000000	1.1859648523
1.2800000000	1.1660419135
1.2850000000	1.1863152417
1.2900000000	1.2463881995
1.2950000000	1.3493935969
1.3000000000	1.5080251833
1.3050000000	1.7385649253
1.3100000000	2.0713441216
1.3150000000	2.5588369691
1.3200000000	3.2953685811
1.3250000000	4.4607264905
1.3300000000	6.4486367993
1.3350000000	10.1719790786
1.3400000000	18.1298349598
1.3450000000	37.8854727356
1.3500000000	80.4042724743
1.3550000000	74.9898536303
1.3600000000	34.5817432288
1.3650000000	16.9913167331
1.3700000000	9.7443005801
1.3750000000	6.2664356453
1.3800000000	4.3701099431
1.3850000000	3.2277853793
1.3900000000	2.4915494617
1.3950000000	1.9892430379
1.4000000000	1.6319530528
1.4050000000	1.3695456123
1.4100000000	1.1716631532
1.4150000000	1.0201790947
1.4200000000	0.9023199293
1.4250000000	0.8147424711
1.4300000000	0.7593334542
1.4350000000	0.7232250040
1.4400000000	0.4983711504
1.4450000000	-0.1252794620
1.4500000000	-1.2093851817
1.4550000000	-0.4032181279
1.4600000000	1.2332633213
1.4650000000	0.7135674011
1.4700000000	-0.4591293668
1.4750000000	-2.3156301865
1.4800000000	-1.0218947141
1.4850000000	1.7490162360
1.4900000000	1.4158849707
1.4950000000	0.9185195394
1.5000000000	0.6466046190
1.5050000000	0.4994088431
1.5100000000	0.4151486677
1.5150000000	0.3634864747
1.5200000000	0.3296463875
1.5250000000	0.3081627632
1.5300000000	0.2912302166
1.5350000000	0.2789240784
1.5400000000	0.2700019333
1.5450000000	0.2637223945
1.5500000000	0.2595715589
1.5550000000	0.2573339892
1.5600000000	0.2574467654
1.5650000000	0.2590143427
1.5700000000	0.2629773894
1.5750000000	0.2700666923
1.5800000000	0.2817407100
1.5850000000	0.3008728925
1.5900000000	0.3335438152
1.5950000000	0.3931980679
1.6000000000	0.5081776397
1.6050000000	0.6969149084
1.6100000000	0.7850940731
1.6150000000	0.6263293138
1.6200000000	0.4790707840
1.6250000000	0.4042939277
1.6300000000	0.3700812015
1.6350000000	0.3561129546
1.6400000000	0.3531850787
1.6450000000	0.3570890719
1.6500000000	0.3657772955
1.6550000000	0.3784144858
1.6600000000	0.3945760245
1.6650000000	0.4142106970
1.6700000000	0.4374858471
1.6750000000	0.4647395878
1.6800000000	0.4964635120
1.6850000000	0.5333131217
1.6900000000	0.5760484604
1.6950000000	0.6251092112
1.7000000000	0.6815744459
1.7050000000	0.7468894951
1.7100000000	0.8260568084
1.7150000000	0.9592460279
1.7200000000	1.1604497887
1.7250000000	1.3777566752
1.7300000000	1.6360477863
1.7350000000	1.9155607136
1.7400000000	2.1737560820
1.7450000000	2.4992078530
1.7500000000	2.9980248654
1.7550000000	3.7461291654
1.7600000000	4.8684939997
1.7650000000	6.6000077701
1.7700000000	9.3892912460
1.7750000000	14.0872998459
1.7800000000	22.0889047196
1.7850000000	33.8803613148
1.7900000000	42.0769675550
1.7950000000	35.8013699404
1.8000000000	23.8042530778
1.8050000000	15.0157118074
1.8100000000	9.8866417651
1.8150000000	6.8810821768
1.8200000000	5.0315471039
1.8250000000	3.8322683482
1.8300000000	3.0175525669
1.8350000000	2.4418717644
1.8400000000	2.0216969461
1.8450000000	1.7062950137
1.8500000000	1.4636591532
1.8550000000	1.2737217130
1.8600000000	1.1223689623
1.8650000000	0.9998996875
1.8700000000	0.8992458692
1.8750000000	0.8149873480
1.8800000000	0.7425119783
1.8850000000	0.6773247047
1.8900000000	0.6138641870
1.8950000000	0.5437055834
1.9000000000	0.4525726417
1.9050000000	0.2938642763
1.9100000000	0.0659790722
1.9150000000	-0.1531166408
1.9200000000	0.1137211930
1.9250000000	1.1778910513
1.9300000000	2.0279740706
1.9350000000	2.0466562420
1.9400000000	1.6427259152
1.9450000000	1.2447860855
1.9500000000	0.9627554914
1.9550000000	0.7762168861
1.9600000000	0.6519169054
1.9650000000	0.5690887001
1.9700000000	0.5081247890
1.9750000000	0.4634213693
1.9800000000	0.4294908484
1.9850000000	0.4023977818
1.9900000000	0.3792120920
1.9950000000	0.3574496865
2.0000000000	0.3366647734
2.0050000000	0.3243002359
2.0100000000	0.3326058638
2.0150000000	0.3542686368
2.0200000000	0.3688937177
2.0250000000	0.3752316625
2.0300000000	0.3800483865
2.0350000000	0.3864746301
2.0400000000	0.3960294126
2.0450000000	0.4093544850
2.0500000000	0.4271007042
2.0550000000	0.4499151852
2.0600000000	0.4778354633
2.0650000000	0.5086421289
2.0700000000	0.5368093006
2.0750000000	0.5580232419
2.0800000000	0.5754970197
2.0850000000	0.5962094071
2.0900000000	0.6246019912
2.0950000000	0.6622181038
2.1000000000	0.7102461266
2.1050000000	0.7679675878
2.1100000000	0.8394037242
2.1150000000	0.9274383807
2.1200000000	1.0362166929
2.1250000000	1.1716200074
2.1300000000	1.3419802428
2.1350000000	1.5592187435
2.1400000000	1.8405523992
2.1450000000	2.2111467458
2.1500000000	2.7076500053
2.1550000000	3.3818965796
2.1600000000	4.3002069517
2.1650000000	5.5187883659
2.1700000000	7.0162265804
2.1750000000	8.5094288223
2.1800000000	9.4471987154
2.1850000000	9.5350838566
2.1900000000	9.1789986518
2.1950000000	8.9263439031
2.2000000000	8.8381046168
2.2050000000	8.4230479241
2.2100000000	7.4709407501
2.2150000000	6.2729847304
2.2200000000	5.1834007772
2.2250000000	4.3004182180
2.2300000000	3.5752835682
2.2350000000	2.9681669715
2.2400000000	2.4695521271
2.2450000000	2.0757979638
2.2500000000	1.7706660223
2.2550000000	1.5345348267
2.2600000000	1.3492286632
2.2650000000	1.1983566377
2.2700000000	1.0663962099
2.2750000000	0.9402207611
2.2800000000	0.8167674588
2.2850000000	0.7111037439
2.2900000000	0.6489136730
2.2950000000	0.6417237252
2.3000000000	0.6697331257
2.3050000000	0.6992680657
2.3100000000	0.7096860669
2.3150000000	0.7016322995
2.3200000000	0.6840295601
2.3250000000	0.6660493939
2.3300000000	0.6525610468
2.3350000000	0.6449848619
2.3400000000	0.6422498467
2.3450000000	0.6412418768
2.3500000000	0.6379502055
2.3550000000	0.6298126073
2.3600000000	0.6175379391
2.3650000000	0.6042516008
2.3700000000	0.5931304735
2.3750000000	0.5859407861
2.3800000000	0.5829671977
2.3850000000	0.5835022020
2.3900000000	0.5866417739
2.3950000000	0.5915188317
2.4000000000	0.5985647835
2.4050000000	0.6096138154
2.4100000000	0.6254432214
2.4150000000	0.6471284977
2.4200000000	0.6754120548
2.4250000000	0.7110901880
2.4300000000	0.7551407531
2.4350000000	0.8088175134
2.4400000000	0.8737337180
2.4450000000	0.9519577667
2.4500000000	1.0461110469
2.4550000000	1.1595016065
2.4600000000	1.2961957816
2.4650000000	1.4610968710
2.4700000000	1.6598455745
2.4750000000	1.8981300621
2.4800000000	2.1819510021
2.4850000000	2.5137989650
2.4900000000	2.8905609703
2.4950000000	3.2984903270
2.5000000000	3.7079172113
2.5050000000	4.0873799325
2.5100000000	4.3361949017
2.5150000000	4.3978836547
2.5200000000	4.2630008031
2.5250000000	3.9733761329
2.5300000000	3.5954835961
2.5350000000	3.1896343181
2.5400000000	2.7956347256
2.5450000000	2.4342593738
2.5500000000	2.1138752654
2.5550000000	1.8359199933
2.5600000000	1.5964289342
2.5650000000	1.3945299144
2.5700000000	1.2259357586
2.5750000000	1.0880563055
2.5800000000	0.9789117732
2.5850000000	0.8961656982
2.5900000000	0.8357328376
2.5950000000	0.7917496691
2.6000000000	0.7580865992
2.6050000000	0.7340655927
2.6100000000	0.7127687934
2.6150000000	0.6939107090
2.6200000000	0.6779341909
2.6250000000	0.6652935241
2.6300000000	0.6562801781
2.6350000000	0.6510342350
2.6400000000	0.6496291054
2.6450000000	0.6521393033
2.6500000000	0.6587179667
2.6550000000	0.6693990946
2.6600000000	0.6844170126
2.6650000000	0.7039947223
2.6700000000	0.7283946502
2.6750000000	0.7579239454
2.6800000000	0.7929110942
2.6850000000	0.8336916250
2.6900000000	0.8805624757
2.6950000000	0.9337508607
2.7000000000	0.9933397222
2.7050000000	1.0663008671
2.7100000000	1.1470858677
2.7150000000	1.2347082559
2.7200000000	1.3275106441
2.7250000000	1.4231367736
2.7300000000	1.5185373714
2.7350000000	1.6099811474
2.7400000000	1.6930301635
2.7450000000	1.7632565303
2.7500000000	1.8140842872
2.7550000000	1.8411606602
2.7600000000	1.8411984502
2.7650000000	1.8134734361
2.7700000000	1.7601934331
2.7750000000	1.6861257849
2.7800000000	1.5975628613
2.7850000000	1.5011975435
2.7900000000	1.4030260469
2.7950000000	1.3078548381
2.8000000000	1.2190849878
2.8050000000	1.1289159845
2.8100000000	1.0512953830
2.8150000000	0.9860498151
2.8200000000	0.9321603983
2.8250000000	0.8882722933
2.8300000000	0.8530188847
2.8350000000	0.8252371321
2.8400000000	0.8036894603
2.8450000000	0.7884516915
2.8500000000	0.7786143648
2.8550000000	0.7738338459
2.8600000000	0.7738566627
2.8650000000	0.7784672252
2.8700000000	0.7874558988
2.8750000000	0.8005830643
2.8800000000	0.8175555610
2.8850000000	0.8380024213
2.8900000000	0.8614813959
2.8950000000	0.8874671660
2.9000000000	0.9153832802
2.9050000000	0.9506805577
2.9100000000	0.9859555903
2.9150000000	1.0199490657
2.9200000000	1.0512157989
2.9250000000	1.0780876141
2.9300000000	1.0990111696
2.9350000000	1.1118064605
2.9400000000	1.1154354907
2.9450000000	1.1093907728
2.9500000000	1.0940864604
2.9550000000	1.0708245386
2.9600000000	1.0415409018
2.9650000000	1.0084641381
2.9700000000	0.9737749009
2.9750000000	0.9393528804
2.9800000000	0.9066517530
2.9850000000	0.8766761923
2.9900000000	0.8500456186
2.9950000000	0.8270599054
3.0000000000	0.8078062225
