# energy (eV)    P(omega), $W$ = 400 nm, $h$ = 300 nm, $s$ = 20 nm, $d/W = 5$, $E_{\rm e}$ = 200 keV
0.2000000000	0.0652186914
0.2050000000	0.0658119949
0.2100000000	0.0662298085
0.2150000000	0.0664650954
0.2200000000	0.0665080172
0.2250000000	0.0663452089
0.2300000000	0.0659590867
0.2350000000	0.0653267565
0.2400000000	0.0644187775
0.2450000000	0.0631972055
0.2500000000	0.0616135310
0.2550000000	0.0596053360
0.2600000000	0.0570921877
0.2650000000	0.0597258991
0.2700000000	0.0664157276
0.2750000000	0.0759887308
0.2800000000	0.0893267534
0.2850000000	0.1089906312
0.2900000000	0.1333558969
0.2950000000	0.1682858291
0.3000000000	0.2152421126
0.3050000000	0.2872153437
0.3100000000	0.3874727963
0.3150000000	0.5814669775
0.3200000000	0.8844508834
0.3250000000	1.0918930617
0.3300000000	1.3788542411
0.3350000000	1.7856653335
0.3400000000	2.4242791966
0.3450000000	3.5199400244
0.3500000000	5.7047910409
0.3550000000	10.7624731276
0.3600000000	26.4503181820
0.3650000000	0.1192963298
0.3700000000	12.2590590494
0.3750000000	16.1202995267
0.3800000000	7.5115793514
0.3850000000	4.2313854597
0.3900000000	2.7140890978
0.3950000000	1.9125835157
0.4000000000	1.4485112070
0.4050000000	1.1459676400
0.4100000000	0.9490051127
0.4150000000	0.8190979788
0.4200000000	0.7369952642
0.4250000000	0.6725142497
0.4300000000	0.5963183135
0.4350000000	0.5360137161
0.4400000000	0.4883196062
0.4450000000	0.4503973243
0.4500000000	0.4204581309
0.4550000000	0.3967174770
0.4600000000	0.3781981840
0.4650000000	0.3638666813
0.4700000000	0.3530387371
0.4750000000	0.3452356300
0.4800000000	0.3400396019
0.4850000000	0.3370843412
0.4900000000	0.3361532363
0.4950000000	0.3370796319
0.5000000000	0.3397211524
0.5050000000	0.3440143436
0.5100000000	0.3499072296
0.5150000000	0.3573689411
0.5200000000	0.3664149638
0.5250000000	0.3770580145
0.5300000000	0.3894543323
0.5350000000	0.4036734044
0.5400000000	0.4198403186
0.5450000000	0.4381190995
0.5500000000	0.4587418273
0.5550000000	0.4819623407
0.5600000000	0.5080896209
0.5650000000	0.5375209578
0.5700000000	0.5708048095
0.5750000000	0.6083476788
0.5800000000	0.6509101529
0.5850000000	0.6995314283
0.5900000000	0.7549125079
0.5950000000	0.8185283796
0.6000000000	0.8923277024
0.6050000000	0.9777710310
0.6100000000	1.0782062821
0.6150000000	1.1964098582
0.6200000000	1.3371477031
0.6250000000	1.5072572979
0.6300000000	1.7137119081
0.6350000000	1.9696145224
0.6400000000	2.2894215327
0.6450000000	2.6993657484
0.6500000000	3.2329571779
0.6550000000	3.9469583077
0.6600000000	4.9372113970
0.6650000000	6.3551396098
0.6700000000	8.5022240895
0.6750000000	11.9544168719
0.6800000000	18.0568265713
0.6850000000	30.3017243655
0.6900000000	60.7296860469
0.6950000000	170.4778166213
0.7000000000	826.8343064988
0.7050000000	401.9871180378
0.7100000000	103.2624293600
0.7150000000	43.9131612576
0.7200000000	23.9816293855
0.7250000000	15.0648078478
0.7300000000	10.3324164197
0.7350000000	7.5348598580
0.7400000000	5.7434033527
0.7450000000	4.5274314735
0.7500000000	3.6660584582
0.7550000000	3.0332318138
0.7600000000	2.5562554507
0.7650000000	2.1863665562
0.7700000000	1.8943767306
0.7750000000	1.6599632252
0.7800000000	1.4694706579
0.7850000000	1.3126192953
0.7900000000	1.1812141063
0.7950000000	1.0714665247
0.8000000000	0.9781513900
0.8050000000	0.8982041379
0.8100000000	0.8301450095
0.8150000000	0.7704939651
0.8200000000	0.7185613096
0.8250000000	0.6749807810
0.8300000000	0.6368333822
0.8350000000	0.6036697685
0.8400000000	0.5772600328
0.8450000000	0.5542161654
0.8500000000	0.5346774887
0.8550000000	0.5223276506
0.8600000000	0.5124353834
0.8650000000	0.5053527041
0.8700000000	0.5078197560
0.8750000000	0.5086843863
0.8800000000	0.5059471167
0.8850000000	0.4839484281
0.8900000000	0.3755581612
0.8950000000	-0.1676444483
0.9000000000	-3.0804534783
0.9050000000	-20.2408251167
0.9100000000	3.8542544271
0.9150000000	9.1300352732
0.9200000000	3.7900543865
0.9250000000	1.9716915536
0.9300000000	1.2035613385
0.9350000000	0.8365721755
0.9400000000	0.6385955554
0.9450000000	0.5288566138
0.9500000000	0.4509225413
0.9550000000	0.3987520390
0.9600000000	0.3664837387
0.9650000000	0.3398557257
0.9700000000	0.3208500668
0.9750000000	0.3078901236
0.9800000000	0.2999884780
0.9850000000	0.2985138524
0.9900000000	0.3013421363
0.9950000000	0.3128720984
1.0000000000	0.3404815552
1.0050000000	0.4049784609
1.0100000000	0.5740301532
1.0150000000	1.1534639913
1.0200000000	2.2142911914
1.0250000000	1.0071796007
1.0300000000	0.5163204593
1.0350000000	0.3700219154
1.0400000000	0.3124935641
1.0450000000	0.2855092210
1.0500000000	0.2719884448
1.0550000000	0.2648996605
1.0600000000	0.2617246749
1.0650000000	0.2611412692
1.0700000000	0.2624163777
1.0750000000	0.2652924823
1.0800000000	0.2692566188
1.0850000000	0.2746478363
1.0900000000	0.2824350205
1.0950000000	0.2915120327
1.1000000000	0.3019679624
1.1050000000	0.3138218334
1.1100000000	0.3272612599
1.1150000000	0.3424651318
1.1200000000	0.3596456914
1.1250000000	0.3789785518
1.1300000000	0.4009646207
1.1350000000	0.4259414236
1.1400000000	0.4544145725
1.1450000000	0.4870268955
1.1500000000	0.5242785613
1.1550000000	0.5677272426
1.1600000000	0.6183578004
1.1650000000	0.6774602134
1.1700000000	0.7453025454
1.1750000000	0.8141098067
1.1800000000	0.8792414698
1.1850000000	1.2220229201
1.1900000000	1.5164994246
1.1950000000	2.0788222581
1.2000000000	2.8311558679
1.2050000000	2.4834904698
1.2100000000	2.3768186639
1.2150000000	2.6461210606
1.2200000000	3.1648096453
1.2250000000	3.9613379823
1.2300000000	5.1725109981
1.2350000000	7.0884586255
1.2400000000	10.3158742198
1.2450000000	16.3930813943
1.2500000000	29.5546130206
1.2550000000	63.9766019477
1.2600000000	154.5304910792
1.2650000000	156.5333094201
1.2700000000	65.1148093729
1.2750000000	30.0571264219
1.2800000000	16.6462148015
1.2850000000	10.4681570651
1.2900000000	7.1749858018
1.2950000000	5.2292521137
1.3000000000	3.9899052743
1.3050000000	3.1554571121
1.3100000000	2.5670372474
1.3150000000	2.1418756163
1.3200000000	1.8267041442
1.3250000000	1.5895280419
1.3300000000	1.4109142140
1.3350000000	1.2789387055
1.3400000000	1.1874116118
1.3450000000	1.1346372934
1.3500000000	1.1283204278
1.3550000000	1.1860002663
1.3600000000	1.3523018943
1.3650000000	1.7407819131
1.3700000000	2.6684987635
1.3750000000	4.9767098183
1.3800000000	8.1292216251
1.3850000000	5.6788496756
1.3900000000	2.8939272345
1.3950000000	1.6791171807
1.4000000000	1.0996334735
1.4050000000	0.7434987528
1.4100000000	0.4211931392
1.4150000000	-0.0595833252
1.4200000000	-1.1359243543
1.4250000000	-3.9879107105
1.4300000000	-5.3620452947
1.4350000000	2.4566346501
1.4400000000	3.1424034245
1.4450000000	1.8840186536
1.4500000000	1.1723205817
1.4550000000	0.8081358143
1.4600000000	0.5967596642
1.4650000000	0.4296980970
1.4700000000	0.2509884497
1.4750000000	0.2949787268
1.4800000000	0.4324972738
1.4850000000	0.3927205385
1.4900000000	0.3477409662
1.4950000000	0.3186480564
1.5000000000	0.2995364265
1.5050000000	0.2868995274
1.5100000000	0.2783024020
1.5150000000	0.2736105706
1.5200000000	0.2701510795
1.5250000000	0.2689007752
1.5300000000	0.2699739812
1.5350000000	0.2738629413
1.5400000000	0.2817962760
1.5450000000	0.2965028062
1.5500000000	0.3241159869
1.5550000000	0.3768614508
1.5600000000	0.4560343014
1.5650000000	0.4687251292
1.5700000000	0.3972894737
1.5750000000	0.3471664233
1.5800000000	0.3255511395
1.5850000000	0.3187591236
1.5900000000	0.3196555869
1.5950000000	0.3251421965
1.6000000000	0.3338692515
1.6050000000	0.3453724037
1.6100000000	0.3593047943
1.6150000000	0.3756150261
1.6200000000	0.3945630569
1.6250000000	0.4163731528
1.6300000000	0.4414137266
1.6350000000	0.4701596917
1.6400000000	0.5032183002
1.6450000000	0.5413651102
1.6500000000	0.5855736259
1.6550000000	0.6370775326
1.6600000000	0.6974751921
1.6650000000	0.7688297451
1.6700000000	0.8531472674
1.6750000000	0.9553504648
1.6800000000	1.0797907617
1.6850000000	1.2333137001
1.6900000000	1.4256386430
1.6950000000	1.6710285886
1.7000000000	1.9909548636
1.7050000000	2.4323037940
1.7100000000	3.0480677835
1.7150000000	3.9431006382
1.7200000000	5.3071731386
1.7250000000	7.4712373227
1.7300000000	10.7968055174
1.7350000000	15.0644191560
1.7400000000	20.4590059859
1.7450000000	29.9256752457
1.7500000000	42.2144711968
1.7550000000	42.8935199579
1.7600000000	30.0925860384
1.7650000000	18.7449163932
1.7700000000	12.0162572092
1.7750000000	8.1900869810
1.7800000000	5.9289802633
1.7850000000	4.5381175827
1.7900000000	3.6755707315
1.7950000000	3.1820317967
1.8000000000	2.9828269377
1.8050000000	2.9197582631
1.8100000000	2.5977439334
1.8150000000	2.0128762256
1.8200000000	1.5456105807
1.8250000000	1.3046980180
1.8300000000	1.1358808705
1.8350000000	0.9858455720
1.8400000000	0.8635021345
1.8450000000	0.7664150072
1.8500000000	0.6881732847
1.8550000000	0.6235372287
1.8600000000	0.5640815474
1.8650000000	0.5138183933
1.8700000000	0.4630211454
1.8750000000	0.3897922824
1.8800000000	0.2228599135
1.8850000000	-0.1430170154
1.8900000000	-0.6351490290
1.8950000000	-0.7195952335
1.9000000000	0.0770140458
1.9050000000	0.8197397949
1.9100000000	0.9064049297
1.9150000000	0.7657427895
1.9200000000	0.6278803748
1.9250000000	0.5300513109
1.9300000000	0.4708032780
1.9350000000	0.4255669163
1.9400000000	0.3954695910
1.9450000000	0.3755411443
1.9500000000	0.3616105312
1.9550000000	0.3499627885
1.9600000000	0.3399146315
1.9650000000	0.3327829382
1.9700000000	0.3289762402
1.9750000000	0.3282409091
1.9800000000	0.3303719665
1.9850000000	0.3354316243
1.9900000000	0.3437520693
1.9950000000	0.3557486219
2.0000000000	0.3711094762
2.0050000000	0.3885366989
2.0100000000	0.4010413306
2.0150000000	0.4093870674
2.0200000000	0.4194508854
2.0250000000	0.4349800317
2.0300000000	0.4570776787
2.0350000000	0.4862966425
2.0400000000	0.5236404916
2.0450000000	0.5708500741
2.0500000000	0.6304252770
2.0550000000	0.7051439573
2.0600000000	0.7963531817
2.0650000000	0.9026190314
2.0700000000	1.0255379854
2.0750000000	1.1788221797
2.0800000000	1.3851100926
2.0850000000	1.6664744302
2.0900000000	2.0357518624
2.0950000000	2.4664113397
2.1000000000	2.8502490749
2.1050000000	3.0362424890
2.1100000000	2.9479157323
2.1150000000	2.7446645183
2.1200000000	2.6010047145
2.1250000000	2.5948757401
2.1300000000	2.7494005301
2.1350000000	3.0829062530
2.1400000000	3.6321014191
2.1450000000	4.4619289597
2.1500000000	5.6633303897
2.1550000000	7.3046172539
2.1600000000	9.2534320063
2.1650000000	10.8913810753
2.1700000000	11.2784132992
2.1750000000	10.0960138357
2.1800000000	8.1507874749
2.1850000000	6.2887247647
2.1900000000	4.8328676327
2.1950000000	3.7810560452
2.2000000000	3.0431263255
2.2050000000	2.5340203062
2.2100000000	2.1806001119
2.2150000000	1.9095223825
2.2200000000	1.6666132118
2.2250000000	1.4355610272
2.2300000000	1.2263561970
2.2350000000	1.0467241457
2.2400000000	0.8945823394
2.2450000000	0.7632140987
2.2500000000	0.6459334920
2.2550000000	0.5390009489
2.2600000000	0.4320659407
2.2650000000	0.3542717942
2.2700000000	0.3120119710
2.2750000000	0.3226460254
2.2800000000	0.3840168433
2.2850000000	0.4621665552
2.2900000000	0.5193692734
2.2950000000	0.5447195297
2.3000000000	0.5476145041
2.3050000000	0.5388603598
2.3100000000	0.5273316981
2.3150000000	0.5171185565
2.3200000000	0.5098378656
2.3250000000	0.5063765761
2.3300000000	0.5074516245
2.3350000000	0.5136569816
2.3400000000	0.5255004388
2.3450000000	0.5434961478
2.3500000000	0.5681890024
2.3550000000	0.6003959369
2.3600000000	0.6395882686
2.3650000000	0.6860100572
2.3700000000	0.7395324181
2.3750000000	0.8007365132
2.3800000000	0.8718316312
2.3850000000	0.9554391581
2.3900000000	1.0521386152
2.3950000000	1.1576240927
2.4000000000	1.2608263333
2.4050000000	1.3497637066
2.4100000000	1.3990596564
2.4150000000	1.4037720176
2.4200000000	1.3759529669
2.4250000000	1.3361541999
2.4300000000	1.3026158793
2.4350000000	1.2863488443
2.4400000000	1.2917473426
2.4450000000	1.3195219882
2.4500000000	1.3697622516
2.4550000000	1.4435876945
2.4600000000	1.5457305312
2.4650000000	1.6810416341
2.4700000000	1.8549229523
2.4750000000	2.0707483175
2.4800000000	2.3268148133
2.4850000000	2.6121969563
2.4900000000	2.9019030820
2.4950000000	3.1544609176
2.5000000000	3.3179736970
2.5050000000	3.3389971109
2.5100000000	3.1961910816
2.5150000000	2.9285352150
2.5200000000	2.5983122525
2.5250000000	2.2602392425
2.5300000000	1.9476696970
2.5350000000	1.6746176565
2.5400000000	1.4431462876
2.5450000000	1.2498214682
2.5500000000	1.0896663913
2.5550000000	0.9582095007
2.5600000000	0.8482886218
2.5650000000	0.7660254977
2.5700000000	0.7069163556
2.5750000000	0.6688533169
2.5800000000	0.6476118368
2.5850000000	0.6374141058
2.5900000000	0.6328378218
2.5950000000	0.6305065670
2.6000000000	0.6293316783
2.6050000000	0.6343481675
2.6100000000	0.6422973083
2.6150000000	0.6543963147
2.6200000000	0.6712918668
2.6250000000	0.6930237837
2.6300000000	0.7189786544
2.6350000000	0.7478546029
2.6400000000	0.7776624710
2.6450000000	0.8058798101
2.6500000000	0.8298351957
2.6550000000	0.8473382890
2.6600000000	0.8573716278
2.6650000000	0.8605327611
2.6700000000	0.8589079114
2.6750000000	0.8555466804
2.6800000000	0.8534041240
2.6850000000	0.8552412159
2.6900000000	0.8629807249
2.6950000000	0.8778043487
2.7000000000	0.9002787068
2.7050000000	0.9339182012
2.7100000000	0.9772093869
2.7150000000	1.0294524856
2.7200000000	1.0892009329
2.7250000000	1.1539990523
2.7300000000	1.2201395693
2.7350000000	1.2826243113
2.7400000000	1.3355078449
2.7450000000	1.3727536579
2.7500000000	1.3894961692
2.7550000000	1.3832840643
2.7600000000	1.3547435565
2.7650000000	1.3073525610
2.7700000000	1.2464329962
2.7750000000	1.1778812674
2.7800000000	1.1071039730
2.7850000000	1.0384264712
2.7900000000	0.9743563142
2.7950000000	0.9176374810
2.8000000000	0.8688377074
2.8050000000	0.8236395123
2.8100000000	0.7880033886
2.8150000000	0.7605265879
2.8200000000	0.7396852125
2.8250000000	0.7240808855
2.8300000000	0.7125250787
2.8350000000	0.7040319349
2.8400000000	0.6977684066
2.8450000000	0.6930272166
2.8500000000	0.6892404114
2.8550000000	0.6860309468
2.8600000000	0.6832711398
2.8650000000	0.6811015281
2.8700000000	0.6798951476
2.8750000000	0.6801650931
2.8800000000	0.6824508587
2.8850000000	0.6872159024
2.8900000000	0.6947762221
2.8950000000	0.7052573724
2.9000000000	0.7185732159
2.9050000000	0.7384902249
2.9100000000	0.7603311515
2.9150000000	0.7826378418
2.9200000000	0.8035675088
2.9250000000	0.8211405512
2.9300000000	0.8335189653
2.9350000000	0.8393285125
2.9400000000	0.8379246518
2.9450000000	0.8295156307
2.9500000000	0.8150846319
2.9550000000	0.7961391980
2.9600000000	0.7743935128
2.9650000000	0.7514712915
2.9700000000	0.7287078612
2.9750000000	0.7070635891
2.9800000000	0.6871297322
2.9850000000	0.6691922947
2.9900000000	0.6533177997
2.9950000000	0.6394366383
3.0000000000	0.6274111148
