# energy (eV)    P(omega), $W$ = 300 nm, $h$ = 300 nm, $s$ = 20 nm, $d/W = 5$, $E_{\rm e}$ = 200 keV
0.2000000000	0.1020977376
0.2050000000	0.1036276434
0.2100000000	0.1050580913
0.2150000000	0.1063923226
0.2200000000	0.1076331016
0.2250000000	0.1087827769
0.2300000000	0.1098431419
0.2350000000	0.1108153854
0.2400000000	0.1116999558
0.2450000000	0.1124965146
0.2500000000	0.1132037489
0.2550000000	0.1138191514
0.2600000000	0.1143389612
0.2650000000	0.1147577147
0.2700000000	0.1150680127
0.2750000000	0.1152600486
0.2800000000	0.1153210931
0.2850000000	0.1152347801
0.2900000000	0.1149801461
0.2950000000	0.1145305919
0.3000000000	0.1138521394
0.3050000000	0.1129014911
0.3100000000	0.1116232151
0.3150000000	0.1179689219
0.3200000000	0.1255052654
0.3250000000	0.1350372447
0.3300000000	0.1478026611
0.3350000000	0.1636923225
0.3400000000	0.1845000803
0.3450000000	0.2097377670
0.3500000000	0.2427525537
0.3550000000	0.2864363200
0.3600000000	0.3434727281
0.3650000000	0.4229860612
0.3700000000	0.5278272940
0.3750000000	0.6736619875
0.3800000000	0.8845758288
0.3850000000	1.2132137585
0.3900000000	1.7323788979
0.3950000000	2.6142266031
0.4000000000	4.2953153638
0.4050000000	8.0642229734
0.4100000000	18.3480111551
0.4150000000	58.8823695257
0.4200000000	37.5168374824
0.4250000000	-70.6148202986
0.4300000000	19.6356587147
0.4350000000	12.2358860548
0.4400000000	7.4796313877
0.4450000000	4.9194255760
0.4500000000	3.4455959424
0.4550000000	2.5386206991
0.4600000000	1.9479189319
0.4650000000	1.5453932296
0.4700000000	1.2608966379
0.4750000000	1.0551430109
0.4800000000	0.9025937051
0.4850000000	0.7878037898
0.4900000000	0.7001807407
0.4950000000	0.6326138258
0.5000000000	0.5802426208
0.5050000000	0.5395011139
0.5100000000	0.5080929984
0.5150000000	0.4843276812
0.5200000000	0.4664383477
0.5250000000	0.4536286986
0.5300000000	0.4450442305
0.5350000000	0.4400599599
0.5400000000	0.4382151141
0.5450000000	0.4391247772
0.5500000000	0.4426670304
0.5550000000	0.4486248608
0.5600000000	0.4568873065
0.5650000000	0.4674044777
0.5700000000	0.4801308917
0.5750000000	0.4951554353
0.5800000000	0.5126226203
0.5850000000	0.5326267017
0.5900000000	0.5553504422
0.5950000000	0.5810238024
0.6000000000	0.6099397130
0.6050000000	0.6425228338
0.6100000000	0.6791782589
0.6150000000	0.7204594930
0.6200000000	0.7671048860
0.6250000000	0.8198223328
0.6300000000	0.8796581865
0.6350000000	0.9479165773
0.6400000000	1.0259544310
0.6450000000	1.1157304464
0.6500000000	1.2198199335
0.6550000000	1.3409036960
0.6600000000	1.4831020543
0.6650000000	1.6517017944
0.6700000000	1.8529183007
0.6750000000	2.0962295770
0.6800000000	2.3943815413
0.6850000000	2.7640711919
0.6900000000	3.2311591575
0.6950000000	3.8318135443
0.7000000000	4.6234873382
0.7050000000	5.6940110950
0.7100000000	7.1922027379
0.7150000000	9.3829749883
0.7200000000	12.7595134298
0.7250000000	18.3643371730
0.7300000000	28.6520409403
0.7350000000	50.6647248133
0.7400000000	111.0350657904
0.7450000000	368.3561488071
0.7500000000	1141.1673352851
0.7550000000	287.0849067769
0.7600000000	95.0757320818
0.7650000000	45.5548035177
0.7700000000	26.4930034582
0.7750000000	17.2912081318
0.7800000000	12.1685321525
0.7850000000	9.0375603332
0.7900000000	6.9822412362
0.7950000000	5.5647347695
0.8000000000	4.5457418549
0.8050000000	3.7868199525
0.8100000000	3.2081001430
0.8150000000	2.7493401297
0.8200000000	2.3872741764
0.8250000000	2.0957431712
0.8300000000	1.8569337474
0.8350000000	1.6605884033
0.8400000000	1.4959938961
0.8450000000	1.3578778625
0.8500000000	1.2411300871
0.8550000000	1.1403817158
0.8600000000	1.0543762410
0.8650000000	0.9809131188
0.8700000000	0.9160024452
0.8750000000	0.8607867382
0.8800000000	0.8139351378
0.8850000000	0.7719300967
0.8900000000	0.7382352163
0.8950000000	0.7075832382
0.9000000000	0.6832907961
0.9050000000	0.6665618218
0.9100000000	0.6512313848
0.9150000000	0.6419340347
0.9200000000	0.6408193332
0.9250000000	0.6399937195
0.9300000000	0.6306096410
0.9350000000	0.6024409451
0.9400000000	0.4454967229
0.9450000000	-0.2678745917
0.9500000000	-4.0326515754
0.9550000000	-23.1282630825
0.9600000000	5.4574580143
0.9650000000	9.5868476564
0.9700000000	4.2521342408
0.9750000000	2.2322684894
0.9800000000	1.3989921682
0.9850000000	1.0092664552
0.9900000000	0.7847146074
0.9950000000	0.6485516707
1.0000000000	0.5616112667
1.0050000000	0.5064933707
1.0100000000	0.4637631652
1.0150000000	0.4325460099
1.0200000000	0.4115196950
1.0250000000	0.3938709819
1.0300000000	0.3804634660
1.0350000000	0.3703206655
1.0400000000	0.3638722778
1.0450000000	0.3585101561
1.0500000000	0.3549728026
1.0550000000	0.3530507719
1.0600000000	0.3532174271
1.0650000000	0.3541552451
1.0700000000	0.3564013584
1.0750000000	0.3599651067
1.0800000000	0.3651989360
1.0850000000	0.3718408441
1.0900000000	0.3816388007
1.0950000000	0.3932744857
1.1000000000	0.4071383763
1.1050000000	0.4231167466
1.1100000000	0.4417143955
1.1150000000	0.4633494633
1.1200000000	0.4885177559
1.1250000000	0.5178668976
1.1300000000	0.5522649038
1.1350000000	0.5927921861
1.1400000000	0.6406791889
1.1450000000	0.6981719417
1.1500000000	0.7677129317
1.1550000000	0.8528331443
1.1600000000	0.9585141554
1.1650000000	1.0912199356
1.1700000000	1.2630589890
1.1750000000	1.4901059310
1.1800000000	1.7989345233
1.1850000000	2.2332253977
1.1900000000	2.8753019275
1.1950000000	3.8832300596
1.2000000000	5.5928169117
1.2050000000	8.8234823558
1.2100000000	15.9303050243
1.2150000000	35.1400274322
1.2200000000	86.2408151027
1.2250000000	77.4826430885
1.2300000000	30.9078413149
1.2350000000	14.4966073122
1.2400000000	8.2804318954
1.2450000000	5.4262927684
1.2500000000	3.9206380595
1.2550000000	3.0517182439
1.2600000000	2.5230049476
1.2650000000	2.1918649103
1.2700000000	1.9944612050
1.2750000000	1.8894040664
1.2800000000	1.8569956207
1.2850000000	1.8886388912
1.2900000000	1.9836524813
1.2950000000	2.1469806367
1.3000000000	2.3987811241
1.3050000000	2.7649058051
1.3100000000	3.2935444962
1.3150000000	4.0680750798
1.3200000000	5.2383860613
1.3250000000	7.0901643041
1.3300000000	10.2490870453
1.3350000000	16.1657923366
1.3400000000	28.8115149799
1.3450000000	60.2047866245
1.3500000000	127.7697490490
1.3550000000	119.1641419346
1.3600000000	54.9524235293
1.3650000000	27.0001592309
1.3700000000	15.4842821676
1.3750000000	9.9577985769
1.3800000000	6.9444582932
1.3850000000	5.1292550619
1.3900000000	3.9593365992
1.3950000000	3.1611393873
1.4000000000	2.5933702439
1.4050000000	2.1763638037
1.4100000000	1.8618726733
1.4150000000	1.6210780031
1.4200000000	1.4336549278
1.4250000000	1.2942247144
1.4300000000	1.2056125737
1.4350000000	1.1471916444
1.4400000000	0.7889693749
1.4450000000	-0.2035594478
1.4500000000	-1.9303320536
1.4550000000	-0.6447706572
1.4600000000	1.9641840340
1.4650000000	1.1376474866
1.4700000000	-0.7267954327
1.4750000000	-3.6765726466
1.4800000000	-1.6220894278
1.4850000000	2.7789223052
1.4900000000	2.2496230569
1.4950000000	1.4595364144
1.5000000000	1.0275830657
1.5050000000	0.7937457535
1.5100000000	0.6598905283
1.5150000000	0.5778211692
1.5200000000	0.5240667133
1.5250000000	0.4899472352
1.5300000000	0.4630598615
1.5350000000	0.4435273698
1.5400000000	0.4293771282
1.5450000000	0.4194327844
1.5500000000	0.4128809124
1.5550000000	0.4093824106
1.5600000000	0.4096373954
1.5650000000	0.4122307636
1.5700000000	0.4186710638
1.5750000000	0.4301426248
1.5800000000	0.4490046526
1.5850000000	0.4799030369
1.5900000000	0.5326665979
1.5950000000	0.6290242903
1.6000000000	0.8147701636
1.6050000000	1.1196263431
1.6100000000	1.2618036019
1.6150000000	1.0049029445
1.6200000000	0.7666956754
1.6250000000	0.6456357981
1.6300000000	0.5901041003
1.6350000000	0.5672519298
1.6400000000	0.5622004216
1.6450000000	0.5681442648
1.6500000000	0.5817712726
1.6550000000	0.6017221694
1.6600000000	0.6273047269
1.6650000000	0.6584268674
1.6700000000	0.6953477491
1.6750000000	0.7386001590
1.6800000000	0.7889627251
1.6850000000	0.8474746306
1.6900000000	0.9153432482
1.6950000000	0.9932687336
1.7000000000	1.0829678342
1.7050000000	1.1867449020
1.7100000000	1.3125259440
1.7150000000	1.5239799039
1.7200000000	1.8433780002
1.7250000000	2.1885840952
1.7300000000	2.5990255483
1.7350000000	3.0431103814
1.7400000000	3.4531139062
1.7450000000	3.9698515599
1.7500000000	4.7619724685
1.7550000000	5.9500558262
1.7600000000	7.7325597650
1.7650000000	10.4825112098
1.7700000000	14.9123796364
1.7750000000	22.3735848054
1.7800000000	35.0813287169
1.7850000000	53.8076491897
1.7900000000	66.8243321931
1.7950000000	56.8570163183
1.8000000000	37.8035942097
1.8050000000	23.8461585786
1.8100000000	15.7005555264
1.8150000000	10.9273914153
1.8200000000	7.9901399002
1.8250000000	6.0855716673
1.8300000000	4.7917301137
1.8350000000	3.8774983548
1.8400000000	3.2102227373
1.8450000000	2.7093325239
1.8500000000	2.3239973041
1.8550000000	2.0223474194
1.8600000000	1.7819672852
1.8650000000	1.5874494077
1.8700000000	1.4275674546
1.8750000000	1.2937109587
1.8800000000	1.1785516319
1.8850000000	1.0749455869
1.8900000000	0.9740523093
1.8950000000	0.8624797950
1.9000000000	0.7175357975
1.9050000000	0.4651627843
1.9100000000	0.1027609712
1.9150000000	-0.2459777664
1.9200000000	0.1764587065
1.9250000000	1.8645298261
1.9300000000	3.2130123029
1.9350000000	3.2430393683
1.9400000000	2.6032556652
1.9450000000	1.9729108463
1.9500000000	1.5261474300
1.9550000000	1.2306374279
1.9600000000	1.0337153256
1.9650000000	0.9024980157
1.9700000000	0.8059076430
1.9750000000	0.7350796567
1.9800000000	0.6813216309
1.9850000000	0.6383999208
1.9900000000	0.6016741345
1.9950000000	0.5672106227
2.0000000000	0.5343025693
2.0050000000	0.5147333946
2.0100000000	0.5278868834
2.0150000000	0.5621894335
2.0200000000	0.5853630874
2.0250000000	0.5954310710
2.0300000000	0.6031042290
2.0350000000	0.6133384531
2.0400000000	0.6285430856
2.0450000000	0.6497398694
2.0500000000	0.6779670336
2.0550000000	0.7142569668
2.0600000000	0.7586687886
2.0650000000	0.8076603765
2.0700000000	0.8524142981
2.0750000000	0.8860452008
2.0800000000	0.9136737728
2.0850000000	0.9464270654
2.0900000000	0.9913833294
2.0950000000	1.0509969937
2.1000000000	1.1271493832
2.1050000000	1.2186938756
2.1100000000	1.3320085822
2.1150000000	1.4716654228
2.1200000000	1.6442393233
2.1250000000	1.8590595551
2.1300000000	2.1293445471
2.1350000000	2.4740070429
2.1400000000	2.9203621041
2.1450000000	3.5083358844
2.1500000000	4.2960708302
2.1550000000	5.3658029337
2.1600000000	6.8227482967
2.1650000000	8.7560733651
2.1700000000	11.1317904474
2.1750000000	13.5007548366
2.1800000000	14.9884841002
2.1850000000	15.1278727588
2.1900000000	14.5629498129
2.1950000000	14.1621501992
2.2000000000	14.0221163011
2.2050000000	13.3633004195
2.2100000000	11.8521278939
2.2150000000	9.9507360292
2.2200000000	8.2213198154
2.2250000000	6.8199500373
2.2300000000	5.6694212149
2.2350000000	4.7064616820
2.2400000000	3.9157654494
2.2450000000	3.2914052127
2.2500000000	2.8075614791
2.2550000000	2.4331012420
2.2600000000	2.1392019218
2.2650000000	1.8998815311
2.2700000000	1.6905441551
2.2750000000	1.4904019019
2.2800000000	1.2946234403
2.2850000000	1.1271106476
2.2900000000	1.0285804150
2.2950000000	1.0172873543
2.3000000000	1.0618063818
2.3050000000	1.1087260228
2.3100000000	1.1253028106
2.3150000000	1.1125658594
2.3200000000	1.0846719816
2.3250000000	1.0561714556
2.3300000000	1.0347888686
2.3350000000	1.0227791538
2.3400000000	1.0184455798
2.3450000000	1.0168518835
2.3500000000	1.0116398793
2.3550000000	0.9987477726
2.3600000000	0.9792992938
2.3650000000	0.9582489212
2.3700000000	0.9406323863
2.3750000000	0.9292486385
2.3800000000	0.9245470911
2.3850000000	0.9254034097
2.3900000000	0.9303814339
2.3950000000	0.9381047448
2.4000000000	0.9492587750
2.4050000000	0.9667538879
2.4100000000	0.9918267084
2.4150000000	1.0261850363
2.4200000000	1.0710065673
2.4250000000	1.1275541055
2.4300000000	1.1973774116
2.4350000000	1.2824633448
2.4400000000	1.3853688935
2.4450000000	1.5093727493
2.4500000000	1.6586303512
2.4550000000	1.8383847892
2.4600000000	2.0550830027
2.4650000000	2.3164970738
2.4700000000	2.6315704582
2.4750000000	3.0093209384
2.4800000000	3.4592649161
2.4850000000	3.9853547972
2.4900000000	4.5826613123
2.4950000000	5.2293955559
2.5000000000	5.8785180025
2.5050000000	6.4801437480
2.5100000000	6.8746248846
2.5150000000	6.9724078733
2.5200000000	6.7585227043
2.5250000000	6.2993034233
2.5300000000	5.7001535608
2.5350000000	5.0566959796
2.5400000000	4.4320370078
2.5450000000	3.8591075460
2.5500000000	3.3511682856
2.5550000000	2.9104967043
2.5600000000	2.5308068723
2.5650000000	2.2107165941
2.5700000000	1.9434296484
2.5750000000	1.7248396503
2.5800000000	1.5518074034
2.5850000000	1.4206285198
2.5900000000	1.3248256872
2.5950000000	1.2551021963
2.6000000000	1.2017400594
2.6050000000	1.1636635146
2.6100000000	1.1299049335
2.6150000000	1.1000115242
2.6200000000	1.0746850922
2.6250000000	1.0546451381
2.6300000000	1.0403530911
2.6350000000	1.0320301347
2.6400000000	1.0297927642
2.6450000000	1.0337592090
2.6500000000	1.0441724198
2.6550000000	1.0610866699
2.6600000000	1.0848732095
2.6650000000	1.1158851885
2.6700000000	1.1545386043
2.6750000000	1.2013198805
2.6800000000	1.2567490646
2.6850000000	1.3213584491
2.6900000000	1.3956189111
2.6950000000	1.4798908767
2.7000000000	1.5743068522
2.7050000000	1.6899142469
2.7100000000	1.8179236325
2.7150000000	1.9567729339
2.7200000000	2.1038372559
2.7250000000	2.2553838590
2.7300000000	2.4065808600
2.7350000000	2.5515140387
2.7400000000	2.6831479057
2.7450000000	2.7944619217
2.7500000000	2.8750308940
2.7550000000	2.9179539866
2.7600000000	2.9180197171
2.7650000000	2.8740802281
2.7700000000	2.7896353446
2.7750000000	2.6722420871
2.7800000000	2.5318744376
2.7850000000	2.3791409210
2.7900000000	2.2235455715
2.7950000000	2.0727062683
2.8000000000	1.9320132411
2.8050000000	1.7891051838
2.8100000000	1.6660853259
2.8150000000	1.5626783539
2.8200000000	1.4772689001
2.8250000000	1.4077093403
2.8300000000	1.3518335240
2.8350000000	1.3077975842
2.8400000000	1.2736401225
2.8450000000	1.2494804838
2.8500000000	1.2338777656
2.8550000000	1.2262871169
2.8600000000	1.2263068206
2.8650000000	1.2335959492
2.8700000000	1.2478221813
2.8750000000	1.2686059228
2.8800000000	1.2954835965
2.8850000000	1.3278677223
2.8900000000	1.3650571257
2.8950000000	1.4062208251
2.9000000000	1.4504447693
2.9050000000	1.5063678418
2.9100000000	1.5622585827
2.9150000000	1.6161214128
2.9200000000	1.6656652489
2.9250000000	1.7082462579
2.9300000000	1.7414016897
2.9350000000	1.7616774589
2.9400000000	1.7674276308
2.9450000000	1.7578479740
2.9500000000	1.7335954231
2.9550000000	1.6967326376
2.9600000000	1.6503274029
2.9650000000	1.5979117030
2.9700000000	1.5429403036
2.9750000000	1.4883920510
2.9800000000	1.4365704479
2.9850000000	1.3890674398
2.9900000000	1.3468639869
2.9950000000	1.3104357355
3.0000000000	1.2799206135
