# energy (eV)    P(omega), $W$ = 300 nm, $h$ = 300 nm, $s$ = 20 nm, $d/W = 5$, $E_{\rm e}$ = 200 keV
0.2000000000	0.2760305351
0.2050000000	0.2801665137
0.2100000000	0.2840328933
0.2150000000	0.2876384685
0.2200000000	0.2909907580
0.2250000000	0.2940961423
0.2300000000	0.2969595068
0.2350000000	0.2995840874
0.2400000000	0.3019711300
0.2450000000	0.3041197353
0.2500000000	0.3060263812
0.2550000000	0.3076843030
0.2600000000	0.3090833438
0.2650000000	0.3102087503
0.2700000000	0.3110405207
0.2750000000	0.3115521533
0.2800000000	0.3117092321
0.2850000000	0.3114675079
0.2900000000	0.3107702980
0.2950000000	0.3095456733
0.3000000000	0.3077017595
0.3050000000	0.3051214710
0.3100000000	0.3016549191
0.3150000000	0.3188150116
0.3200000000	0.3391948692
0.3250000000	0.3649719276
0.3300000000	0.3994940604
0.3350000000	0.4424649482
0.3400000000	0.4987360583
0.3450000000	0.5669855277
0.3500000000	0.6562654649
0.3550000000	0.7743953513
0.3600000000	0.9286304974
0.3650000000	1.1436437850
0.3700000000	1.4271392784
0.3750000000	1.8214748816
0.3800000000	2.3917727107
0.3850000000	3.2803740459
0.3900000000	4.6841112683
0.3950000000	7.0684342054
0.4000000000	11.6136452283
0.4050000000	21.8035684169
0.4100000000	49.6070943547
0.4150000000	159.1946613557
0.4200000000	101.4314985780
0.4250000000	-190.9036826119
0.4300000000	53.0815660464
0.4350000000	33.0764755363
0.4400000000	20.2184564270
0.4450000000	13.2973542141
0.4500000000	9.3131658325
0.4550000000	6.8613903077
0.4600000000	5.2646032984
0.4650000000	4.1765103712
0.4700000000	3.4074785491
0.4750000000	2.8513044553
0.4800000000	2.4389496247
0.4850000000	2.1286620259
0.4900000000	1.8918075501
0.4950000000	1.7091643999
0.5000000000	1.5675937947
0.5050000000	1.4574561916
0.5100000000	1.3725441663
0.5150000000	1.3082874475
0.5200000000	1.2599105319
0.5250000000	1.2252604194
0.5300000000	1.2020274146
0.5350000000	1.1885219230
0.5400000000	1.1834982234
0.5450000000	1.1859158292
0.5500000000	1.1954445474
0.5550000000	1.2114976439
0.5600000000	1.2337746935
0.5650000000	1.2621404521
0.5700000000	1.2964714288
0.5750000000	1.3370072366
0.5800000000	1.3841375644
0.5850000000	1.4381163577
0.5900000000	1.4994365523
0.5950000000	1.5687185804
0.6000000000	1.6467527158
0.6050000000	1.7346850584
0.6100000000	1.8336085240
0.6150000000	1.9450168093
0.6200000000	2.0709024187
0.6250000000	2.2131755625
0.6300000000	2.3746600101
0.6350000000	2.5588751320
0.6400000000	2.7694825821
0.6450000000	3.0117682735
0.6500000000	3.2926819595
0.6550000000	3.6194578999
0.6600000000	4.0032153853
0.6650000000	4.4582210972
0.6700000000	5.0012475942
0.6750000000	5.6578716523
0.6800000000	6.4624893926
0.6850000000	7.4601582411
0.6900000000	8.7206639117
0.6950000000	10.3416061036
0.7000000000	12.4780226785
0.7050000000	15.3669240646
0.7100000000	19.4098930523
0.7150000000	25.3217899085
0.7200000000	34.4334577702
0.7250000000	49.5580812336
0.7300000000	77.3192394228
0.7350000000	136.7195058172
0.7400000000	299.6248241259
0.7450000000	993.9818089834
0.7500000000	3079.3053822834
0.7550000000	774.6521786645
0.7600000000	256.5423291924
0.7650000000	122.9183021493
0.7700000000	71.4836310931
0.7750000000	46.6545325302
0.7800000000	32.8321860362
0.7850000000	24.3840562014
0.7900000000	18.8383456629
0.7950000000	15.0136257008
0.8000000000	12.2641971489
0.8050000000	10.2165027301
0.8100000000	8.6550346654
0.8150000000	7.4172462165
0.8200000000	6.4403560024
0.8250000000	5.6537817045
0.8300000000	5.0094587045
0.8350000000	4.4797094765
0.8400000000	4.0356282121
0.8450000000	3.6629883080
0.8500000000	3.3480013063
0.8550000000	3.0761826229
0.8600000000	2.8441405261
0.8650000000	2.6459372428
0.8700000000	2.4708093906
0.8750000000	2.3218372083
0.8800000000	2.1954297478
0.8850000000	2.0820986725
0.8900000000	1.9911847367
0.8950000000	1.9084810906
0.9000000000	1.8429319355
0.9050000000	1.7977831718
0.9100000000	1.7564081982
0.9150000000	1.7313051373
0.9200000000	1.7282700247
0.9250000000	1.7260160628
0.9300000000	1.7006862471
0.9350000000	1.6247094631
0.9400000000	1.2015079018
0.9450000000	-0.7220040459
0.9500000000	-10.8730208722
0.9550000000	-62.3600327084
0.9600000000	14.7146996101
0.9650000000	25.8481641329
0.9700000000	11.4645648999
0.9750000000	6.0186143553
0.9800000000	3.7719592631
0.9850000000	2.7211967736
0.9900000000	2.1157737108
0.9950000000	1.7486609547
1.0000000000	1.5142586600
1.0050000000	1.3656523533
1.0100000000	1.2504467549
1.0150000000	1.1662818984
1.0200000000	1.1095916647
1.0250000000	1.0620094605
1.0300000000	1.0258623710
1.0350000000	0.9985179333
1.0400000000	0.9811336645
1.0450000000	0.9666796721
1.0500000000	0.9571462133
1.0550000000	0.9519686883
1.0600000000	0.9524227454
1.0650000000	0.9549577430
1.0700000000	0.9610213804
1.0750000000	0.9706387569
1.0800000000	0.9847599028
1.0850000000	1.0026803150
1.0900000000	1.0291141918
1.0950000000	1.0605055836
1.1000000000	1.0979074555
1.1050000000	1.1410149325
1.1100000000	1.1911892452
1.1150000000	1.2495586599
1.1200000000	1.3174603251
1.1250000000	1.3966436316
1.1300000000	1.4894500260
1.1350000000	1.5987949947
1.1400000000	1.7279981728
1.1450000000	1.8831222419
1.1500000000	2.0707574751
1.1550000000	2.3004324903
1.1600000000	2.5855903458
1.1650000000	2.9436734630
1.1700000000	3.4073594395
1.1750000000	4.0200255823
1.1800000000	4.8533835388
1.1850000000	6.0253077579
1.1900000000	7.7579492551
1.1950000000	10.4778610236
1.2000000000	15.0912284814
1.2050000000	23.8092739690
1.2100000000	42.9872010916
1.2150000000	94.8247350358
1.2200000000	232.7187641412
1.2250000000	209.0812217570
1.2300000000	83.3994106980
1.2350000000	39.1142151300
1.2400000000	22.3400687853
1.2450000000	14.6381590160
1.2500000000	10.5749959657
1.2550000000	8.2299524398
1.2600000000	6.8028555787
1.2650000000	5.9088098437
1.2700000000	5.3755274972
1.2750000000	5.0913008002
1.2800000000	5.0029395923
1.2850000000	5.0871958700
1.2900000000	5.3421575823
1.2950000000	5.7810751086
1.3000000000	6.4581669171
1.3050000000	7.4429595977
1.3100000000	8.8651035283
1.3150000000	10.9489332472
1.3200000000	14.0977525933
1.3250000000	19.0802469054
1.3300000000	27.5799572014
1.3350000000	43.5001324494
1.3400000000	77.5262084325
1.3450000000	161.9964246327
1.3500000000	343.7930096181
1.3550000000	320.6351928332
1.3600000000	147.8599759425
1.3650000000	72.6490046853
1.3700000000	41.6634253323
1.3750000000	26.7934401760
1.3800000000	18.6855218833
1.3850000000	13.8013962038
1.3900000000	10.6535096147
1.3950000000	8.5057996042
1.4000000000	6.9780808446
1.4050000000	5.8559983877
1.4100000000	5.0097203818
1.4150000000	4.3616785361
1.4200000000	3.8571365018
1.4250000000	3.4815039231
1.4300000000	3.2420760771
1.4350000000	3.0830439930
1.4400000000	2.1176771603
1.4450000000	-0.5552121051
1.4500000000	-5.2079261104
1.4550000000	-1.7415198247
1.4600000000	5.2921772801
1.4650000000	3.0670937567
1.4700000000	-1.9510874562
1.4750000000	-9.8874964341
1.4800000000	-4.3617256363
1.4850000000	7.4765301207
1.4900000000	6.0524602749
1.4950000000	3.9270025952
1.5000000000	2.7649696206
1.5050000000	2.1358877035
1.5100000000	1.7757823075
1.5150000000	1.5549915077
1.5200000000	1.4103764571
1.5250000000	1.3185906851
1.5300000000	1.2462616984
1.5350000000	1.1937243707
1.5400000000	1.1556727211
1.5450000000	1.1289430313
1.5500000000	1.1113500664
1.5550000000	1.1019838466
1.5600000000	1.1027331299
1.5650000000	1.1097965738
1.5700000000	1.1272450866
1.5750000000	1.1582846164
1.5800000000	1.2092978331
1.5850000000	1.2928517166
1.5900000000	1.4355302823
1.5950000000	1.6960995604
1.6000000000	2.1983933375
1.6050000000	3.0227030798
1.6100000000	3.4068324655
1.6150000000	2.7117089368
1.6200000000	2.0672960857
1.6250000000	1.7397316418
1.6300000000	1.5893634445
1.6350000000	1.5273421754
1.6400000000	1.5134254550
1.6450000000	1.5292059728
1.6500000000	1.5657246696
1.6550000000	1.6192969908
1.6600000000	1.6880468775
1.6650000000	1.7717179945
1.6700000000	1.8710023556
1.6750000000	1.9873303111
1.6800000000	2.1227958077
1.6850000000	2.2801942852
1.6900000000	2.4627777083
1.6950000000	2.6724401602
1.7000000000	2.9138186027
1.7050000000	3.1931591830
1.7100000000	3.5317499899
1.7150000000	4.1003786883
1.7200000000	4.9589529417
1.7250000000	5.8875667331
1.7300000000	6.9920548945
1.7350000000	8.1869343656
1.7400000000	9.2896951750
1.7450000000	10.6793896246
1.7500000000	12.8099135753
1.7550000000	16.0056137850
1.7600000000	20.8002751064
1.7650000000	28.1972565620
1.7700000000	40.1129678253
1.7750000000	60.1824610069
1.7800000000	94.3641552087
1.7850000000	144.7343682837
1.7900000000	179.7458396439
1.7950000000	152.9342486045
1.8000000000	101.6833984101
1.8050000000	64.1403630299
1.8100000000	42.2302564305
1.8150000000	29.3914229337
1.8200000000	21.4908405113
1.8250000000	16.3679679985
1.8300000000	12.8878186443
1.8350000000	10.4287323830
1.8400000000	8.6338970669
1.8450000000	7.2865921941
1.8500000000	6.2500936416
1.8550000000	5.4386777650
1.8600000000	4.7920477481
1.8650000000	4.2687576781
1.8700000000	3.8386060370
1.8750000000	3.4784250530
1.8800000000	3.1684925129
1.8850000000	2.8895773970
1.8900000000	2.6178759073
1.8950000000	2.3173295147
1.9000000000	1.9268410182
1.9050000000	1.2470590321
1.9100000000	0.2708256614
1.9150000000	-0.6694960910
1.9200000000	0.4630945698
1.9250000000	4.9985132338
1.9300000000	8.6216270765
1.9350000000	8.7034487287
1.9400000000	6.9872327858
1.9450000000	5.2961794154
1.9500000000	4.0975621657
1.9550000000	3.3046969295
1.9600000000	2.7763204971
1.9650000000	2.4242508095
1.9700000000	2.1650584159
1.9750000000	1.9749962984
1.9800000000	1.8307447265
1.9850000000	1.7155809749
1.9900000000	1.6170586796
1.9950000000	1.5246285982
2.0000000000	1.4363928717
2.0050000000	1.3839461285
2.0100000000	1.4192309718
2.0150000000	1.5112248945
2.0200000000	1.5734120682
2.0250000000	1.6004970994
2.0300000000	1.6211964715
2.0350000000	1.6487949522
2.0400000000	1.6897632163
2.0450000000	1.7468536517
2.0500000000	1.8228675576
2.0550000000	1.9205908801
2.0600000000	2.0401822689
2.0650000000	2.1720835441
2.0700000000	2.2925036673
2.0750000000	2.3828609347
2.0800000000	2.4569607198
2.0850000000	2.5448106716
2.0900000000	2.6654934766
2.0950000000	2.8256171990
2.1000000000	3.0302314431
2.1050000000	3.2762426591
2.1100000000	3.5807910976
2.1150000000	3.9561600334
2.1200000000	4.4200196830
2.1250000000	4.9974434606
2.1300000000	5.7239610374
2.1350000000	6.6504070915
2.1400000000	7.8502022616
2.1450000000	9.4306653496
2.1500000000	11.5480771242
2.1550000000	14.4234798837
2.1600000000	18.3396806856
2.1650000000	23.5363406237
2.1700000000	29.9220942683
2.1750000000	36.2896899864
2.1800000000	40.2886593174
2.1850000000	40.6636035669
2.1900000000	39.1456727386
2.1950000000	38.0690223417
2.2000000000	37.6930291383
2.2050000000	35.9215987716
2.2100000000	31.8579188268
2.2150000000	26.7446820467
2.2200000000	22.0937736006
2.2250000000	18.3253842108
2.2300000000	15.2323797401
2.2350000000	12.6444680088
2.2400000000	10.5199447779
2.2450000000	8.8424700657
2.2500000000	7.5424835126
2.2550000000	6.5362852041
2.2600000000	5.7464336215
2.2650000000	5.1031500385
2.2700000000	4.5404130672
2.2750000000	4.0024626246
2.2800000000	3.4764012636
2.2850000000	3.0264674780
2.2900000000	2.7620108942
2.2950000000	2.7319999955
2.3000000000	2.8519259509
2.3050000000	2.9782451870
2.3100000000	3.0229499764
2.3150000000	2.9888187914
2.3200000000	2.9139071129
2.3250000000	2.8373262582
2.3300000000	2.7798405639
2.3350000000	2.7475182951
2.3400000000	2.7358131039
2.3450000000	2.7314822174
2.3500000000	2.7174660581
2.3550000000	2.6828665793
2.3600000000	2.6306988518
2.3650000000	2.5742558720
2.3700000000	2.5270474018
2.3750000000	2.4965795986
2.3800000000	2.4840507993
2.3850000000	2.4864329559
2.3900000000	2.4998612481
2.3950000000	2.5206344968
2.4000000000	2.5505979862
2.4050000000	2.5975781046
2.4100000000	2.6649062833
2.4150000000	2.7571782965
2.4200000000	2.8775619173
2.4250000000	3.0294513926
2.4300000000	3.2170096159
2.4350000000	3.4455725984
2.4400000000	3.7220086503
2.4450000000	4.0551249147
2.4500000000	4.4560837555
2.4550000000	4.9389687721
2.4600000000	5.5210992654
2.4650000000	6.2233529483
2.4700000000	7.0697576030
2.4750000000	8.0845397721
2.4800000000	9.2932719926
2.4850000000	10.7065806318
2.4900000000	12.3112346885
2.4950000000	14.0487051484
2.5000000000	15.7926092161
2.5050000000	17.4089028111
2.5100000000	18.4686287037
2.5150000000	18.7311781213
2.5200000000	18.1563713227
2.5250000000	16.9224880975
2.5300000000	15.3127526211
2.5350000000	13.5840661026
2.5400000000	11.9059384934
2.5450000000	10.3668058518
2.5500000000	9.0022684184
2.5550000000	7.8184347521
2.5600000000	6.7984167802
2.5650000000	5.9385069958
2.5700000000	5.2204528403
2.5750000000	4.6332254708
2.5800000000	4.1683931052
2.5850000000	3.8160044195
2.5900000000	3.5586567824
2.5950000000	3.3713714828
2.6000000000	3.2280388181
2.6050000000	3.1257651290
2.6100000000	3.0350849484
2.6150000000	2.9547821622
2.6200000000	2.8867426235
2.6250000000	2.8328985915
2.6300000000	2.7944888073
2.6350000000	2.7721061510
2.6400000000	2.7660638099
2.6450000000	2.7766793411
2.6500000000	2.8046055769
2.6550000000	2.8499885702
2.6600000000	2.9138250566
2.6650000000	2.9970626847
2.6700000000	3.1008185443
2.6750000000	3.2263983868
2.6800000000	3.3751979351
2.6850000000	3.5486474867
2.6900000000	3.7480122164
2.6950000000	3.9742616217
2.7000000000	4.2277544327
2.7050000000	4.5381551018
2.7100000000	4.8818733549
2.7150000000	5.2547223507
2.7200000000	5.6496614940
2.7250000000	6.0566746432
2.7300000000	6.4627888576
2.7350000000	6.8521182866
2.7400000000	7.2057587970
2.7450000000	7.5048414637
2.7500000000	7.7213500858
2.7550000000	7.8367366648
2.7600000000	7.8369939540
2.7650000000	7.7190352134
2.7700000000	7.4922609310
2.7750000000	7.1769719608
2.7800000000	6.7999622237
2.7850000000	6.3897298396
2.7900000000	5.9718057209
2.7950000000	5.5666529628
2.8000000000	5.1887506557
2.8050000000	4.8048996985
2.8100000000	4.4744656673
2.8150000000	4.1967077743
2.8200000000	3.9672868667
2.8250000000	3.7804339101
2.8300000000	3.6303300261
2.8350000000	3.5120220366
2.8400000000	3.4202419159
2.8450000000	3.3553086877
2.8500000000	3.3133531697
2.8550000000	3.2929112664
2.8600000000	3.2929046887
2.8650000000	3.3124185489
2.8700000000	3.3505609520
2.8750000000	3.4063129264
2.8800000000	3.4784324314
2.8850000000	3.5653438100
2.8900000000	3.6651648125
2.8950000000	3.7756682870
2.9000000000	3.8943996749
2.9050000000	4.0445665137
2.9100000000	4.1946635423
2.9150000000	4.3393298965
2.9200000000	4.4724085555
2.9250000000	4.5867952025
2.9300000000	4.6758711170
2.9350000000	4.7303571724
2.9400000000	4.7458296793
2.9450000000	4.7201268398
2.9500000000	4.6550130966
2.9550000000	4.5560268731
2.9600000000	4.4314072472
2.9650000000	4.2906409975
2.9700000000	4.1430057251
2.9750000000	3.9965024644
2.9800000000	3.8573181417
2.9850000000	3.7297286471
2.9900000000	3.6163680252
2.9950000000	3.5185146634
3.0000000000	3.4365388910
