# energy (eV)    P(omega), $W$ = 400 nm, $h$ = 300 nm, $s$ = 20 nm, $d/W = 5$, $E_{\rm e}$ = 200 keV
0.2000000000	0.0590356369
0.2050000000	0.0595727014
0.2100000000	0.0599509360
0.2150000000	0.0601639707
0.2200000000	0.0602028992
0.2250000000	0.0600556232
0.2300000000	0.0597062260
0.2350000000	0.0591339840
0.2400000000	0.0583122485
0.2450000000	0.0572066731
0.2500000000	0.0557733490
0.2550000000	0.0539557777
0.2600000000	0.0516811546
0.2650000000	0.0540650418
0.2700000000	0.0601202281
0.2750000000	0.0687850877
0.2800000000	0.0808578277
0.2850000000	0.0986563708
0.2900000000	0.1207104084
0.2950000000	0.1523270454
0.3000000000	0.1948293934
0.3050000000	0.2599758824
0.3100000000	0.3507240605
0.3150000000	0.5263183085
0.3200000000	0.8005655548
0.3250000000	0.9883345097
0.3300000000	1.2480815615
0.3350000000	1.6163131406
0.3400000000	2.1943653985
0.3450000000	3.1861226723
0.3500000000	5.1637823882
0.3550000000	9.7418463789
0.3600000000	23.9420388063
0.3650000000	0.1079250978
0.3700000000	11.0966070502
0.3750000000	14.5917385228
0.3800000000	6.7993355539
0.3850000000	3.8301797493
0.3900000000	2.4567562540
0.3950000000	1.7312501356
0.4000000000	1.3111812646
0.4050000000	1.0373246936
0.4100000000	0.8590380356
0.4150000000	0.7414487621
0.4200000000	0.6671313904
0.4250000000	0.6087648180
0.4300000000	0.5397935305
0.4350000000	0.4852068160
0.4400000000	0.4420349304
0.4450000000	0.4077083824
0.4500000000	0.3806080493
0.4550000000	0.3591185875
0.4600000000	0.3423554804
0.4650000000	0.3293831563
0.4700000000	0.3195822613
0.4750000000	0.3125194694
0.4800000000	0.3078166359
0.4850000000	0.3051421825
0.4900000000	0.3043000409
0.4950000000	0.3051393599
0.5000000000	0.3075312719
0.5050000000	0.3114183447
0.5100000000	0.3167535374
0.5150000000	0.3235089166
0.5200000000	0.3316985087
0.5250000000	0.3413338363
0.5300000000	0.3525563422
0.5350000000	0.3654289416
0.5400000000	0.3800648802
0.5450000000	0.3966126505
0.5500000000	0.4152823586
0.5550000000	0.4363038040
0.5600000000	0.4599567105
0.5650000000	0.4866007424
0.5700000000	0.5167324188
0.5750000000	0.5507197493
0.5800000000	0.5892512907
0.5850000000	0.6332678203
0.5900000000	0.6834039651
0.5950000000	0.7409950229
0.6000000000	0.8078051050
0.6050000000	0.8851564658
0.6100000000	0.9760799512
0.6150000000	1.0830890503
0.6200000000	1.2104983635
0.6250000000	1.3644978422
0.6300000000	1.5514004157
0.6350000000	1.7830681813
0.6400000000	2.0725885508
0.6450000000	2.4437100600
0.6500000000	2.9267693829
0.6550000000	3.5731536539
0.6600000000	4.4696289542
0.6650000000	5.7532790305
0.6700000000	7.6970352691
0.6750000000	10.8223084802
0.6800000000	16.3468289397
0.6850000000	27.4321601761
0.6900000000	54.9786752624
0.6950000000	154.3340230496
0.7000000000	748.5362724135
0.7050000000	363.9209495208
0.7100000000	93.4841130295
0.7150000000	39.7549056049
0.7200000000	21.7107715062
0.7250000000	13.6383147129
0.7300000000	9.3540470600
0.7350000000	6.8213975901
0.7400000000	5.1995772205
0.7450000000	4.0987471441
0.7500000000	3.3189380723
0.7550000000	2.7460338395
0.7600000000	2.3142221584
0.7650000000	1.9793576894
0.7700000000	1.7150159488
0.7750000000	1.5027986020
0.7800000000	1.3303433215
0.7850000000	1.1883437618
0.7900000000	1.0693808918
0.7950000000	0.9700249062
0.8000000000	0.8855454052
0.8050000000	0.8131680043
0.8100000000	0.7515530828
0.8150000000	0.6975500970
0.8200000000	0.6505346697
0.8250000000	0.6110805737
0.8300000000	0.5765451716
0.8350000000	0.5465216713
0.8400000000	0.5226126240
0.8450000000	0.5017507566
0.8500000000	0.4840622117
0.8550000000	0.4728819665
0.8600000000	0.4639266224
0.8650000000	0.4575148797
0.8700000000	0.4597489093
0.8750000000	0.4605321627
0.8800000000	0.4580543830
0.8850000000	0.4381381601
0.8900000000	0.3400068628
0.8950000000	-0.1517840815
0.9000000000	-2.7889126144
0.9050000000	-18.3251706407
0.9100000000	3.4894768076
0.9150000000	8.2659525981
0.9200000000	3.4313574111
0.9250000000	1.7850862430
0.9300000000	1.0896518060
0.9350000000	0.7573939338
0.9400000000	0.5781530609
0.9450000000	0.4787989504
0.9500000000	0.4082394444
0.9550000000	0.3610049961
0.9600000000	0.3317889107
0.9650000000	0.3076787848
0.9700000000	0.2904689567
0.9750000000	0.2787316730
0.9800000000	0.2715724453
0.9850000000	0.2702295833
0.9900000000	0.2727782449
0.9950000000	0.2831975158
1.0000000000	0.3081589605
1.0050000000	0.3664797597
1.0100000000	0.5193494090
1.0150000000	1.0433295062
1.0200000000	2.0026428644
1.0250000000	0.9110520480
1.0300000000	0.4671651235
1.0350000000	0.3348664554
1.0400000000	0.2828439733
1.0450000000	0.2584433601
1.0500000000	0.2462189243
1.0550000000	0.2398113178
1.0600000000	0.2369436520
1.0650000000	0.2364202645
1.0700000000	0.2375782540
1.0750000000	0.2401849202
1.0800000000	0.2437761105
1.0850000000	0.2486589855
1.0900000000	0.2557108922
1.0950000000	0.2639303930
1.1000000000	0.2733982035
1.1050000000	0.2841316062
1.1100000000	0.2963004899
1.1150000000	0.3100668520
1.1200000000	0.3256228742
1.1250000000	0.3431275625
1.1300000000	0.3630344751
1.1350000000	0.3856491985
1.1400000000	0.4114295431
1.1450000000	0.4409575311
1.1500000000	0.4746859988
1.1550000000	0.5140253053
1.1600000000	0.5598671289
1.1650000000	0.6133793854
1.1700000000	0.6748048562
1.1750000000	0.7371043228
1.1800000000	0.7960790633
1.1850000000	1.1064439863
1.1900000000	1.3730586853
1.1950000000	1.8821722875
1.2000000000	2.5633202152
1.2050000000	2.2485700197
1.2100000000	2.1520118874
1.2150000000	2.3958551379
1.2200000000	2.8654943780
1.2250000000	3.5866956668
1.2300000000	4.6833274747
1.2350000000	6.4180824984
1.2400000000	9.3402792923
1.2450000000	14.8427623724
1.2500000000	26.7596063342
1.2550000000	57.9263157869
1.2600000000	139.9165915936
1.2650000000	141.7301012063
1.2700000000	58.9570042383
1.2750000000	27.2146908841
1.2800000000	15.0720307988
1.2850000000	9.4782215447
1.2900000000	6.4964791488
1.2950000000	4.7347493918
1.3000000000	3.6126048703
1.3050000000	2.8570687170
1.3100000000	2.3242946817
1.3150000000	1.9393401484
1.3200000000	1.6539745827
1.3250000000	1.4392289611
1.3300000000	1.2775081030
1.3350000000	1.1580159163
1.3400000000	1.0751482239
1.3450000000	1.0273704325
1.3500000000	1.0216598316
1.3550000000	1.0738994364
1.3600000000	1.2244995168
1.3650000000	1.5762906514
1.3700000000	2.4163830132
1.3750000000	4.5065713790
1.3800000000	7.3613101007
1.3850000000	5.1423978220
1.3900000000	2.6205353723
1.3950000000	1.5204772394
1.4000000000	0.9957356439
1.4050000000	0.6732492893
1.4100000000	0.3814044988
1.4150000000	-0.0539214824
1.4200000000	-1.0284961539
1.4250000000	-3.6108215527
1.4300000000	-4.8550327737
1.4350000000	2.2243654140
1.4400000000	2.8452930179
1.4450000000	1.7058906065
1.4500000000	1.0614838903
1.4550000000	0.7317320747
1.4600000000	0.5403396811
1.4650000000	0.3890690168
1.4700000000	0.2272467249
1.4750000000	0.2670851773
1.4800000000	0.3916152753
1.4850000000	0.3555980045
1.4900000000	0.3148688711
1.4950000000	0.2885252511
1.5000000000	0.2712197140
1.5050000000	0.2597769592
1.5100000000	0.2519921169
1.5150000000	0.2477433303
1.5200000000	0.2446102767
1.5250000000	0.2434773541
1.5300000000	0.2444479309
1.5350000000	0.2479674565
1.5400000000	0.2551479034
1.5450000000	0.2684590741
1.5500000000	0.2934522626
1.5550000000	0.3411926757
1.5600000000	0.4128523012
1.5650000000	0.4243394878
1.5700000000	0.3596855347
1.5750000000	0.3143221954
1.5800000000	0.2947613865
1.5850000000	0.2886173639
1.5900000000	0.2894325415
1.5950000000	0.2944027014
1.6000000000	0.3023063082
1.6050000000	0.3127231899
1.6100000000	0.3253394520
1.6150000000	0.3401086502
1.6200000000	0.3572662194
1.6250000000	0.3770152719
1.6300000000	0.3996894242
1.6350000000	0.4257187212
1.6400000000	0.4556530353
1.6450000000	0.4901946351
1.6500000000	0.5302250286
1.6550000000	0.5768613126
1.6600000000	0.6315507962
1.6650000000	0.6961616426
1.6700000000	0.7725103617
1.6750000000	0.8650544120
1.6800000000	0.9777340105
1.6850000000	1.1167477847
1.6900000000	1.2908965969
1.6950000000	1.5130956131
1.7000000000	1.8027871670
1.7050000000	2.2024269172
1.7100000000	2.7599999563
1.7150000000	3.5704524448
1.7200000000	4.8056241133
1.7250000000	6.7651957897
1.7300000000	9.7765133366
1.7350000000	13.6408045020
1.7400000000	18.5254521991
1.7450000000	27.0972769577
1.7500000000	38.2245212489
1.7550000000	38.8393773476
1.7600000000	27.2483547994
1.7650000000	16.9732340790
1.7700000000	10.8805454617
1.7750000000	7.4160105830
1.7800000000	5.3686145886
1.7850000000	4.1092106387
1.7900000000	3.3281888894
1.7950000000	2.8812992299
1.8000000000	2.7009262760
1.8050000000	2.6438227171
1.8100000000	2.3522416661
1.8150000000	1.8226449842
1.8200000000	1.3995375774
1.8250000000	1.1813948893
1.8300000000	1.0285335555
1.8350000000	0.8926778343
1.8400000000	0.7818966757
1.8450000000	0.6939850241
1.8500000000	0.6231378917
1.8550000000	0.5646107463
1.8600000000	0.5107746185
1.8650000000	0.4652625644
1.8700000000	0.4192673779
1.8750000000	0.3529610349
1.8800000000	0.2018065487
1.8850000000	-0.1294925975
1.8900000000	-0.5751164146
1.8950000000	-0.6515839677
1.9000000000	0.0697386057
1.9050000000	0.7422709095
1.9100000000	0.8207451751
1.9150000000	0.6933760765
1.9200000000	0.5685419755
1.9250000000	0.4799576192
1.9300000000	0.4263078400
1.9350000000	0.3853450382
1.9400000000	0.3580898336
1.9450000000	0.3400418581
1.9500000000	0.3274254887
1.9550000000	0.3168789032
1.9600000000	0.3077829985
1.9650000000	0.3013280499
1.9700000000	0.2978830527
1.9750000000	0.2972183839
1.9800000000	0.2991486221
1.9850000000	0.3037302014
1.9900000000	0.3112639180
1.9950000000	0.3221257877
2.0000000000	0.3360335492
2.0050000000	0.3518125873
2.0100000000	0.3631356935
2.0150000000	0.3706945454
2.0200000000	0.3798095940
2.0250000000	0.3938732232
2.0300000000	0.4138842678
2.0350000000	0.4403434297
2.0400000000	0.4741595900
2.0450000000	0.5169092098
2.0500000000	0.5708560282
2.0550000000	0.6385154336
2.0600000000	0.7211071827
2.0650000000	0.8173328931
2.0700000000	0.9286383032
2.0750000000	1.0674400586
2.0800000000	1.2542377633
2.0850000000	1.5090187250
2.0900000000	1.8434067699
2.0950000000	2.2333774153
2.1000000000	2.5809496811
2.1050000000	2.7493692646
2.1100000000	2.6693855488
2.1150000000	2.4853348113
2.1200000000	2.3552448554
2.1250000000	2.3496913381
2.1300000000	2.4896122401
2.1350000000	2.7916027633
2.1400000000	3.2889026281
2.1450000000	4.0403181757
2.1500000000	5.1281978506
2.1550000000	6.6143986420
2.1600000000	8.3790698944
2.1650000000	9.8622505496
2.1700000000	10.2127148247
2.1750000000	9.1420434206
2.1800000000	7.3806239336
2.1850000000	5.6945090852
2.1900000000	4.3762169584
2.1950000000	3.4237919724
2.2000000000	2.7555903107
2.2050000000	2.2945910952
2.2100000000	1.9745670190
2.2150000000	1.7291042937
2.2200000000	1.5091472941
2.2250000000	1.2999258421
2.2300000000	1.1104869767
2.2350000000	0.9478266599
2.2400000000	0.8100593077
2.2450000000	0.6911028711
2.2500000000	0.5849030830
2.2550000000	0.4880736144
2.2600000000	0.3912417855
2.2650000000	0.3207972591
2.2700000000	0.2825295065
2.2750000000	0.2921580554
2.2800000000	0.3477296960
2.2850000000	0.4184949390
2.2900000000	0.4702922228
2.2950000000	0.4932463682
2.3000000000	0.4958667043
2.3050000000	0.4879384656
2.3100000000	0.4774981414
2.3150000000	0.4682496726
2.3200000000	0.4616573274
2.3250000000	0.4585240488
2.3300000000	0.4594986942
2.3350000000	0.4651188563
2.3400000000	0.4758442279
2.3450000000	0.4921403521
2.3500000000	0.5145006551
2.3550000000	0.5436649200
2.3600000000	0.5791544575
2.3650000000	0.6211903262
2.3700000000	0.6696558752
2.3750000000	0.7250773983
2.3800000000	0.7894554427
2.3850000000	0.8651636809
2.3900000000	0.9527268330
2.3950000000	1.0482457928
2.4000000000	1.1416971401
2.4050000000	1.2222312771
2.4100000000	1.2668693561
2.4150000000	1.2711361815
2.4200000000	1.2459452812
2.4250000000	1.2099065790
2.4300000000	1.1795368768
2.4350000000	1.1648067386
2.4400000000	1.1696953429
2.4450000000	1.1948463044
2.4500000000	1.2403407820
2.4550000000	1.3071925759
2.4600000000	1.3996867371
2.4650000000	1.5222157116
2.4700000000	1.6796709961
2.4750000000	1.8751076056
2.4800000000	2.1069834956
2.4850000000	2.3654053694
2.4900000000	2.6277426570
2.4950000000	2.8564411887
2.5000000000	3.0045070690
2.5050000000	3.0235450762
2.5100000000	2.8942311401
2.5150000000	2.6518622575
2.5200000000	2.3528370740
2.5250000000	2.0467033052
2.5300000000	1.7636634642
2.5350000000	1.5164076515
2.5400000000	1.3068041286
2.5450000000	1.1317432453
2.5500000000	0.9867183634
2.5550000000	0.8676803773
2.5600000000	0.7681437490
2.5650000000	0.6936518985
2.5700000000	0.6401265431
2.5750000000	0.6056589576
2.5800000000	0.5864237253
2.5850000000	0.5771889070
2.5900000000	0.5730444925
2.5950000000	0.5709330655
2.6000000000	0.5698688206
2.6050000000	0.5744110523
2.6100000000	0.5816088648
2.6150000000	0.5925644191
2.6200000000	0.6078632665
2.6250000000	0.6275414551
2.6300000000	0.6510435466
2.6350000000	0.6771907101
2.6400000000	0.7041817980
2.6450000000	0.7297327674
2.6500000000	0.7514246756
2.6550000000	0.7672741841
2.6600000000	0.7763599791
2.6650000000	0.7792231201
2.6700000000	0.7777526640
2.6750000000	0.7747100101
2.6800000000	0.7727709557
2.6850000000	0.7744355737
2.6900000000	0.7814449416
2.6950000000	0.7948691034
2.7000000000	0.8152211484
2.7050000000	0.8456835611
2.7100000000	0.8848857891
2.7150000000	0.9321941740
2.7200000000	0.9862988216
2.7250000000	1.0449760436
2.7300000000	1.1048687949
2.7350000000	1.1614510859
2.7400000000	1.2093391107
2.7450000000	1.2430666190
2.7500000000	1.2582276568
2.7550000000	1.2526024860
2.7600000000	1.2267581339
2.7650000000	1.1838439736
2.7700000000	1.1286791724
2.7750000000	1.0666031346
2.7800000000	1.0025116845
2.7850000000	0.9403216092
2.7900000000	0.8823035855
2.7950000000	0.8309423854
2.8000000000	0.7867521320
2.8050000000	0.7458231464
2.8100000000	0.7135529521
2.8150000000	0.6886713408
2.8200000000	0.6697983936
2.8250000000	0.6556678543
2.8300000000	0.6452034808
2.8350000000	0.6375125508
2.8400000000	0.6318407107
2.8450000000	0.6275474930
2.8500000000	0.6241185902
2.8550000000	0.6212125703
2.8600000000	0.6187138022
2.8650000000	0.6167495339
2.8700000000	0.6156575436
2.8750000000	0.6159024398
2.8800000000	0.6179727312
2.8850000000	0.6222880834
2.8900000000	0.6291346270
2.8950000000	0.6386260529
2.9000000000	0.6506843505
2.9050000000	0.6687202237
2.9100000000	0.6884982057
2.9150000000	0.7086978874
2.9200000000	0.7276505627
2.9250000000	0.7435636344
2.9300000000	0.7547727270
2.9350000000	0.7600334237
2.9400000000	0.7587620756
2.9450000000	0.7511472660
2.9500000000	0.7380793117
2.9550000000	0.7209233573
2.9600000000	0.7012316715
2.9650000000	0.6804745988
2.9700000000	0.6598613363
2.9750000000	0.6402615415
2.9800000000	0.6222106240
2.9850000000	0.6059675745
2.9900000000	0.5915926347
2.9950000000	0.5790227698
3.0000000000	0.5681332873
