# energy (eV)    P(omega), $W$ = 300 nm, $h$ = 300 nm, $s$ = 20 nm, $d/W = 5$, $E_{\rm e}$ = 200 keV
0.2000000000	0.0803503529
0.2050000000	0.0815557688
0.2100000000	0.0826842613
0.2150000000	0.0837383228
0.2200000000	0.0847200347
0.2250000000	0.0856311851
0.2300000000	0.0864731138
0.2350000000	0.0872467101
0.2400000000	0.0879522625
0.2450000000	0.0885894673
0.2500000000	0.0891572405
0.2550000000	0.0896535734
0.2600000000	0.0900754818
0.2650000000	0.0904186346
0.2700000000	0.0906771894
0.2750000000	0.0908434097
0.2800000000	0.0909072653
0.2850000000	0.0908558820
0.2900000000	0.0906727554
0.2950000000	0.0903369722
0.3000000000	0.0898218035
0.3050000000	0.0890931994
0.3100000000	0.0881075623
0.3150000000	0.0930968504
0.3200000000	0.0990221683
0.3250000000	0.1065153489
0.3300000000	0.1165484018
0.3350000000	0.1290375128
0.3400000000	0.1453920550
0.3450000000	0.1652315854
0.3500000000	0.1911864856
0.3550000000	0.2255318807
0.3600000000	0.2703813598
0.3650000000	0.3329107120
0.3700000000	0.4153722365
0.3750000000	0.5300923224
0.3800000000	0.6960282168
0.3850000000	0.9546123776
0.3900000000	1.3631664566
0.3950000000	2.0572255059
0.4000000000	3.3804921198
0.4050000000	6.3475464168
0.4100000000	14.4444882533
0.4150000000	46.3635160931
0.4200000000	29.5393304567
0.4250000000	-55.6228343749
0.4300000000	15.4715626631
0.4350000000	9.6431686487
0.4400000000	5.8961673293
0.4450000000	3.8789587205
0.4500000000	2.7175765637
0.4550000000	2.0027976127
0.4600000000	1.5372238071
0.4650000000	1.2199342650
0.4700000000	0.9956629984
0.4750000000	0.8334557217
0.4800000000	0.7131879627
0.4850000000	0.6226888949
0.4900000000	0.5536104954
0.4950000000	0.5003484005
0.5000000000	0.4590719160
0.5050000000	0.4269701236
0.5100000000	0.4022332476
0.5150000000	0.3835293034
0.5200000000	0.3694646866
0.5250000000	0.3594125341
0.5300000000	0.3526990582
0.5350000000	0.3488318937
0.5400000000	0.3474481097
0.5450000000	0.3482443757
0.5500000000	0.3511256993
0.5550000000	0.3559213367
0.5600000000	0.3625446293
0.5650000000	0.3709570294
0.5700000000	0.3811237485
0.5750000000	0.3931160739
0.5800000000	0.4070497253
0.5850000000	0.4230006501
0.5900000000	0.4411149529
0.5950000000	0.4615762114
0.6000000000	0.4846183098
0.6050000000	0.5105794909
0.6100000000	0.5397830414
0.6150000000	0.5726701513
0.6200000000	0.6098292298
0.6250000000	0.6518246057
0.6300000000	0.6994901026
0.6350000000	0.7538649671
0.6400000000	0.8160308125
0.6450000000	0.8875483977
0.6500000000	0.9704700556
0.6550000000	1.0669325894
0.6600000000	1.1802191868
0.6650000000	1.3145439868
0.6700000000	1.4748604215
0.6750000000	1.6687234645
0.6800000000	1.9062905496
0.6850000000	2.2008712185
0.6900000000	2.5730781123
0.6950000000	3.0517421428
0.7000000000	3.6826592043
0.7050000000	4.5358440852
0.7100000000	5.7299295528
0.7150000000	7.4761000949
0.7200000000	10.1675292953
0.7250000000	14.6353473328
0.7300000000	22.8364891586
0.7350000000	40.3854771813
0.7400000000	88.5166592297
0.7450000000	293.6823299378
0.7500000000	909.9214946552
0.7550000000	228.9334870491
0.7600000000	75.8250604885
0.7650000000	36.3346523249
0.7700000000	21.1330224815
0.7750000000	13.7942734292
0.7800000000	9.7085559967
0.7850000000	7.2112457135
0.7900000000	5.5718096596
0.7950000000	4.4410736062
0.8000000000	3.6281899183
0.8050000000	3.0227448443
0.8100000000	2.5610378187
0.8150000000	2.1950147076
0.8200000000	1.9061278322
0.8250000000	1.6735091300
0.8300000000	1.4829503615
0.8350000000	1.3262705184
0.8400000000	1.1949219846
0.8450000000	1.0847006041
0.8500000000	0.9915300823
0.8550000000	0.9111247470
0.8600000000	0.8424847853
0.8650000000	0.7838552755
0.8700000000	0.7320495400
0.8750000000	0.6879835492
0.8800000000	0.6505956237
0.8850000000	0.6170749502
0.8900000000	0.5901930269
0.8950000000	0.5657385964
0.9000000000	0.5463659415
0.9050000000	0.5330400213
0.9100000000	0.5208293178
0.9150000000	0.5134431295
0.9200000000	0.5126032799
0.9250000000	0.5119921710
0.9300000000	0.5045242489
0.9350000000	0.4820043078
0.9400000000	0.3563331727
0.9450000000	-0.2150744840
0.9500000000	-3.2310291950
0.9550000000	-18.5298204911
0.9600000000	4.3724942009
0.9650000000	7.6817407085
0.9700000000	3.4072935015
0.9750000000	1.7887547423
0.9800000000	1.1210073206
0.9850000000	0.8086921118
0.9900000000	0.6287349712
0.9950000000	0.5196108041
1.0000000000	0.4499346173
1.0050000000	0.4057645941
1.0100000000	0.3715191481
1.0150000000	0.3465004860
1.0200000000	0.3296511157
1.0250000000	0.3155060305
1.0300000000	0.3047594291
1.0350000000	0.2966284165
1.0400000000	0.2914590222
1.0450000000	0.2871576080
1.0500000000	0.2843174135
1.0550000000	0.2827705193
1.0600000000	0.2828973183
1.0650000000	0.2836391784
1.0700000000	0.2854274954
1.0750000000	0.2882698828
1.0800000000	0.2924491759
1.0850000000	0.2977522247
1.0900000000	0.3055775502
1.0950000000	0.3148713374
1.1000000000	0.3259462805
1.1050000000	0.3387083447
1.1100000000	0.3535618564
1.1150000000	0.3708404320
1.1200000000	0.3909409330
1.1250000000	0.4143769841
1.1300000000	0.4418425234
1.1350000000	0.4741993873
1.1400000000	0.5124303712
1.1450000000	0.5583241856
1.1500000000	0.6138304799
1.1550000000	0.6817656075
1.1600000000	0.7661030680
1.1650000000	0.8720003531
1.1700000000	1.0091119034
1.1750000000	1.1902611082
1.1800000000	1.4366426952
1.1850000000	1.7830987959
1.1900000000	2.2952989501
1.1950000000	3.0993184120
1.2000000000	4.4630283101
1.2050000000	7.0400854835
1.2100000000	12.7092073393
1.2150000000	28.0335088962
1.2200000000	68.8016905159
1.2250000000	61.8214967775
1.2300000000	24.6659641928
1.2350000000	11.5729247177
1.2400000000	6.6135558745
1.2450000000	4.3366350791
1.2500000000	3.1357101260
1.2550000000	2.4429290075
1.2600000000	2.0217175497
1.2650000000	1.7582871169
1.2700000000	1.6017498035
1.2750000000	1.5191133792
1.2800000000	1.4947216960
1.2850000000	1.5217948618
1.2900000000	1.5999083424
1.2950000000	1.7331538383
1.3000000000	1.9379007564
1.3050000000	2.2351524906
1.3100000000	2.6639835019
1.3150000000	3.2919807893
1.3200000000	4.2406145552
1.3250000000	5.7414234178
1.3300000000	8.3014040652
1.3350000000	13.0961208335
1.3400000000	23.3437830096
1.3450000000	48.7841910102
1.3500000000	103.5392666007
1.3550000000	96.5696369202
1.3600000000	44.5339746595
1.3650000000	21.8812949726
1.3700000000	12.5485726186
1.3750000000	8.0697362700
1.3800000000	5.6276143066
1.3850000000	4.1565118713
1.3900000000	3.2083893078
1.3950000000	2.5615293850
1.4000000000	2.1014394773
1.4050000000	1.7635571324
1.4100000000	1.5088007420
1.4150000000	1.3138517294
1.4200000000	1.1623059123
1.4250000000	1.0499692675
1.4300000000	0.9795622078
1.4350000000	0.9348148627
1.4400000000	0.6467942298
1.4450000000	-0.1537851807
1.4500000000	-1.5430320770
1.4550000000	-0.5124658084
1.4600000000	1.5806718468
1.4650000000	0.9126089428
1.4700000000	-0.5959605711
1.4750000000	-2.9872658716
1.4800000000	-1.3189535364
1.4850000000	2.2529796473
1.4900000000	1.8238660194
1.4950000000	1.1829327864
1.5000000000	0.8325356121
1.5050000000	0.6428682008
1.5100000000	0.5342927818
1.5150000000	0.4677206218
1.5200000000	0.4241087314
1.5250000000	0.3964095807
1.5300000000	0.3745708856
1.5350000000	0.3586844665
1.5400000000	0.3471475688
1.5450000000	0.3390024496
1.5500000000	0.3335818774
1.5550000000	0.3306028781
1.5600000000	0.3306188222
1.5650000000	0.3324628291
1.5700000000	0.3373227950
1.5750000000	0.3461004656
1.5800000000	0.3606030021
1.5850000000	0.3843946287
1.5900000000	0.4250218567
1.5950000000	0.4991761112
1.6000000000	0.6420639769
1.6050000000	0.8766842880
1.6100000000	0.9867298543
1.6150000000	0.7901459092
1.6200000000	0.6076831050
1.6250000000	0.5152006095
1.6300000000	0.4731312688
1.6350000000	0.4562623991
1.6400000000	0.4531727881
1.6450000000	0.4586437329
1.6500000000	0.4701379392
1.6550000000	0.4866343349
1.6600000000	0.5076159637
1.6650000000	0.5330351272
1.6700000000	0.5631188733
1.6750000000	0.5983103029
1.6800000000	0.6392468474
1.6850000000	0.6867768685
1.6900000000	0.7418798881
1.6950000000	0.8051198512
1.7000000000	0.8778833235
1.7050000000	0.9620196111
1.7100000000	1.0640098532
1.7150000000	1.2358517001
1.7200000000	1.4955018503
1.7250000000	1.7755265653
1.7300000000	2.1081511254
1.7350000000	2.4682384783
1.7400000000	2.8012190343
1.7450000000	3.2210472214
1.7500000000	3.8643096939
1.7550000000	4.8288885136
1.7600000000	6.2759449817
1.7650000000	8.5083447206
1.7700000000	12.1045175616
1.7750000000	18.1616621810
1.7800000000	28.4783234553
1.7850000000	43.6817936385
1.7900000000	54.2511425031
1.7950000000	46.1610927177
1.8000000000	30.6932725615
1.8050000000	19.3618587586
1.8100000000	12.7486123515
1.8150000000	8.8732806676
1.8200000000	6.4884846878
1.8250000000	4.9421149780
1.8300000000	3.8915997659
1.8350000000	3.1493007321
1.8400000000	2.6075170844
1.8450000000	2.2008357221
1.8500000000	1.8879874616
1.8550000000	1.6430972757
1.8600000000	1.4479694306
1.8650000000	1.2900967486
1.8700000000	1.1603683214
1.8750000000	1.0517998426
1.8800000000	0.9584505557
1.8850000000	0.8745332331
1.8900000000	0.7928911580
1.8950000000	0.7026819195
1.9000000000	0.5855308034
1.9050000000	0.3814329740
1.9100000000	0.0884169338
1.9150000000	-0.1927775155
1.9200000000	0.1534835761
1.9250000000	1.5288430207
1.9300000000	2.6274911440
1.9350000000	2.6509896512
1.9400000000	2.1273485815
1.9450000000	1.6115546488
1.9500000000	1.2460325840
1.9550000000	1.0042964464
1.9600000000	0.8432305191
1.9650000000	0.7358978074
1.9700000000	0.6569155792
1.9750000000	0.5990006014
1.9800000000	0.5550400107
1.9850000000	0.5199325430
1.9900000000	0.4898788431
1.9950000000	0.4616571466
2.0000000000	0.4346907536
2.0050000000	0.4186371946
2.0100000000	0.4294073852
2.0150000000	0.4575052567
2.0200000000	0.4764497039
2.0250000000	0.4846173565
2.0300000000	0.4907886892
2.0350000000	0.4990270046
2.0400000000	0.5112958778
2.0450000000	0.5284184416
2.0500000000	0.5512261914
2.0550000000	0.5805456298
2.0600000000	0.6164259935
2.0650000000	0.6560349513
2.0700000000	0.6923176273
2.0750000000	0.7197702034
2.0800000000	0.7425053405
2.0850000000	0.7694474534
2.0900000000	0.8062822628
2.0950000000	0.8549939306
2.1000000000	0.9171247530
2.1050000000	0.9917577816
2.1100000000	1.0840914718
2.1150000000	1.1978575756
2.1200000000	1.3384142234
2.1250000000	1.5133631603
2.1300000000	1.7334702684
2.1350000000	2.0141398242
2.1400000000	2.3776168579
2.1450000000	2.8564158318
2.1500000000	3.4978895798
2.1550000000	4.3690117382
2.1600000000	5.5554767753
2.1650000000	7.1299203996
2.1700000000	9.0646973540
2.1750000000	10.9940566960
2.1800000000	12.2058191136
2.1850000000	12.3194534914
2.1900000000	11.8593615755
2.1950000000	11.5328615570
2.2000000000	11.4189320819
2.2050000000	10.8831919318
2.2100000000	9.6540641099
2.2150000000	8.1075697504
2.2200000000	6.7010292206
2.2250000000	5.5609848616
2.2300000000	4.6242076505
2.2350000000	3.8393687603
2.2400000000	3.1945173704
2.2450000000	2.6851985354
2.2500000000	2.2905252089
2.2550000000	1.9851502587
2.2600000000	1.7455669966
2.2650000000	1.5505601026
2.2700000000	1.3800225313
2.2750000000	1.2169317668
2.2800000000	1.0572845728
2.2850000000	0.9205538106
2.2900000000	0.8399765251
2.2950000000	0.8304989438
2.3000000000	0.8665547986
2.3050000000	0.9046141800
2.3100000000	0.9179951087
2.3150000000	0.9075219371
2.3200000000	0.8847224643
2.3250000000	0.8614478751
2.3300000000	0.8439905429
2.3350000000	0.8341831811
2.3400000000	0.8306382053
2.3450000000	0.8293251323
2.3500000000	0.8250541162
2.3550000000	0.8145095592
2.3600000000	0.7986087311
2.3650000000	0.7813961523
2.3700000000	0.7669835483
2.3750000000	0.7576580758
2.3800000000	0.7537910831
2.3850000000	0.7544714895
2.3900000000	0.7585344143
2.3950000000	0.7648608406
2.4000000000	0.7740065292
2.4050000000	0.7883407792
2.4100000000	0.8088621668
2.4150000000	0.8369578406
2.4200000000	0.8735873649
2.4250000000	0.9197805202
2.4300000000	0.9768034939
2.4350000000	1.0462800127
2.4400000000	1.1302986221
2.4450000000	1.2315366194
2.4500000000	1.3533867546
2.4550000000	1.5001319502
2.4600000000	1.6770334736
2.4650000000	1.8904386047
2.4700000000	2.1476448766
2.4750000000	2.4560128422
2.4800000000	2.8233020681
2.4850000000	3.2527287473
2.4900000000	3.7402547339
2.4950000000	4.2680840714
2.5000000000	4.7978273464
2.5050000000	5.2887839919
2.5100000000	5.6107160326
2.5150000000	5.6905651357
2.5200000000	5.5161024391
2.5250000000	5.1414253676
2.5300000000	4.6525212511
2.5350000000	4.1274193587
2.5400000000	3.6176307552
2.5450000000	3.1500442650
2.5500000000	2.7354931165
2.5550000000	2.3758401029
2.5600000000	2.0659559529
2.5650000000	1.8047113390
2.5700000000	1.5865579259
2.5750000000	1.4081441971
2.5800000000	1.2669092669
2.5850000000	1.1598301907
2.5900000000	1.0816218741
2.5950000000	1.0246983960
2.6000000000	0.9811286217
2.6050000000	0.9500365139
2.6100000000	0.9224708937
2.6150000000	0.8980626585
2.6200000000	0.8773853432
2.6250000000	0.8610279955
2.6300000000	0.8493688857
2.6350000000	0.8425907977
2.6400000000	0.8407885336
2.6450000000	0.8440583441
2.6500000000	0.8525980981
2.6550000000	0.8664511520
2.6600000000	0.8859211234
2.6650000000	0.9112972193
2.6700000000	0.9429190814
2.6750000000	0.9811850282
2.6800000000	1.0265213373
2.6850000000	1.0793615663
2.6900000000	1.1400897476
2.6950000000	1.2089995674
2.7000000000	1.2861966747
2.7050000000	1.3807115912
2.7100000000	1.4853534301
2.7150000000	1.5988427886
2.7200000000	1.7190307025
2.7250000000	1.8428636740
2.7300000000	1.9663921469
2.7350000000	2.0847857838
2.7400000000	2.1923013718
2.7450000000	2.2832102622
2.7500000000	2.3490027692
2.7550000000	2.3840463599
2.7600000000	2.3840873605
2.7650000000	2.3481880364
2.7700000000	2.2792058801
2.7750000000	2.1833114419
2.7800000000	2.0686499636
2.7850000000	1.9438856487
2.7900000000	1.8167812536
2.7950000000	1.6935599375
2.8000000000	1.5786255776
2.8050000000	1.4618753480
2.8100000000	1.3613720284
2.8150000000	1.2768920522
2.8200000000	1.2071171183
2.8250000000	1.1502935816
2.8300000000	1.1046523131
2.8350000000	1.0686883928
2.8400000000	1.0407993826
2.8450000000	1.0210848453
2.8500000000	1.0083663888
2.8550000000	1.0021994559
2.8600000000	1.0022558576
2.8650000000	1.0082551582
2.8700000000	1.0199260708
2.8750000000	1.0369580534
2.8800000000	1.0589697852
2.8850000000	1.0854802027
2.8900000000	1.1159171635
2.8950000000	1.1495978609
2.9000000000	1.1857766893
2.9050000000	1.2315115453
2.9100000000	1.2772130005
2.9150000000	1.3212499770
2.9200000000	1.3617522501
2.9250000000	1.3965597209
2.9300000000	1.4236625415
2.9350000000	1.4402363099
2.9400000000	1.4449383909
2.9450000000	1.4371115100
2.9500000000	1.4172909610
2.9550000000	1.3871639583
2.9600000000	1.3492377449
2.9650000000	1.3063980243
2.9700000000	1.2614705471
2.9750000000	1.2168895651
2.9800000000	1.1745380006
2.9850000000	1.1357173057
2.9900000000	1.1012307838
2.9950000000	1.0714660741
3.0000000000	1.0465364325
