# energy (eV)    P(omega), $W$ = 400 nm, $h$ = 300 nm, $s$ = 20 nm, $d/W = 5$, $E_{\rm e}$ = 200 keV
0.2000000000	0.1201096061
0.2050000000	0.1212032868
0.2100000000	0.1219771485
0.2150000000	0.1224181481
0.2200000000	0.1225081036
0.2250000000	0.1222223481
0.2300000000	0.1215285093
0.2350000000	0.1203844532
0.2400000000	0.1187360874
0.2450000000	0.1165136509
0.2500000000	0.1136280583
0.2550000000	0.1099646519
0.2600000000	0.1053757633
0.2650000000	0.1102055323
0.2700000000	0.1224635081
0.2750000000	0.1400067594
0.2800000000	0.1644540302
0.2850000000	0.2005012912
0.2900000000	0.2451793145
0.2950000000	0.3092397970
0.3000000000	0.3953744353
0.3050000000	0.5274167498
0.3100000000	0.7113867928
0.3150000000	1.0673812475
0.3200000000	1.6234843252
0.3250000000	2.0044796981
0.3300000000	2.5315881055
0.3350000000	3.2789391220
0.3400000000	4.4522338777
0.3450000000	6.4654061775
0.3500000000	10.4801789147
0.3550000000	19.7748317805
0.3600000000	48.6077427025
0.3650000000	0.2106389487
0.3700000000	22.5390873992
0.3750000000	29.6424004355
0.3800000000	13.8154119154
0.3850000000	7.7841728798
0.3900000000	4.9940759411
0.3950000000	3.5201044016
0.4000000000	2.6666287233
0.4050000000	2.1101843380
0.4100000000	1.7479272657
0.4150000000	1.5090207386
0.4200000000	1.3580762578
0.4250000000	1.2395388293
0.4300000000	1.0993681671
0.4350000000	0.9884311571
0.4400000000	0.9006964608
0.4450000000	0.8309442229
0.4500000000	0.7758860550
0.4550000000	0.7322390783
0.4600000000	0.6982069988
0.4650000000	0.6718883792
0.4700000000	0.6520246377
0.4750000000	0.6377358528
0.4800000000	0.6282538907
0.4850000000	0.6229049894
0.4900000000	0.6212913988
0.4950000000	0.6231069557
0.5000000000	0.6280909039
0.5050000000	0.6361273081
0.5100000000	0.6471216034
0.5150000000	0.6610182854
0.5200000000	0.6778471994
0.5250000000	0.6976333642
0.5300000000	0.7206669033
0.5350000000	0.7470779088
0.5400000000	0.7770993332
0.5450000000	0.8110357720
0.5500000000	0.8493187524
0.5550000000	0.8924194610
0.5600000000	0.9409120061
0.5650000000	0.9955338010
0.5700000000	1.0573030505
0.5750000000	1.1269749527
0.5800000000	1.2059612529
0.5850000000	1.2961903639
0.5900000000	1.3989651583
0.5950000000	1.5170230344
0.6000000000	1.6539805143
0.6050000000	1.8125515599
0.6100000000	1.9989489138
0.6150000000	2.2183292308
0.6200000000	2.4795401960
0.6250000000	2.7952742095
0.6300000000	3.1784826622
0.6350000000	3.6534887722
0.6400000000	4.2471391755
0.6450000000	5.0081368363
0.6500000000	5.9987098232
0.6550000000	7.3242560411
0.6600000000	9.1627399169
0.6650000000	11.7953599329
0.6700000000	15.7819529520
0.6750000000	22.1921014065
0.6800000000	33.5237811719
0.6850000000	56.2626397247
0.6900000000	112.7703139596
0.6950000000	316.5938055480
0.7000000000	1535.6539750021
0.7050000000	746.6675180987
0.7100000000	191.8215232285
0.7150000000	81.5810713524
0.7200000000	44.5566811573
0.7250000000	27.9921941757
0.7300000000	19.2005729894
0.7350000000	14.0031650576
0.7400000000	10.6747778426
0.7450000000	8.4154947600
0.7500000000	6.8149880924
0.7550000000	5.6390908959
0.7600000000	4.7527525019
0.7650000000	4.0653803203
0.7700000000	3.5227472742
0.7750000000	3.0870977897
0.7800000000	2.7330613055
0.7850000000	2.4415371080
0.7900000000	2.1972982906
0.7950000000	1.9933085616
0.8000000000	1.8198571655
0.8050000000	1.6712490316
0.8100000000	1.5447374619
0.8150000000	1.4338515982
0.8200000000	1.3373114515
0.8250000000	1.2563011358
0.8300000000	1.1853905918
0.8350000000	1.1237455138
0.8400000000	1.0746652379
0.8450000000	1.0318432545
0.8500000000	0.9955402957
0.8550000000	0.9726212425
0.8600000000	0.9542745006
0.8650000000	0.9411564522
0.8700000000	0.9458291693
0.8750000000	0.9475112755
0.8800000000	0.9424709497
0.8850000000	0.9015066529
0.8900000000	0.6994257466
0.8950000000	-0.3135587400
0.9000000000	-5.7460302405
0.9050000000	-37.7530338899
0.9100000000	7.1891523757
0.9150000000	17.0311853721
0.9200000000	7.0700814227
0.9250000000	3.6779076693
0.9300000000	2.2448317054
0.9350000000	1.5600752388
0.9400000000	1.1906105818
0.9450000000	0.9857537643
0.9500000000	0.8401979346
0.9550000000	0.7426733756
0.9600000000	0.6822385189
0.9650000000	0.6322511815
0.9700000000	0.5963889434
0.9750000000	0.5716641451
0.9800000000	0.5561611637
0.9850000000	0.5523100677
0.9900000000	0.5558993661
0.9950000000	0.5746584348
1.0000000000	0.6212216495
1.0050000000	0.7313772944
1.0100000000	1.0209676624
1.0150000000	2.0151743434
1.0200000000	3.8371341886
1.0250000000	1.7654603793
1.0300000000	0.9225124237
1.0350000000	0.6712613618
1.0400000000	0.5725659146
1.0450000000	0.5264309583
1.0500000000	0.5035590661
1.0550000000	0.4917826013
1.0600000000	0.4868228602
1.0650000000	0.4864127140
1.0700000000	0.4892951735
1.0750000000	0.4950525015
1.0800000000	0.5027650228
1.0850000000	0.5130933350
1.0900000000	0.5278676477
1.0950000000	0.5450260926
1.1000000000	0.5647427429
1.1050000000	0.5870618506
1.1100000000	0.6123376503
1.1150000000	0.6409093156
1.1200000000	0.6731765816
1.1250000000	0.7094687603
1.1300000000	0.7507290316
1.1350000000	0.7975875141
1.1400000000	0.8509949247
1.1450000000	0.9121548527
1.1500000000	0.9820005065
1.1550000000	1.0634531390
1.1600000000	1.1583513647
1.1650000000	1.2690973383
1.1700000000	1.3961788673
1.1750000000	1.5249709616
1.1800000000	1.6470439274
1.1850000000	2.2913330062
1.1900000000	2.8418287700
1.1950000000	3.8918543550
1.2000000000	5.2973462333
1.2050000000	4.6508976902
1.2100000000	4.4549161015
1.2150000000	4.9616562223
1.2200000000	5.9354059657
1.2250000000	7.4300990298
1.2300000000	9.7026237098
1.2350000000	13.2974268919
1.2400000000	19.3529179958
1.2450000000	30.7555780952
1.2500000000	55.4511727711
1.2550000000	120.0406341873
1.2600000000	289.9632689422
1.2650000000	293.7363945866
1.2700000000	122.1950543444
1.2750000000	56.4085865855
1.2800000000	31.2419966416
1.2850000000	19.6481079072
1.2900000000	13.4679537074
1.2950000000	9.8164314789
1.3000000000	7.4905670107
1.3050000000	5.9245921285
1.3100000000	4.8203722193
1.3150000000	4.0225844320
1.3200000000	3.4312763184
1.3250000000	2.9864222192
1.3300000000	2.6515823826
1.3350000000	2.4044239760
1.3400000000	2.2334013109
1.3450000000	2.1354617725
1.3500000000	2.1252965430
1.3550000000	2.2362771962
1.3600000000	2.5531476938
1.3650000000	3.2914310491
1.3700000000	5.0527996370
1.3750000000	9.4336224429
1.3800000000	15.4164778527
1.3850000000	10.7675171761
1.3900000000	5.4837243584
1.3950000000	3.1793958539
1.4000000000	2.0808937554
1.4050000000	1.4068214838
1.4100000000	0.7984608818
1.4150000000	-0.1065540186
1.4200000000	-2.1299664685
1.4250000000	-7.4893965564
1.4300000000	-10.0722890364
1.4350000000	4.6184284104
1.4400000000	5.9069602026
1.4450000000	3.5421649244
1.4500000000	2.2045641638
1.4550000000	1.5199275179
1.4600000000	1.1222646737
1.4650000000	0.8072867029
1.4700000000	0.4693975436
1.4750000000	0.5536289264
1.4800000000	0.8149961786
1.4850000000	0.7399453840
1.4900000000	0.6549189332
1.4950000000	0.5999467563
1.5000000000	0.5638464731
1.5050000000	0.5399670001
1.5100000000	0.5237040510
1.5150000000	0.5147868578
1.5200000000	0.5081748963
1.5250000000	0.5056893199
1.5300000000	0.5075217845
1.5350000000	0.5145574719
1.5400000000	0.5290302759
1.5450000000	0.5559113104
1.5500000000	0.6063782485
1.5550000000	0.7027079188
1.5600000000	0.8472316665
1.5650000000	0.8705065403
1.5700000000	0.7405337092
1.5750000000	0.6495420177
1.5800000000	0.6105966208
1.5850000000	0.5987406275
1.5900000000	0.6009714392
1.5950000000	0.6116481941
1.6000000000	0.6283201787
1.6050000000	0.6501572308
1.6100000000	0.6765338820
1.6150000000	0.7073681399
1.6200000000	0.7431575754
1.6250000000	0.7843317307
1.6300000000	0.8315890486
1.6350000000	0.8858278829
1.6400000000	0.9481954716
1.6450000000	1.0201561622
1.6500000000	1.1035478179
1.6550000000	1.2006987299
1.6600000000	1.3146253552
1.6650000000	1.4492212019
1.6700000000	1.6082754171
1.6750000000	1.8010733649
1.6800000000	2.0358315031
1.6850000000	2.3254731329
1.6900000000	2.6883472074
1.6950000000	3.1513878904
1.7000000000	3.7551471381
1.7050000000	4.5881735565
1.7100000000	5.7506197118
1.7150000000	7.4406709937
1.7200000000	10.0171003731
1.7250000000	14.1055451651
1.7300000000	20.3879005926
1.7350000000	28.4394239551
1.7400000000	38.5956144311
1.7450000000	56.4219906041
1.7500000000	79.5735098702
1.7550000000	80.8506287426
1.7600000000	56.7241478563
1.7650000000	35.3362835205
1.7700000000	22.6538004294
1.7750000000	15.4418559902
1.7800000000	11.1798871665
1.7850000000	8.5584102795
1.7900000000	6.9330982553
1.7950000000	6.0039132784
1.8000000000	5.6303383716
1.8050000000	5.5135076962
1.8100000000	4.9059706251
1.8150000000	3.8005044929
1.8200000000	2.9174176968
1.8250000000	2.4627313205
1.8300000000	2.1441939554
1.8350000000	1.8609176407
1.8400000000	1.6299095051
1.8450000000	1.4466230749
1.8500000000	1.2989518449
1.8550000000	1.1769985097
1.8600000000	1.0648706517
1.8650000000	0.9701416937
1.8700000000	0.8744864935
1.8750000000	0.7365991132
1.8800000000	0.4219151366
1.8850000000	-0.2683126630
1.8900000000	-1.1969440875
1.8950000000	-1.3565827695
1.9000000000	0.1458945098
1.9050000000	1.5468847495
1.9100000000	1.7103177344
1.9150000000	1.4448960075
1.9200000000	1.1847331808
1.9250000000	1.0000635480
1.9300000000	0.8881331256
1.9350000000	0.8025624008
1.9400000000	0.7454483086
1.9450000000	0.7074265015
1.9500000000	0.6808105942
1.9550000000	0.6588949277
1.9600000000	0.6403310377
1.9650000000	0.6272849088
1.9700000000	0.6203900624
1.9750000000	0.6191727478
1.9800000000	0.6232721183
1.9850000000	0.6328182398
1.9900000000	0.6484345817
1.9950000000	0.6708932109
2.0000000000	0.6996203086
2.0050000000	0.7322900996
2.0100000000	0.7559468794
2.0150000000	0.7720553910
2.0200000000	0.7914952162
2.0250000000	0.8212041946
2.0300000000	0.8632507679
2.0350000000	0.9187044192
2.0400000000	0.9894894475
2.0450000000	1.0789182623
2.0500000000	1.1917327148
2.0550000000	1.3331940716
2.0600000000	1.5058559150
2.0650000000	1.7070256319
2.0700000000	1.9397531068
2.0750000000	2.2300087773
2.0800000000	2.6206573784
2.0850000000	3.1535019186
2.0900000000	3.8528451108
2.0950000000	4.6684105027
2.1000000000	5.3951720458
2.1050000000	5.7469793709
2.1100000000	5.5789045472
2.1150000000	5.1929084634
2.1200000000	4.9195738197
2.1250000000	4.9064793992
2.1300000000	5.1972993317
2.1350000000	5.8265624527
2.1400000000	6.8635369909
2.1450000000	8.4308704522
2.1500000000	10.7003890181
2.1550000000	13.8012327119
2.1600000000	17.4833985630
2.1650000000	20.5784755731
2.1700000000	21.3102047075
2.1750000000	19.0765924301
2.1800000000	15.4015097698
2.1850000000	11.8833937859
2.1900000000	9.1326817347
2.1950000000	7.1453477406
2.2000000000	5.7510722411
2.2050000000	4.7891627892
2.2100000000	4.1214240714
2.2150000000	3.6092450639
2.2200000000	3.1502344815
2.2250000000	2.7135743182
2.2300000000	2.3181717078
2.2350000000	1.9786481653
2.2400000000	1.6910781969
2.2450000000	1.4427683387
2.2500000000	1.2210800850
2.2550000000	1.0189408692
2.2600000000	0.8167781391
2.2650000000	0.6696759742
2.2700000000	0.5897271441
2.2750000000	0.6097616685
2.2800000000	0.7257128830
2.2850000000	0.8733844477
2.2900000000	0.9814469911
2.2950000000	1.0292740904
2.3000000000	1.0346324850
2.3050000000	1.0179590038
2.3100000000	0.9960796658
2.3150000000	0.9767701854
2.3200000000	0.9631014157
2.3250000000	0.9567248180
2.3300000000	0.9589541110
2.3350000000	0.9708818721
2.3400000000	0.9934551709
2.3450000000	1.0276450505
2.3500000000	1.0744863019
2.3550000000	1.1355305389
2.3600000000	1.2097844109
2.3650000000	1.2977171921
2.3700000000	1.3990925683
2.3750000000	1.5150167582
2.3800000000	1.6496736294
2.3850000000	1.8080222810
2.3900000000	1.9911529909
2.3950000000	2.1909043698
2.4000000000	2.3863073695
2.4050000000	2.5546565310
2.4100000000	2.6478978913
2.4150000000	2.6566740173
2.4200000000	2.6038219829
2.4250000000	2.5282670813
2.4300000000	2.4645562127
2.4350000000	2.4335464041
2.4400000000	2.4435704305
2.4450000000	2.4959864130
2.4500000000	2.5909745659
2.4550000000	2.7306445979
2.4600000000	2.9239369871
2.4650000000	3.1800096277
2.4700000000	3.5090725288
2.4750000000	3.9175054432
2.4800000000	4.4020909351
2.4850000000	4.9421632917
2.4900000000	5.4904393754
2.4950000000	5.9684495809
2.5000000000	6.2779838292
2.5050000000	6.3179037654
2.5100000000	6.0478081786
2.5150000000	5.5414400629
2.5200000000	4.9166499756
2.5250000000	4.2769758488
2.5300000000	3.6855375993
2.5350000000	3.1688581224
2.5400000000	2.7308448709
2.5450000000	2.3650055768
2.5500000000	2.0619232809
2.5550000000	1.8131383521
2.5600000000	1.6050985322
2.5650000000	1.4493923300
2.5700000000	1.3374984262
2.5750000000	1.2654307950
2.5800000000	1.2251982103
2.5850000000	1.2058695621
2.5900000000	1.1971869864
2.5950000000	1.1927632338
2.6000000000	1.1905392442
2.6050000000	1.2000455604
2.6100000000	1.2151067367
2.6150000000	1.2380205004
2.6200000000	1.2700070195
2.6250000000	1.3111400908
2.6300000000	1.3602594868
2.6350000000	1.4149041676
2.6400000000	1.4713145807
2.6450000000	1.5247219805
2.6500000000	1.5700753440
2.6550000000	1.6032314098
2.6600000000	1.6222641864
2.6650000000	1.6283012526
2.6700000000	1.6252873361
2.6750000000	1.6189903180
2.6800000000	1.6150003873
2.6850000000	1.6185424603
2.6900000000	1.6332552215
2.6950000000	1.6613760174
2.7000000000	1.7039782499
2.7050000000	1.7677207280
2.7100000000	1.8497343660
2.7150000000	1.9486952387
2.7200000000	2.0618658372
2.7250000000	2.1845965420
2.7300000000	2.3098686586
2.7350000000	2.4282197968
2.7400000000	2.5283888606
2.7450000000	2.5989453592
2.7500000000	2.6306739962
2.7550000000	2.6189331072
2.7600000000	2.5649034435
2.7650000000	2.4751710106
2.7700000000	2.3598120540
2.7750000000	2.2299934230
2.7800000000	2.0959498911
2.7850000000	1.9658759612
2.7900000000	1.8445210475
2.7950000000	1.7370826274
2.8000000000	1.6446383040
2.8050000000	1.5590077227
2.8100000000	1.4914882793
2.8150000000	1.4394264281
2.8200000000	1.3999384114
2.8250000000	1.3703779302
2.8300000000	1.3484945813
2.8350000000	1.3324209859
2.8400000000	1.3205783991
2.8450000000	1.3116257676
2.8500000000	1.3044858869
2.8550000000	1.2984433773
2.8600000000	1.2932552564
2.8650000000	1.2891865645
2.8700000000	1.2869427373
2.8750000000	1.2874949409
2.8800000000	1.2918638888
2.8850000000	1.3009272684
2.8900000000	1.3152827234
2.8950000000	1.3351683995
2.9000000000	1.3604205466
2.9050000000	1.3981756020
2.9100000000	1.4395706087
2.9150000000	1.4818433453
2.9200000000	1.5215032359
2.9250000000	1.5548002696
2.9300000000	1.5782526297
2.9350000000	1.5892572323
2.9400000000	1.5865933280
2.9450000000	1.5706558954
2.9500000000	1.5433082018
2.9550000000	1.5074069431
2.9600000000	1.4662008057
2.9650000000	1.4227668971
2.9700000000	1.3796358557
2.9750000000	1.3386280553
2.9800000000	1.3008639551
2.9850000000	1.2668856846
2.9900000000	1.2368193030
2.9950000000	1.2105326231
3.0000000000	1.1877641538
