# energy (eV)    P(omega), $W$ = 300 nm, $h$ = 300 nm, $s$ = 20 nm, $d/W = 5$, $E_{\rm e}$ = 200 keV
0.2000000000	0.2601924905
0.2050000000	0.2641563636
0.2100000000	0.2678402954
0.2150000000	0.2712536116
0.2200000000	0.2744047186
0.2250000000	0.2773005576
0.2300000000	0.2799466556
0.2350000000	0.2823468884
0.2400000000	0.2845031906
0.2450000000	0.2864152795
0.2500000000	0.2880803622
0.2550000000	0.2894924223
0.2600000000	0.2906421219
0.2650000000	0.2915155862
0.2700000000	0.2920939325
0.2750000000	0.2923519216
0.2800000000	0.2922566096
0.2850000000	0.2917655032
0.2900000000	0.2908242298
0.2950000000	0.2893635325
0.3000000000	0.2872950028
0.3050000000	0.2845059919
0.3100000000	0.2808522031
0.3150000000	0.2973921517
0.3200000000	0.3170344349
0.3250000000	0.3418949949
0.3300000000	0.3752191835
0.3350000000	0.4166870050
0.3400000000	0.4709877779
0.3450000000	0.5367912812
0.3500000000	0.6228378497
0.3550000000	0.7366341581
0.3600000000	0.8851035182
0.3650000000	1.0919799158
0.3700000000	1.3644874974
0.3750000000	1.7432561896
0.3800000000	2.2906519480
0.3850000000	3.1430466340
0.3900000000	4.4885795339
0.3950000000	6.7723635091
0.4000000000	11.1229850535
0.4050000000	20.8701494399
0.4100000000	47.4463443057
0.4150000000	152.1207878362
0.4200000000	96.9880095627
0.4250000000	-182.0542280027
0.4300000000	50.5259554318
0.4350000000	31.4448788195
0.4400000000	19.1938862572
0.4450000000	12.6042345580
0.4500000000	8.8133490788
0.4550000000	6.4819519338
0.4600000000	4.9644273099
0.4650000000	3.9308832496
0.4700000000	3.2007306309
0.4750000000	2.6728456492
0.4800000000	2.2815407365
0.4850000000	1.9870921584
0.4900000000	1.7622725021
0.4950000000	1.5888121065
0.5000000000	1.4542202613
0.5050000000	1.3493429660
0.5100000000	1.2682752616
0.5150000000	1.2066658274
0.5200000000	1.1599949070
0.5250000000	1.1262013938
0.5300000000	1.1030936894
0.5350000000	1.0890623429
0.5400000000	1.0829189536
0.5450000000	1.0836712759
0.5500000000	1.0909858295
0.5550000000	1.1042971161
0.5600000000	1.1233037132
0.5650000000	1.1478617619
0.5700000000	1.1778324313
0.5750000000	1.2134204931
0.5800000000	1.2549574916
0.5850000000	1.3026552869
0.5900000000	1.3569391044
0.5950000000	1.4183533738
0.6000000000	1.4875891429
0.6050000000	1.5656657121
0.6100000000	1.6535428084
0.6150000000	1.7525423340
0.6200000000	1.8644286995
0.6250000000	1.9908919289
0.6300000000	2.1344350176
0.6350000000	2.2981765746
0.6400000000	2.4853574269
0.6450000000	2.7006634648
0.6500000000	2.9502507127
0.6550000000	3.2405239530
0.6600000000	3.5813361177
0.6650000000	3.9853155140
0.6700000000	4.4673070737
0.6750000000	5.0499580720
0.6800000000	5.7637107545
0.6850000000	6.6484296346
0.6900000000	7.7658511905
0.6950000000	9.2023026920
0.7000000000	11.0948897599
0.7050000000	13.6531559523
0.7100000000	17.2320817293
0.7150000000	22.4634840495
0.7200000000	30.5232860958
0.7250000000	43.8967497087
0.7300000000	68.4340690224
0.7350000000	120.9152456705
0.7400000000	264.7851893336
0.7450000000	877.7254738018
0.7500000000	2717.0447042794
0.7550000000	682.9890840835
0.7600000000	226.0100223150
0.7650000000	108.2047201508
0.7700000000	62.8776306309
0.7750000000	41.0055493344
0.7800000000	28.8341278179
0.7850000000	21.3978581146
0.7900000000	16.5182185283
0.7950000000	13.1541172774
0.8000000000	10.7366828091
0.8050000000	8.9368995889
0.8100000000	7.5649639871
0.8150000000	6.4778788019
0.8200000000	5.6202009228
0.8250000000	4.9298318886
0.8300000000	4.3645070965
0.8350000000	3.8998210936
0.8400000000	3.5103918572
0.8450000000	3.1836849446
0.8500000000	2.9075575600
0.8550000000	2.6693414531
0.8600000000	2.4659937186
0.8650000000	2.2922761910
0.8700000000	2.1388255831
0.8750000000	2.0082332455
0.8800000000	1.8973368086
0.8850000000	1.7979215499
0.8900000000	1.7179790784
0.8950000000	1.6452613007
0.9000000000	1.5874134997
0.9050000000	1.5471699012
0.9100000000	1.5102632951
0.9150000000	1.4873715663
0.9200000000	1.4834095294
0.9250000000	1.4801991476
0.9300000000	1.4574860952
0.9350000000	1.3920300861
0.9400000000	1.0323612684
0.9450000000	-0.5979022608
0.9500000000	-9.1920160926
0.9550000000	-52.7488393067
0.9600000000	12.4409380085
0.9650000000	21.8361703610
0.9700000000	9.6805685332
0.9750000000	5.0814260469
0.9800000000	3.1851084328
0.9850000000	2.2984329360
0.9900000000	1.7877931926
0.9950000000	1.4782462688
1.0000000000	1.2806258729
1.0050000000	1.1552813913
1.0100000000	1.0582039118
1.0150000000	0.9873124637
1.0200000000	0.9395334256
1.0250000000	0.8995200456
1.0300000000	0.8691750815
1.0350000000	0.8462841233
1.0400000000	0.8317785618
1.0450000000	0.8198314378
1.0500000000	0.8120827792
1.0550000000	0.8080603443
1.0600000000	0.8088071763
1.0650000000	0.8114166784
1.0700000000	0.8170820256
1.0750000000	0.8258280527
1.0800000000	0.8384422612
1.0850000000	0.8544383935
1.0900000000	0.8778816259
1.0950000000	0.9056863128
1.1000000000	0.9387559008
1.1050000000	0.9769342040
1.1100000000	1.0213919926
1.1150000000	1.0731392576
1.1200000000	1.1333359213
1.1250000000	1.2036599554
1.1300000000	1.2861691388
1.1350000000	1.3834897238
1.1400000000	1.4985704407
1.1450000000	1.6369694332
1.1500000000	1.8045868858
1.1550000000	2.0100178915
1.1600000000	2.2653896702
1.1650000000	2.5863959100
1.1700000000	3.0026297115
1.1750000000	3.5532049206
1.1800000000	4.3028437270
1.1850000000	5.3579731002
1.1900000000	6.9189418733
1.1950000000	9.3709303881
1.2000000000	13.5315038798
1.2050000000	21.3954409918
1.2100000000	38.6945676185
1.2150000000	85.4414907129
1.2200000000	209.7211861691
1.2250000000	188.2420640986
1.2300000000	74.9173940375
1.2350000000	35.0025125601
1.2400000000	19.8812242215
1.2450000000	12.9304911589
1.2500000000	9.2541131370
1.2550000000	7.1212862947
1.2600000000	5.8106627578
1.2650000000	4.9749526579
1.2700000000	4.4573224480
1.2750000000	4.1558321412
1.2800000000	4.0203476718
1.2850000000	4.0268658384
1.2900000000	4.1692223644
1.2950000000	4.4536820682
1.3000000000	4.9184636975
1.3050000000	5.6119224957
1.3100000000	6.6272766637
1.3150000000	8.1266030538
1.3200000000	10.4024789283
1.3250000000	14.0116757261
1.3300000000	20.1775683575
1.3350000000	31.7326523291
1.3400000000	56.4312031979
1.3450000000	117.7315471411
1.3500000000	249.5884290873
1.3550000000	232.6193365715
1.3600000000	107.2322574398
1.3650000000	52.6817365669
1.3700000000	30.2149962517
1.3750000000	19.4351722977
1.3800000000	13.5577995527
1.3850000000	10.0169235602
1.3900000000	7.7337648254
1.3950000000	6.1752227053
1.4000000000	5.0649912169
1.4050000000	4.2474784062
1.4100000000	3.6276064780
1.4150000000	3.1471385064
1.4200000000	2.7627242573
1.4250000000	2.4547180038
1.4300000000	2.2052990660
1.4350000000	1.9513803310
1.4400000000	1.1493386776
1.4450000000	-0.9269870279
1.4500000000	-4.7262720630
1.4550000000	-1.7169795973
1.4600000000	4.3105799220
1.4650000000	2.6235491329
1.4700000000	-1.1177056015
1.4750000000	-6.8361862885
1.4800000000	-2.9796271335
1.4850000000	5.3671899156
1.4900000000	4.3420881498
1.4950000000	2.8292022137
1.5000000000	2.0011029779
1.5050000000	1.5512433748
1.5100000000	1.2933394174
1.5150000000	1.1345930942
1.5200000000	1.0301696251
1.5250000000	0.9636999442
1.5300000000	0.9108870619
1.5350000000	0.8722283459
1.5400000000	0.8439106458
1.5450000000	0.8236038195
1.5500000000	0.8097799958
1.5550000000	0.8016647855
1.5600000000	0.8005547804
1.5650000000	0.8034656524
1.5700000000	0.8131061887
1.5750000000	0.8313140363
1.5800000000	0.8618196957
1.5850000000	0.9119710688
1.5900000000	0.9972658530
1.5950000000	1.1517583412
1.6000000000	1.4464093857
1.6050000000	1.9233580244
1.6100000000	2.1349035600
1.6150000000	1.7252020442
1.6200000000	1.3548323958
1.6250000000	1.1712443954
1.6300000000	1.0910928573
1.6350000000	1.0625430856
1.6400000000	1.0623866335
1.6450000000	1.0801279687
1.6500000000	1.1108138410
1.6550000000	1.1523769912
1.6600000000	1.2040202951
1.6650000000	1.2658429293
1.6700000000	1.3385500499
1.6750000000	1.4233654762
1.6800000000	1.5220246846
1.6850000000	1.6368377445
1.6900000000	1.7707690856
1.6950000000	1.9266421797
1.7000000000	2.1104115427
1.7050000000	2.3329445402
1.7100000000	2.6070621828
1.7150000000	2.9958410840
1.7200000000	3.5342223522
1.7250000000	4.1873550470
1.7300000000	5.0079017353
1.7350000000	5.8846941148
1.7400000000	6.6585746471
1.7450000000	7.6208336301
1.7500000000	9.1138219919
1.7550000000	11.3676532270
1.7600000000	14.7567960537
1.7650000000	19.9885588849
1.7700000000	28.4160709611
1.7750000000	42.6058723415
1.7800000000	66.7613126715
1.7850000000	102.3276374915
1.7900000000	126.9882962816
1.7950000000	107.9611044177
1.8000000000	71.7190318033
1.8050000000	45.1952950694
1.8100000000	29.7242793759
1.8150000000	20.6619767222
1.8200000000	15.0866557936
1.8250000000	11.4718043607
1.8300000000	9.0157605568
1.8350000000	7.2795244322
1.8400000000	6.0111811151
1.8450000000	5.0576023081
1.8500000000	4.3221473072
1.8550000000	3.7441867883
1.8600000000	3.2808464399
1.8650000000	2.9024973898
1.8700000000	2.5872639438
1.8750000000	2.3179926141
1.8800000000	2.0795973125
1.8850000000	1.8567748370
1.8900000000	1.6300747324
1.8950000000	1.3699205650
1.9000000000	1.0265390966
1.9050000000	0.4421464560
1.9100000000	-0.4064817798
1.9150000000	-1.3209306458
1.9200000000	-0.9151318557
1.9250000000	1.7486922273
1.9300000000	3.8884788064
1.9350000000	4.0630834249
1.9400000000	3.3501213391
1.9450000000	2.6295452550
1.9500000000	2.1113539511
1.9550000000	1.7636331275
1.9600000000	1.5290011210
1.9650000000	1.3736722230
1.9700000000	1.2560129690
1.9750000000	1.1696599089
1.9800000000	1.1046230553
1.9850000000	1.0538465641
1.9900000000	1.0123043372
1.9950000000	0.9759273222
2.0000000000	0.9437312286
2.0050000000	0.9273590749
2.0100000000	0.9424374373
2.0150000000	0.9784528435
2.0200000000	1.0068454898
2.0250000000	1.0262682296
2.0300000000	1.0470398937
2.0350000000	1.0736078911
2.0400000000	1.1093819135
2.0450000000	1.1565872504
2.0500000000	1.2179015080
2.0550000000	1.2960403621
2.0600000000	1.3911331600
2.0650000000	1.4941392512
2.0700000000	1.5826299592
2.0750000000	1.6387904285
2.0800000000	1.6747779027
2.0850000000	1.7177486100
2.0900000000	1.7845118585
2.0950000000	1.8802026239
2.1000000000	2.0075769043
2.1050000000	2.1637149959
2.1100000000	2.3595107034
2.1150000000	2.6025250056
2.1200000000	2.9039819047
2.1250000000	3.2800172699
2.1300000000	3.7536387314
2.1350000000	4.3578481390
2.1400000000	5.1403469987
2.1450000000	6.1708608439
2.1500000000	7.5508891480
2.1550000000	9.4238929250
2.1600000000	11.9732938505
2.1650000000	15.3542070760
2.1700000000	19.5078803916
2.1750000000	23.6533143265
2.1800000000	26.2744683915
2.1850000000	26.5698868081
2.1900000000	25.6681902920
2.1950000000	25.0698546513
2.2000000000	24.8978354019
2.2050000000	23.7002473116
2.2100000000	20.8684828319
2.2150000000	17.2713022556
2.2200000000	13.9798738526
2.2250000000	11.3438213750
2.2300000000	9.2695758820
2.2350000000	7.6226308460
2.2400000000	6.3162702268
2.2450000000	5.2967156040
2.2500000000	4.5015528510
2.2550000000	3.8740988019
2.2600000000	3.3670716042
2.2650000000	2.9411561828
2.2700000000	2.5633463243
2.2750000000	2.2105151568
2.2800000000	1.8843675677
2.2850000000	1.6258572028
2.2900000000	1.4955896581
2.2950000000	1.5144084587
2.3000000000	1.6224347304
2.3050000000	1.7279700324
2.3100000000	1.7735657353
2.3150000000	1.7621453160
2.3200000000	1.7188637291
2.3250000000	1.6693998416
2.3300000000	1.6276318430
2.3350000000	1.5983740901
2.3400000000	1.5806419164
2.3450000000	1.5693072184
2.3500000000	1.5575213917
2.3550000000	1.5409049220
2.3600000000	1.5206727672
2.3650000000	1.5021371888
2.3700000000	1.4905634892
2.3750000000	1.4885211050
2.3800000000	1.4955648047
2.3850000000	1.5090403850
2.3900000000	1.5259929144
2.3950000000	1.5438967679
2.4000000000	1.5642604808
2.4050000000	1.5927004707
2.4100000000	1.6320748170
2.4150000000	1.6860057018
2.4200000000	1.7569565527
2.4250000000	1.8471661824
2.4300000000	1.9591446544
2.4350000000	2.0960378647
2.4400000000	2.2618931258
2.4450000000	2.4619325462
2.4500000000	2.7028022839
2.4550000000	2.9929108866
2.4600000000	3.3426422111
2.4650000000	3.7645603541
2.4700000000	4.2732190152
2.4750000000	4.8834358607
2.4800000000	5.6112398886
2.4850000000	6.4638436607
2.4900000000	7.4341980331
2.4950000000	8.4872115121
2.5000000000	9.5449015651
2.5050000000	10.5224528071
2.5100000000	11.1539278413
2.5150000000	11.2920761407
2.5200000000	10.9178890849
2.5250000000	10.1484527402
2.5300000000	9.1618542667
2.5350000000	8.1142672583
2.5400000000	7.1045882719
2.5450000000	6.1816768646
2.5500000000	5.3637813390
2.5550000000	4.6532160204
2.5600000000	4.0396689261
2.5650000000	3.5218021051
2.5700000000	3.0892866154
2.5750000000	2.7360096992
2.5800000000	2.4571965285
2.5850000000	2.2469297041
2.5900000000	2.0945252638
2.5950000000	1.9845151675
2.6000000000	1.9007209440
2.6050000000	1.8409581630
2.6100000000	1.7872924628
2.6150000000	1.7390644014
2.6200000000	1.6974796544
2.6250000000	1.6637232466
2.6300000000	1.6385103301
2.6350000000	1.6221511031
2.6400000000	1.6148077751
2.6450000000	1.6166643298
2.6500000000	1.6281153242
2.6550000000	1.6492269107
2.6600000000	1.6805535885
2.6650000000	1.7225846447
2.6700000000	1.7758969522
2.6750000000	1.8411750912
2.6800000000	1.9191811838
2.6850000000	2.0107481289
2.6900000000	2.1166814641
2.6950000000	2.2377118270
2.7000000000	2.3743467946
2.7050000000	2.5430426081
2.7100000000	2.7321335760
2.7150000000	2.9403289326
2.7200000000	3.1648302978
2.7250000000	3.4009703293
2.7300000000	3.6418757194
2.7350000000	3.8781770906
2.7400000000	4.0978544899
2.7450000000	4.2882153386
2.7500000000	4.4308350901
2.7550000000	4.5130574242
2.7600000000	4.5253752628
2.7650000000	4.4653411149
2.7700000000	4.3384285999
2.7750000000	4.1569216367
2.7800000000	3.9371116452
2.7850000000	3.6963289288
2.7900000000	3.4500576670
2.7950000000	3.2106925395
2.8000000000	2.9869768032
2.8050000000	2.7594905679
2.8100000000	2.5631120728
2.8150000000	2.3973932200
2.8200000000	2.2597288302
2.8250000000	2.1466566830
2.8300000000	2.0547037991
2.8350000000	1.9809101564
2.8400000000	1.9221290463
2.8450000000	1.8785727215
2.8500000000	1.8479349491
2.8550000000	1.8293568368
2.8600000000	1.8222308143
2.8650000000	1.8260770084
2.8700000000	1.8404690864
2.8750000000	1.8649704178
2.8800000000	1.8990767584
2.8850000000	1.9421607992
2.8900000000	1.9934501902
2.8950000000	2.0520012864
2.9000000000	2.1166937978
2.9050000000	2.2016981179
2.9100000000	2.2889864435
2.9150000000	2.3751910446
2.9200000000	2.4562608228
2.9250000000	2.5274983062
2.9300000000	2.5844884925
2.9350000000	2.6213553657
2.9400000000	2.6351546919
2.9450000000	2.6243784830
2.9500000000	2.5899124663
2.9550000000	2.5349026426
2.9600000000	2.4641412894
2.9650000000	2.3831882933
2.9700000000	2.2974996597
2.9750000000	2.2118093976
2.9800000000	2.1297891907
2.9850000000	2.0540003267
2.9900000000	1.9860193744
2.9950000000	1.9266493355
3.0000000000	1.8761492929
