# energy (eV)    P(omega), $W$ = 300 nm, $h$ = 300 nm, $s$ = 20 nm, $d/W = 5$, $E_{\rm e}$ = 200 keV
0.2000000000	0.1104250717
0.2050000000	0.1120111218
0.2100000000	0.1135020889
0.2150000000	0.1149009437
0.2200000000	0.1162102472
0.2250000000	0.1174321158
0.2300000000	0.1185681033
0.2350000000	0.1196191789
0.2400000000	0.1205856174
0.2450000000	0.1214667596
0.2500000000	0.1222611465
0.2550000000	0.1229659782
0.2600000000	0.1235771638
0.2650000000	0.1240890035
0.2700000000	0.1244936838
0.2750000000	0.1247809776
0.2800000000	0.1249376289
0.2850000000	0.1249466896
0.2900000000	0.1247863856
0.2950000000	0.1244292609
0.3000000000	0.1238399609
0.3050000000	0.1229738200
0.3100000000	0.1217734958
0.3150000000	0.1283315290
0.3200000000	0.1361212302
0.3250000000	0.1459682305
0.3300000000	0.1591450348
0.3350000000	0.1755521852
0.3400000000	0.1970398563
0.3450000000	0.2231256290
0.3500000000	0.2572647888
0.3550000000	0.3024600430
0.3600000000	0.3615159685
0.3650000000	0.4438855195
0.3700000000	0.5526034719
0.3750000000	0.7039507196
0.3800000000	0.9230010312
0.3850000000	1.2645351775
0.3900000000	1.8044978454
0.3950000000	2.7223697633
0.4000000000	4.4733493552
0.4050000000	8.4016541637
0.4100000000	19.1283109281
0.4150000000	61.4392517094
0.4200000000	39.1074294996
0.4250000000	-73.8247723552
0.4300000000	20.5730115791
0.4350000000	12.8368825213
0.4400000000	7.8592038225
0.4450000000	5.1778787394
0.4500000000	3.6332836068
0.4550000000	2.6821692431
0.4600000000	2.0623566633
0.4650000000	1.6397701720
0.4700000000	1.3409555344
0.4750000000	1.1247757619
0.4800000000	0.9644620328
0.4850000000	0.8438288823
0.4900000000	0.7517678586
0.4950000000	0.6808185491
0.5000000000	0.6258830459
0.5050000000	0.5832165526
0.5100000000	0.5504126717
0.5150000000	0.5257007397
0.5200000000	0.5072188817
0.5250000000	0.4941379383
0.5300000000	0.4855604839
0.5350000000	0.4808320513
0.5400000000	0.4794709517
0.5450000000	0.4810750414
0.5500000000	0.4855246152
0.5550000000	0.4925953735
0.5600000000	0.5021780939
0.5650000000	0.5142266828
0.5700000000	0.5287021628
0.5750000000	0.5457081416
0.5800000000	0.5654130214
0.5850000000	0.5879274743
0.5900000000	0.6134620107
0.5950000000	0.6422776620
0.6000000000	0.6747065117
0.6050000000	0.7112245351
0.6100000000	0.7522902675
0.6150000000	0.7985259924
0.6200000000	0.8507623171
0.6250000000	0.9097945054
0.6300000000	0.9767979982
0.6350000000	1.0532378983
0.6400000000	1.1406392965
0.6450000000	1.2412024490
0.6500000000	1.3578212610
0.6550000000	1.4935088742
0.6600000000	1.6528945107
0.6650000000	1.8419228038
0.6700000000	2.0675823998
0.6750000000	2.3405262369
0.6800000000	2.6750974410
0.6850000000	3.0900716793
0.6900000000	3.6145529172
0.6950000000	4.2892321604
0.7000000000	5.1787851489
0.7050000000	6.3820813943
0.7100000000	8.0666958322
0.7150000000	10.5309687485
0.7200000000	14.3304397376
0.7250000000	20.6396680439
0.7300000000	32.2247426691
0.7350000000	57.0230437283
0.7400000000	125.0604397205
0.7450000000	415.1909693160
0.7500000000	1287.2233191362
0.7550000000	324.0741952198
0.7600000000	107.4083508975
0.7650000000	51.5040366241
0.7700000000	29.9765827164
0.7750000000	19.5805313465
0.7800000000	13.7908219143
0.7850000000	10.2508653146
0.7900000000	7.9262329659
0.7950000000	6.3224047474
0.8000000000	5.1690740716
0.8050000000	4.3098070167
0.8100000000	3.6543424661
0.8150000000	3.1345393288
0.8200000000	2.7241671016
0.8250000000	2.3936466997
0.8300000000	2.1228074866
0.8350000000	1.9000784918
0.8400000000	1.7133225107
0.8450000000	1.5565757664
0.8500000000	1.4240685056
0.8550000000	1.3096880811
0.8600000000	1.2120435095
0.8650000000	1.1286582455
0.8700000000	1.0549581241
0.8750000000	0.9922986248
0.8800000000	0.9391790338
0.8850000000	0.8915493439
0.8900000000	0.8534441896
0.8950000000	0.8187760955
0.9000000000	0.7914117391
0.9050000000	0.7727764616
0.9100000000	0.7557093671
0.9150000000	0.7456145453
0.9200000000	0.7450200983
0.9250000000	0.7447093601
0.9300000000	0.7342994658
0.9350000000	0.7016953308
0.9400000000	0.5176267670
0.9450000000	-0.3211640421
0.9500000000	-4.7522561121
0.9550000000	-27.2436603027
0.9600000000	6.4349532007
0.9650000000	11.3101948150
0.9700000000	5.0199027072
0.9750000000	2.6365243649
0.9800000000	1.6527435110
0.9850000000	1.1924982167
0.9900000000	0.9271792803
0.9950000000	0.7662421074
1.0000000000	0.6634640735
1.0050000000	0.5983334949
1.0100000000	0.5477841807
1.0150000000	0.5108329980
1.0200000000	0.4859555721
1.0250000000	0.4650198474
1.0300000000	0.4490798319
1.0350000000	0.4369778758
1.0400000000	0.4292477270
1.0450000000	0.4227480703
1.0500000000	0.4183736494
1.0550000000	0.4158739939
1.0600000000	0.4158269854
1.0650000000	0.4166246471
1.0700000000	0.4189162020
1.0750000000	0.4227092551
1.0800000000	0.4284293411
1.0850000000	0.4357013617
1.0900000000	0.4465412074
1.0950000000	0.4594321834
1.1000000000	0.4748269284
1.1050000000	0.4925273751
1.1100000000	0.5131117873
1.1150000000	0.5370363183
1.1200000000	0.5648607942
1.1250000000	0.5972236466
1.1300000000	0.6350904024
1.1350000000	0.6796268784
1.1400000000	0.7321826256
1.1450000000	0.7951222673
1.1500000000	0.8710991814
1.1550000000	0.9639106946
1.1600000000	1.0789132827
1.1650000000	1.2230779178
1.1700000000	1.4093580061
1.1750000000	1.6550415392
1.1800000000	1.9886672069
1.1850000000	2.4571175644
1.1900000000	3.1488826361
1.1950000000	4.2335660988
1.2000000000	6.0718654278
1.2050000000	9.5439721605
1.2100000000	17.1801086733
1.2150000000	37.8231524511
1.2200000000	92.7645754471
1.2250000000	83.4259018788
1.2300000000	33.3774287381
1.2350000000	15.7375039941
1.2400000000	9.0593713097
1.2450000000	5.9989451214
1.2500000000	4.3911217360
1.2550000000	3.4707334068
1.2600000000	2.9192254581
1.2650000000	2.5835999286
1.2700000000	2.3962567891
1.2750000000	2.3135844794
1.2800000000	2.3158686378
1.2850000000	2.3958902384
1.2900000000	2.5558348649
1.2950000000	2.8048188993
1.3000000000	3.1714499934
1.3050000000	3.6929716044
1.3100000000	4.4367380657
1.3150000000	5.5187926839
1.3200000000	7.1468929553
1.3250000000	9.7177908528
1.3300000000	14.0974400836
1.3350000000	22.2964595681
1.3400000000	39.8188751522
1.3450000000	83.3282181995
1.3500000000	177.0191866704
1.3550000000	165.2034965563
1.3600000000	76.2123820111
1.3650000000	37.4514736934
1.3700000000	21.4779401386
1.3750000000	13.8109456037
1.3800000000	9.6303282257
1.3850000000	7.1123877911
1.3900000000	5.4904023896
1.3950000000	4.3844930948
1.4000000000	3.5991755369
1.4050000000	3.0241288294
1.4100000000	2.5932008294
1.4150000000	2.2680554179
1.4200000000	2.0235825443
1.4250000000	1.8599187744
1.4300000000	1.8001957055
1.4350000000	1.8340313700
1.4400000000	1.4131557161
1.4450000000	0.1234672229
1.4500000000	-1.9697057251
1.4550000000	-0.5516648901
1.4600000000	2.3873375128
1.4650000000	1.2920387057
1.4700000000	-1.2222462700
1.4750000000	-5.3461491568
1.4800000000	-2.3794852791
1.4850000000	3.9101468129
1.4900000000	3.1695918994
1.4950000000	2.0515543035
1.5000000000	1.4414351271
1.5050000000	1.1129130563
1.5100000000	0.9256671320
1.5150000000	0.8119554222
1.5200000000	0.7385018595
1.5250000000	0.6928646370
1.5300000000	0.6580054970
1.5350000000	0.6339798480
1.5400000000	0.6181572127
1.5450000000	0.6091265684
1.5500000000	0.6059768829
1.5550000000	0.6087322077
1.5600000000	0.6190166360
1.5650000000	0.6359989005
1.5700000000	0.6634909479
1.5750000000	0.7061441357
1.5800000000	0.7726917760
1.5850000000	0.8801337038
1.5900000000	1.0642860385
1.5950000000	1.4044076170
1.6000000000	2.0679185646
1.6050000000	3.1650265501
1.6100000000	3.6731506490
1.6150000000	2.7206564987
1.6200000000	1.8270858962
1.6250000000	1.3553901860
1.6300000000	1.1185385444
1.6350000000	0.9965858001
1.6400000000	0.9347577504
1.6450000000	0.9075961171
1.6500000000	0.9023517684
1.6550000000	0.9130522611
1.6600000000	0.9361325248
1.6650000000	0.9699640884
1.6700000000	1.0139270674
1.6750000000	1.0680237427
1.6800000000	1.1327364838
1.6850000000	1.2088140580
1.6900000000	1.2969171795
1.6950000000	1.3957878110
1.7000000000	1.5037549871
1.7050000000	1.6143564393
1.7100000000	1.7405346671
1.7150000000	2.0545084172
1.7200000000	2.6055632438
1.7250000000	3.1102388926
1.7300000000	3.6516911395
1.7350000000	4.2466713930
1.7400000000	4.8306101541
1.7450000000	5.5806893416
1.7500000000	6.7149426737
1.7550000000	8.4031170646
1.7600000000	10.9289152549
1.7650000000	14.8224443246
1.7700000000	21.0942375276
1.7750000000	31.6605908793
1.7800000000	49.6654840346
1.7850000000	76.2185808435
1.7900000000	94.7195310178
1.7950000000	80.6557801176
1.8000000000	53.6788763620
1.8050000000	33.8995853256
1.8100000000	22.3509168510
1.8150000000	15.5817783701
1.8200000000	11.4159557791
1.8250000000	8.7152396967
1.8300000000	6.8815494518
1.8350000000	5.5872585144
1.8400000000	4.6443117850
1.8450000000	3.9386317741
1.8500000000	3.3983246497
1.8550000000	2.9784049793
1.8600000000	2.6474920576
1.8650000000	2.3842597505
1.8700000000	2.1735415081
1.8750000000	2.0042042564
1.8800000000	1.8674190688
1.8850000000	1.7553871822
1.8900000000	1.6591246640
1.8950000000	1.5652261931
1.9000000000	1.4505417164
1.9050000000	1.2333459162
1.9100000000	0.9344889173
1.9150000000	0.7768415177
1.9200000000	1.8965106371
1.9250000000	4.9889923180
1.9300000000	7.4415041452
1.9350000000	7.3267205249
1.9400000000	5.7624529566
1.9450000000	4.2458909282
1.9500000000	3.1811073126
1.9550000000	2.4834391146
1.9600000000	2.0224047730
1.9650000000	1.7138245759
1.9700000000	1.4910616762
1.9750000000	1.3277681738
1.9800000000	1.2030990539
1.9850000000	1.1019305271
1.9900000000	1.0126894492
1.9950000000	0.9252749373
2.0000000000	0.8382149038
2.0050000000	0.7825898824
2.0100000000	0.8144532904
2.0150000000	0.9022358330
2.0200000000	0.9563550650
2.0250000000	0.9707182407
2.0300000000	0.9739339004
2.0350000000	0.9797960430
2.0400000000	0.9934278013
2.0450000000	1.0161333593
2.0500000000	1.0487572234
2.0550000000	1.0920658310
2.0600000000	1.1460596447
2.0650000000	1.2074730797
2.0700000000	1.2682076028
2.0750000000	1.3221956448
2.0800000000	1.3747963391
2.0850000000	1.4370897824
2.0900000000	1.5165053427
2.0950000000	1.6161743745
2.1000000000	1.7394694166
2.1050000000	1.8852765669
2.1100000000	2.0638434055
2.1150000000	2.2826616414
2.1200000000	2.5522367664
2.1250000000	2.8873038926
2.1300000000	3.3086332857
2.1350000000	3.8458782012
2.1400000000	4.5418570493
2.1450000000	5.4591705218
2.1500000000	6.6890302362
2.1550000000	8.3605258534
2.1600000000	10.6388720033
2.1650000000	13.6639858865
2.1700000000	17.3798930665
2.1750000000	21.0742668115
2.1800000000	23.3568671172
2.1850000000	23.4753153765
2.1900000000	22.4371875767
2.1950000000	21.6292432647
2.2000000000	21.2708662939
2.2050000000	20.2760885237
2.2100000000	18.1643922005
2.2150000000	15.5681750604
2.2200000000	13.2375845716
2.2250000000	11.3113560182
2.2300000000	9.6149796925
2.2350000000	8.0809932166
2.2400000000	6.7632626295
2.2450000000	5.7088836786
2.2500000000	4.9006259727
2.2550000000	4.2934863138
2.2600000000	3.8389347161
2.2650000000	3.4883311037
2.2700000000	3.1890844639
2.2750000000	2.8893708485
2.2800000000	2.5666376570
2.2850000000	2.2594803988
2.2900000000	2.0471696389
2.2950000000	1.9745912370
2.3000000000	2.0004257085
2.3050000000	2.0399306511
2.3100000000	2.0432139693
2.3150000000	2.0106778901
2.3200000000	1.9639191274
2.3250000000	1.9252450094
2.3300000000	1.9060687841
2.3350000000	1.9083484068
2.3400000000	1.9256839016
2.3450000000	1.9435937696
2.3500000000	1.9438434785
2.3550000000	1.9147994789
2.3600000000	1.8597540926
2.3650000000	1.7930941441
2.3700000000	1.7296493467
2.3750000000	1.6782773400
2.3800000000	1.6418567140
2.3850000000	1.6195760175
2.3900000000	1.6095818200
2.3950000000	1.6097262681
2.4000000000	1.6205935912
2.4050000000	1.6457630540
2.4100000000	1.6864330400
2.4150000000	1.7442631951
2.4200000000	1.8202507190
2.4250000000	1.9161431076
2.4300000000	2.0344898325
2.4350000000	2.1787109924
2.4400000000	2.3532199762
2.4450000000	2.5636519479
2.4500000000	2.8171163933
2.4550000000	3.1225492282
2.4600000000	3.4909293078
2.4650000000	3.9354289222
2.4700000000	4.4711551980
2.4750000000	5.1132403033
2.4800000000	5.8773114327
2.4850000000	6.7695535305
2.4900000000	7.7812437654
2.4950000000	8.8761778703
2.5000000000	9.9777947388
2.5050000000	11.0083219099
2.5100000000	11.7045482497
2.5150000000	11.9146546593
2.5200000000	11.6024436233
2.5250000000	10.8642882396
2.5300000000	9.8681152657
2.5350000000	8.7759010548
2.5400000000	7.7020929026
2.5450000000	6.7113616722
2.5500000000	5.8324693484
2.5550000000	5.0719653854
2.5600000000	4.4193939528
2.5650000000	3.8707488380
2.5700000000	3.4131108688
2.5750000000	3.0383921955
2.5800000000	2.7405516593
2.5850000000	2.5130231480
2.5900000000	2.3450082932
2.5950000000	2.2213261197
2.6000000000	2.1261700680
2.6050000000	2.0585441833
2.6100000000	1.9999910076
2.6150000000	1.9495822824
2.6200000000	1.9083135052
2.6250000000	1.8772879203
2.6300000000	1.8572423035
2.6350000000	1.8485526022
2.6400000000	1.8514372975
2.6450000000	1.8660994992
2.6500000000	1.8929369770
2.6550000000	1.9320612281
2.6600000000	1.9840725300
2.6650000000	2.0495774018
2.6700000000	2.1293209110
2.6750000000	2.2242057844
2.6800000000	2.3352325868
2.6850000000	2.4634246860
2.6900000000	2.6096201025
2.6950000000	2.7743044991
2.7000000000	2.9573103152
2.7050000000	3.1794503811
2.7100000000	3.4218796747
2.7150000000	3.6798747966
2.7200000000	3.9465668443
2.7250000000	4.2133280597
2.7300000000	4.4704251516
2.7350000000	4.7075809546
2.7400000000	4.9141098449
2.7450000000	5.0805290336
2.7500000000	5.1921274162
2.7550000000	5.2400009112
2.7600000000	5.2173931003
2.7650000000	5.1235197469
2.7700000000	4.9646703666
2.7750000000	4.7534448883
2.7800000000	4.5062661487
2.7850000000	4.2405564604
2.7900000000	3.9719480595
2.7950000000	3.7129765570
2.8000000000	3.4725058863
2.8050000000	3.2292071147
2.8100000000	3.0209770542
2.8150000000	2.8472572732
2.8200000000	2.7052512950
2.8250000000	2.5912734740
2.8300000000	2.5016111060
2.8350000000	2.4330866887
2.8400000000	2.3823554148
2.8450000000	2.3495335766
2.8500000000	2.3321903350
2.8550000000	2.3293994092
2.8600000000	2.3404690781
2.8650000000	2.3647761039
2.8700000000	2.4016232281
2.8750000000	2.4501256765
2.8800000000	2.5091235422
2.8850000000	2.5771083166
2.8900000000	2.6522666147
2.8950000000	2.7325477185
2.9000000000	2.8157951732
2.9050000000	2.9158245366
2.9100000000	3.0117777960
2.9150000000	3.1006374508
2.9200000000	3.1792370917
2.9250000000	3.2439842734
2.9300000000	3.2915711282
2.9350000000	3.3168523627
2.9400000000	3.3176076893
2.9450000000	3.2928915637
2.9500000000	3.2441298115
2.9550000000	3.1750278685
2.9600000000	3.0909338272
2.9650000000	2.9979074506
2.9700000000	2.9018083376
2.9750000000	2.8076440676
2.9800000000	2.7192515777
2.9850000000	2.6392486574
2.9900000000	2.5692097615
2.9950000000	2.5098738603
3.0000000000	2.4613963543
