# energy (eV)    P(omega), $W$ = 300 nm, $h$ = 300 nm, $s$ = 20 nm, $d/W = 5$, $E_{\rm e}$ = 200 keV
0.2000000000	0.1514805981
0.2050000000	0.1537501141
0.2100000000	0.1558716757
0.2150000000	0.1578501092
0.2200000000	0.1596895428
0.2250000000	0.1613934786
0.2300000000	0.1629645978
0.2350000000	0.1644046780
0.2400000000	0.1657144026
0.2450000000	0.1668932804
0.2500000000	0.1679393778
0.2550000000	0.1688489850
0.2600000000	0.1696165290
0.2650000000	0.1702339126
0.2700000000	0.1706901631
0.2750000000	0.1709707361
0.2800000000	0.1710567483
0.2850000000	0.1709239162
0.2900000000	0.1705411377
0.2950000000	0.1698689424
0.3000000000	0.1688569136
0.3050000000	0.1674408038
0.3100000000	0.1655383612
0.3150000000	0.1749548181
0.3200000000	0.1861381019
0.3250000000	0.2002830741
0.3300000000	0.2192268682
0.3350000000	0.2428068650
0.3400000000	0.2736852765
0.3450000000	0.3111367304
0.3500000000	0.3601285072
0.3550000000	0.4249514907
0.3600000000	0.5095869613
0.3650000000	0.6275739924
0.3700000000	0.7831400720
0.3750000000	0.9995287579
0.3800000000	1.3124752598
0.3850000000	1.8000881786
0.3900000000	2.5703775029
0.3950000000	3.8787546098
0.4000000000	6.3728998244
0.4050000000	11.9645296832
0.4100000000	27.2214603973
0.4150000000	87.3566096272
0.4200000000	55.6595064077
0.4250000000	-104.7564771888
0.4300000000	29.1279751793
0.4350000000	18.1503733430
0.4400000000	11.0946641479
0.4450000000	7.2967802933
0.4500000000	5.1104986103
0.4550000000	3.7651128509
0.4600000000	2.8888933345
0.4650000000	2.2918142771
0.4700000000	1.8698166509
0.4750000000	1.5646223606
0.4800000000	1.3383473139
0.4850000000	1.1680805220
0.4900000000	1.0381093264
0.4950000000	0.9378859675
0.5000000000	0.8602006756
0.5050000000	0.7997638776
0.5100000000	0.7531693086
0.5150000000	0.7179090799
0.5200000000	0.6913626853
0.5250000000	0.6723487108
0.5300000000	0.6595997126
0.5350000000	0.6521885523
0.5400000000	0.6494316716
0.5450000000	0.6507580913
0.5500000000	0.6559866427
0.5550000000	0.6647953348
0.5600000000	0.6770193384
0.5650000000	0.6925844263
0.5700000000	0.7114228256
0.5750000000	0.7336660307
0.5800000000	0.7595278767
0.5850000000	0.7891476986
0.5900000000	0.8227960017
0.5950000000	0.8608132260
0.6000000000	0.9036330216
0.6050000000	0.9518842865
0.6100000000	1.0061667583
0.6150000000	1.0673000549
0.6200000000	1.1363775393
0.6250000000	1.2144474215
0.6300000000	1.3030591766
0.6350000000	1.4041440015
0.6400000000	1.5197111878
0.6450000000	1.6526612709
0.6500000000	1.8068078214
0.6550000000	1.9861205138
0.6600000000	2.1967009149
0.6650000000	2.4463775384
0.6700000000	2.7443541733
0.6750000000	3.1046655610
0.6800000000	3.5461861392
0.6850000000	4.0936402370
0.6900000000	4.7853217438
0.6950000000	5.6747869308
0.7000000000	6.8471104198
0.7050000000	8.4323476326
0.7100000000	10.6508607976
0.7150000000	13.8949182111
0.7200000000	18.8947983496
0.7250000000	27.1941922535
0.7300000000	42.4276812741
0.7350000000	75.0226300737
0.7400000000	164.4143345496
0.7450000000	545.4317565782
0.7500000000	1689.7204117925
0.7550000000	425.0783149151
0.7600000000	140.7736511664
0.7650000000	67.4495472724
0.7700000000	39.2255683219
0.7750000000	25.6009836175
0.7800000000	18.0161831927
0.7850000000	13.3804011442
0.7900000000	10.3372768547
0.7950000000	8.2385196269
0.8000000000	6.7298121807
0.8050000000	5.6061706885
0.8100000000	4.7493383938
0.8150000000	4.0701204304
0.8200000000	3.5340663523
0.8250000000	3.1024453325
0.8300000000	2.7488825497
0.8350000000	2.4581903799
0.8400000000	2.2145073067
0.8450000000	2.0100266310
0.8500000000	1.8371821507
0.8550000000	1.6880256151
0.8600000000	1.5606959152
0.8650000000	1.4519348016
0.8700000000	1.3558359807
0.8750000000	1.2740897290
0.8800000000	1.2047255929
0.8850000000	1.1425369214
0.8900000000	1.0926494140
0.8950000000	1.0472671682
0.9000000000	1.0112982785
0.9050000000	0.9865239484
0.9100000000	0.9638204043
0.9150000000	0.9500459614
0.9200000000	0.9483811838
0.9250000000	0.9471449757
0.9300000000	0.9332457878
0.9350000000	0.8915538188
0.9400000000	0.6593214952
0.9450000000	-0.3962093869
0.9500000000	-5.9666030261
0.9550000000	-34.2202313203
0.9600000000	8.0747409289
0.9650000000	14.1842691271
0.9700000000	6.2912237685
0.9750000000	3.3027392793
0.9800000000	2.0698786746
0.9850000000	1.4932685385
0.9900000000	1.1610399991
0.9950000000	0.9595851676
1.0000000000	0.8309557507
1.0050000000	0.7494073160
1.0100000000	0.6861875693
1.0150000000	0.6400015454
1.0200000000	0.6088923866
1.0250000000	0.5827811973
1.0300000000	0.5629450646
1.0350000000	0.5479393666
1.0400000000	0.5383993603
1.0450000000	0.5304672551
1.0500000000	0.5252352683
1.0550000000	0.5223935443
1.0600000000	0.5226421291
1.0650000000	0.5240325293
1.0700000000	0.5273591717
1.0750000000	0.5326358371
1.0800000000	0.5403838641
1.0850000000	0.5502165470
1.0900000000	0.5647207182
1.0950000000	0.5819451120
1.1000000000	0.6024675178
1.1050000000	0.6261205246
1.1100000000	0.6536510616
1.1150000000	0.6856782101
1.1200000000	0.7229356698
1.1250000000	0.7663831949
1.1300000000	0.8173055337
1.1350000000	0.8773023579
1.1400000000	0.9481951069
1.1450000000	1.0333101412
1.1500000000	1.1362634609
1.1550000000	1.2622831774
1.1600000000	1.4187451619
1.1650000000	1.6152197020
1.1700000000	1.8696361128
1.1750000000	2.2057944751
1.1800000000	2.6630411468
1.1850000000	3.3060507861
1.1900000000	4.2567123338
1.1950000000	5.7490642882
1.2000000000	8.2803075496
1.2050000000	13.0636838798
1.2100000000	23.5861318272
1.2150000000	52.0280835651
1.2200000000	127.6870788139
1.2250000000	114.7178181327
1.2300000000	45.7593938138
1.2350000000	21.4612339391
1.2400000000	12.2576952791
1.2450000000	8.0318695639
1.2500000000	5.8025367120
1.2550000000	4.5158972823
1.2600000000	3.7329172658
1.2650000000	3.2424149084
1.2700000000	2.9498621873
1.2750000000	2.7939696521
1.2800000000	2.7455556820
1.2850000000	2.7918685374
1.2900000000	2.9318643551
1.2950000000	3.1728201997
1.3000000000	3.5444968372
1.3050000000	4.0850587441
1.3100000000	4.8656701420
1.3150000000	6.0094649841
1.3200000000	7.7378103457
1.3250000000	10.4726259826
1.3300000000	15.1379771323
1.3350000000	23.8762910142
1.3400000000	42.5526259711
1.3450000000	88.9169098015
1.3500000000	188.7020890738
1.3550000000	175.9913621117
1.3600000000	81.1579486766
1.3650000000	39.8758721381
1.3700000000	22.8683849240
1.3750000000	14.7064860066
1.3800000000	10.2561782096
1.3850000000	7.5753598952
1.3900000000	5.8475372557
1.3950000000	4.6686962653
1.4000000000	3.8301605293
1.4050000000	3.2142743530
1.4100000000	2.7497767624
1.4150000000	2.3940949802
1.4200000000	2.1171915655
1.4250000000	1.9110734833
1.4300000000	1.7797845265
1.4350000000	1.6927284796
1.4400000000	1.1630017296
1.4450000000	-0.3039493633
1.4500000000	-2.8571744358
1.4550000000	-0.9552266678
1.4600000000	2.9041423043
1.4650000000	1.6829275212
1.4700000000	-1.0713314005
1.4750000000	-5.4275573301
1.4800000000	-2.3943282568
1.4850000000	4.1038502259
1.4900000000	3.3221893487
1.4950000000	2.1555181781
1.5000000000	1.5176763207
1.5050000000	1.1723755578
1.5100000000	0.9747165344
1.5150000000	0.8535282468
1.5200000000	0.7741534534
1.5250000000	0.7237768841
1.5300000000	0.6840812453
1.5350000000	0.6552501107
1.5400000000	0.6343713178
1.5450000000	0.6197087740
1.5500000000	0.6100634325
1.5550000000	0.6049367505
1.5600000000	0.6053666466
1.5650000000	0.6092687792
1.5700000000	0.6188807940
1.5750000000	0.6359680297
1.5800000000	0.6640440342
1.5850000000	0.7100263551
1.5900000000	0.7885479953
1.5950000000	0.9319563678
1.6000000000	1.2084155592
1.6050000000	1.6621236066
1.6100000000	1.8735419311
1.6150000000	1.4908834312
1.6200000000	1.1361238331
1.6250000000	0.9557622789
1.6300000000	0.8729296554
1.6350000000	0.8387190065
1.6400000000	0.8309782142
1.6450000000	0.8395739056
1.6500000000	0.8595733969
1.6550000000	0.8889466748
1.6600000000	0.9266591493
1.6650000000	0.9725673231
1.6700000000	1.0270491986
1.6750000000	1.0908884977
1.6800000000	1.1652334129
1.6850000000	1.2516170267
1.6900000000	1.3518223684
1.6950000000	1.4668849065
1.7000000000	1.5993421948
1.7050000000	1.7526045614
1.7100000000	1.9383606108
1.7150000000	2.2505099298
1.7200000000	2.7219677018
1.7250000000	3.2317129406
1.7300000000	3.8378905283
1.7350000000	4.4936965361
1.7400000000	5.0990128045
1.7450000000	5.8618575528
1.7500000000	7.0313336247
1.7550000000	8.7854738612
1.7600000000	11.4172796580
1.7650000000	15.4775010831
1.7700000000	22.0180633271
1.7750000000	33.0342616831
1.7800000000	51.7967013303
1.7850000000	79.4451093603
1.7900000000	98.6631292422
1.7950000000	83.9462756486
1.8000000000	55.8145597066
1.8050000000	35.2070629191
1.8100000000	23.1805217971
1.8150000000	16.1332327988
1.8200000000	11.7965701378
1.8250000000	8.9846046654
1.8300000000	7.0743385243
1.8350000000	5.7245399802
1.8400000000	4.7393536825
1.8450000000	3.9998211092
1.8500000000	3.4308941795
1.8550000000	2.9855192382
1.8600000000	2.6305999407
1.8650000000	2.3433873325
1.8700000000	2.1073051744
1.8750000000	1.9096385410
1.8800000000	1.7395647349
1.8850000000	1.5865320702
1.8900000000	1.4374813265
1.8950000000	1.2726301299
1.9000000000	1.0584588243
1.9050000000	0.6855860828
1.9100000000	0.1501285517
1.9150000000	-0.3653900962
1.9200000000	0.2572629925
1.9250000000	2.7480731080
1.9300000000	4.7378201845
1.9350000000	4.7824379704
1.9400000000	3.8391756561
1.9450000000	2.9097895980
1.9500000000	2.2510605692
1.9550000000	1.8153347186
1.9600000000	1.5249683072
1.9650000000	1.3314877360
1.9700000000	1.1890562690
1.9750000000	1.0846134473
1.9800000000	1.0053430937
1.9850000000	0.9420544104
1.9900000000	0.8879062850
1.9950000000	0.8370998782
2.0000000000	0.7885925313
2.0050000000	0.7597528856
2.0100000000	0.7791445231
2.0150000000	0.8297113145
2.0200000000	0.8638843855
2.0250000000	0.8787510886
2.0300000000	0.8900984550
2.0350000000	0.9052308491
2.0400000000	0.9277030640
2.0450000000	0.9590255366
2.0500000000	1.0007345945
2.0550000000	1.0543580265
2.0600000000	1.1199827748
2.0650000000	1.1923661282
2.0700000000	1.2584586135
2.0750000000	1.3080686100
2.0800000000	1.3487698899
2.0850000000	1.3970236340
2.0900000000	1.4632987169
2.0950000000	1.5512215226
2.1000000000	1.6635652687
2.1050000000	1.7986328808
2.1100000000	1.9658352007
2.1150000000	2.1719164687
2.1200000000	2.4265781586
2.1250000000	2.7435861773
2.1300000000	3.1424465644
2.1350000000	3.6510681130
2.1400000000	4.3097594220
2.1450000000	5.1774394225
2.1500000000	6.3399077288
2.1550000000	7.9185187561
2.1600000000	10.0685366673
2.1650000000	12.9215378753
2.1700000000	16.4273576728
2.1750000000	19.9231907146
2.1800000000	22.1185776222
2.1850000000	22.3242552796
2.1900000000	21.4906372631
2.1950000000	20.8992390656
2.2000000000	20.6925832661
2.2050000000	19.7201368899
2.2100000000	17.4896155820
2.2150000000	14.6831055505
2.2200000000	12.1304086345
2.2250000000	10.0620188072
2.2300000000	8.3641171921
2.2350000000	6.9432708388
2.2400000000	5.7767292832
2.2450000000	4.8556272552
2.2500000000	4.1418183016
2.2550000000	3.5893569702
2.2600000000	3.1557205363
2.2650000000	2.8025852633
2.2700000000	2.4936798305
2.2750000000	2.1983580624
2.2800000000	1.9095129327
2.2850000000	1.6624138716
2.2900000000	1.5171212626
2.2950000000	1.5005473101
2.3000000000	1.5663094234
2.3050000000	1.6355983577
2.3100000000	1.6600993080
2.3150000000	1.6413351596
2.3200000000	1.6001975055
2.3250000000	1.5581577028
2.3300000000	1.5266145134
2.3350000000	1.5088968484
2.3400000000	1.5025031021
2.3450000000	1.5001529076
2.3500000000	1.4924682043
2.3550000000	1.4734580623
2.3600000000	1.4447799312
2.3650000000	1.4137413289
2.3700000000	1.3877693246
2.3750000000	1.3709914040
2.3800000000	1.3640688695
2.3850000000	1.3653410514
2.3900000000	1.3726871543
2.3950000000	1.3840754294
2.4000000000	1.4005181524
2.4050000000	1.4263105286
2.4100000000	1.4632800505
2.4150000000	1.5139481349
2.4200000000	1.5800526890
2.4250000000	1.6634568555
2.4300000000	1.7664463920
2.4350000000	1.8919515795
2.4400000000	2.0437438855
2.4450000000	2.2266594727
2.4500000000	2.4468278618
2.4550000000	2.7119823418
2.4600000000	3.0316332383
2.4650000000	3.4172444163
2.4700000000	3.8820093617
2.4750000000	4.4392305550
2.4800000000	5.1029484140
2.4850000000	5.8789962865
2.4900000000	6.7601072828
2.4950000000	7.7141431050
2.5000000000	8.6717120435
2.5050000000	9.5592212200
2.5100000000	10.1411464012
2.5150000000	10.2853728582
2.5200000000	9.9698222790
2.5250000000	9.2923622579
2.5300000000	8.4084923119
2.5350000000	7.4592751443
2.5400000000	6.5377993899
2.5450000000	5.6926383924
2.5500000000	4.9433497409
2.5550000000	4.2932915114
2.5600000000	3.7331906666
2.5650000000	3.2610088747
2.5700000000	2.8667213387
2.5750000000	2.5442706762
2.5800000000	2.2890258594
2.5850000000	2.0955222589
2.5900000000	1.9542043978
2.5950000000	1.8513576044
2.6000000000	1.7726461557
2.6050000000	1.7164824419
2.6100000000	1.6666874371
2.6150000000	1.6225931008
2.6200000000	1.5852345276
2.6250000000	1.5556725808
2.6300000000	1.5345874539
2.6350000000	1.5223047681
2.6400000000	1.5189964531
2.6450000000	1.5248369759
2.6500000000	1.5401848448
2.6550000000	1.5651203793
2.6600000000	1.6001910372
2.6650000000	1.6459174581
2.6700000000	1.7029132437
2.6750000000	1.7718955424
2.6800000000	1.8536309585
2.6850000000	1.9489049446
2.6900000000	2.0584122023
2.6950000000	2.1826846021
2.7000000000	2.3219184049
2.7050000000	2.4924058127
2.7100000000	2.6811867547
2.7150000000	2.8859585987
2.7200000000	3.1028515317
2.7250000000	3.3263616188
2.7300000000	3.5493630578
2.7350000000	3.7631324926
2.7400000000	3.9572916267
2.7450000000	4.1214833433
2.7500000000	4.2403287071
2.7550000000	4.3036475679
2.7600000000	4.3037519268
2.7650000000	4.2389485996
2.7700000000	4.1143999948
2.7750000000	3.9412530854
2.7800000000	3.7342196871
2.7850000000	3.5089473551
2.7900000000	3.2794543532
2.7950000000	3.0569765976
2.8000000000	2.8494642130
2.8050000000	2.6386865333
2.8100000000	2.4572424299
2.8150000000	2.3047254220
2.8200000000	2.1787525929
2.8250000000	2.0761561134
2.8300000000	1.9937409216
2.8350000000	1.9287870555
2.8400000000	1.8784016390
2.8450000000	1.8427600841
2.8500000000	1.8197375488
2.8550000000	1.8085302465
2.8600000000	1.8085457129
2.8650000000	1.8192816514
2.8700000000	1.8402478976
2.8750000000	1.8708847322
2.8800000000	1.9105092453
2.8850000000	1.9582553663
2.8900000000	2.0130888014
2.8950000000	2.0737851880
2.9000000000	2.1389961160
2.9050000000	2.2214633271
2.9100000000	2.3038855493
2.9150000000	2.3833196279
2.9200000000	2.4563858517
2.9250000000	2.5191846817
2.9300000000	2.5680830178
2.9350000000	2.5979869580
2.9400000000	2.6064682191
2.9450000000	2.5923406091
2.9500000000	2.5565734099
2.9550000000	2.5022082322
2.9600000000	2.4337694997
2.9650000000	2.3564665343
2.9700000000	2.2753938609
2.9750000000	2.1949448547
2.9800000000	2.1185167012
2.9850000000	2.0484571500
2.9900000000	1.9862124993
2.9950000000	1.9324845763
3.0000000000	1.8874766565
