# energy (eV)    P(omega), $W$ = 300 nm, $h$ = 300 nm, $s$ = 20 nm, $d/W = 5$, $E_{\rm e}$ = 200 keV
0.2000000000	0.0859890284
0.2050000000	0.0872241489
0.2100000000	0.0883852004
0.2150000000	0.0894744977
0.2200000000	0.0904940360
0.2250000000	0.0914454648
0.2300000000	0.0923299950
0.2350000000	0.0931483824
0.2400000000	0.0939008418
0.2450000000	0.0945868605
0.2500000000	0.0952053031
0.2550000000	0.0957539896
0.2600000000	0.0962297350
0.2650000000	0.0966281006
0.2700000000	0.0969430023
0.2750000000	0.0971664759
0.2800000000	0.0972881984
0.2850000000	0.0972949714
0.2900000000	0.0971698386
0.2950000000	0.0968914182
0.3000000000	0.0964321778
0.3050000000	0.0957573335
0.3100000000	0.0948222297
0.3150000000	0.0999293714
0.3200000000	0.1059956884
0.3250000000	0.1136641687
0.3300000000	0.1239258092
0.3350000000	0.1367031216
0.3400000000	0.1534369622
0.3450000000	0.1737515847
0.3500000000	0.2003378485
0.3550000000	0.2355341172
0.3600000000	0.2815244125
0.3650000000	0.3456702867
0.3700000000	0.4303348942
0.3750000000	0.5481969677
0.3800000000	0.7187825770
0.3850000000	0.9847520312
0.3900000000	1.4052464952
0.3950000000	2.1200350190
0.4000000000	3.4835992657
0.4050000000	6.5427349785
0.4100000000	14.8960126284
0.4150000000	47.8451600289
0.4200000000	30.4545427507
0.4250000000	-57.4898731277
0.4300000000	16.0208111807
0.4350000000	9.9964191247
0.4400000000	6.1201416526
0.4450000000	4.0321129570
0.4500000000	2.8292927299
0.4550000000	2.0886343330
0.4600000000	1.6059704590
0.4650000000	1.2768921258
0.4700000000	1.0441982652
0.4750000000	0.8758542608
0.4800000000	0.7510144741
0.4850000000	0.6570748209
0.4900000000	0.5853848532
0.4950000000	0.5301349548
0.5000000000	0.4873552515
0.5050000000	0.4541295809
0.5100000000	0.4285840145
0.5150000000	0.4093396847
0.5200000000	0.3949467201
0.5250000000	0.3847594190
0.5300000000	0.3780789376
0.5350000000	0.3743956211
0.5400000000	0.3733343622
0.5450000000	0.3745819984
0.5500000000	0.3780452932
0.5550000000	0.3835495721
0.5600000000	0.3910097640
0.5650000000	0.4003899602
0.5700000000	0.4116597884
0.5750000000	0.4248999064
0.5800000000	0.4402414164
0.5850000000	0.4577704731
0.5900000000	0.4776509651
0.5950000000	0.5000861185
0.6000000000	0.5253344786
0.6050000000	0.5537666290
0.6100000000	0.5857395681
0.6150000000	0.6217377887
0.6200000000	0.6624079787
0.6250000000	0.7083693107
0.6300000000	0.7605369519
0.6350000000	0.8200515971
0.6400000000	0.8881006404
0.6450000000	0.9663971472
0.6500000000	1.0571942398
0.6550000000	1.1628378717
0.6600000000	1.2869322447
0.6650000000	1.4341056801
0.6700000000	1.6097993653
0.6750000000	1.8223073891
0.6800000000	2.0827969242
0.6850000000	2.4058861897
0.6900000000	2.8142347331
0.6950000000	3.3395234173
0.7000000000	4.0321069483
0.7050000000	4.9689622791
0.7100000000	6.2805583410
0.7150000000	8.1991741199
0.7200000000	11.1573361549
0.7250000000	16.0695206022
0.7300000000	25.0893195728
0.7350000000	44.3965306360
0.7400000000	97.3683485874
0.7450000000	323.2547849286
0.7500000000	1002.1902489641
0.7550000000	252.3131789426
0.7600000000	83.6243476974
0.7650000000	40.0991504673
0.7700000000	23.3386232598
0.7750000000	15.2446265704
0.7800000000	10.7369684047
0.7850000000	7.9808887357
0.7900000000	6.1710173206
0.7950000000	4.9223379967
0.8000000000	4.0243995813
0.8050000000	3.3554082331
0.8100000000	2.8450898716
0.8150000000	2.4403924233
0.8200000000	2.1208936512
0.8250000000	1.8635643687
0.8300000000	1.6527005227
0.8350000000	1.4792933249
0.8400000000	1.3338932665
0.8450000000	1.2118571491
0.8500000000	1.1086928598
0.8550000000	1.0196413781
0.8600000000	0.9436196984
0.8650000000	0.8786996450
0.8700000000	0.8213200544
0.8750000000	0.7725361433
0.8800000000	0.7311795111
0.8850000000	0.6940970885
0.8900000000	0.6644298977
0.8950000000	0.6374386732
0.9000000000	0.6161336740
0.9050000000	0.6016245148
0.9100000000	0.5883362989
0.9150000000	0.5804761771
0.9200000000	0.5800122768
0.9250000000	0.5797693170
0.9300000000	0.5716642075
0.9350000000	0.5462810241
0.9400000000	0.4029828363
0.9450000000	-0.2500158621
0.9500000000	-3.6996137870
0.9550000000	-21.2091082579
0.9600000000	5.0095859596
0.9650000000	8.8049291094
0.9700000000	3.9079646052
0.9750000000	2.0525177060
0.9800000000	1.2866505353
0.9850000000	0.9283526600
0.9900000000	0.7218038364
0.9950000000	0.5965155074
1.0000000000	0.5165036294
1.0050000000	0.4657999434
1.0100000000	0.4264477372
1.0150000000	0.3976815789
1.0200000000	0.3783147008
1.0250000000	0.3620164729
1.0300000000	0.3496073844
1.0350000000	0.3401862190
1.0400000000	0.3341684591
1.0450000000	0.3291086962
1.0500000000	0.3257034503
1.0550000000	0.3237577345
1.0600000000	0.3237214003
1.0650000000	0.3243427174
1.0700000000	0.3261270816
1.0750000000	0.3290804138
1.0800000000	0.3335339781
1.0850000000	0.3391958486
1.0900000000	0.3476354437
1.0950000000	0.3576719675
1.1000000000	0.3696578051
1.1050000000	0.3834388411
1.1100000000	0.3994652678
1.1150000000	0.4180922408
1.1200000000	0.4397556073
1.1250000000	0.4649525345
1.1300000000	0.4944347445
1.1350000000	0.5291099434
1.1400000000	0.5700288631
1.1450000000	0.6190326882
1.1500000000	0.6781873153
1.1550000000	0.7504493658
1.1600000000	0.8399894252
1.1650000000	0.9522351049
1.1700000000	1.0972720886
1.1750000000	1.2885609131
1.1800000000	1.5483220014
1.1850000000	1.9130584847
1.1900000000	2.4516691926
1.1950000000	3.2962089397
1.2000000000	4.7275191224
1.2050000000	7.4309224284
1.2100000000	13.3764649602
1.2150000000	29.4492553769
1.2200000000	72.2268989065
1.2250000000	64.9556210846
1.2300000000	25.9876077506
1.2350000000	12.2530792273
1.2400000000	7.0534510472
1.2450000000	4.6705807905
1.2500000000	3.4187094184
1.2550000000	2.7020739500
1.2600000000	2.2726460654
1.2650000000	2.0113004981
1.2700000000	1.8654022205
1.2750000000	1.8009939593
1.2800000000	1.8027241263
1.2850000000	1.8649693141
1.2900000000	1.9894274155
1.2950000000	2.1831915410
1.3000000000	2.4685265973
1.3050000000	2.8744181375
1.3100000000	3.4532881708
1.3150000000	4.2954539156
1.3200000000	5.5626151342
1.3250000000	7.5635673122
1.3300000000	10.9722922373
1.3350000000	17.3536755745
1.3400000000	30.9915576095
1.3450000000	64.8553315205
1.3500000000	137.7759365918
1.3550000000	128.5795528872
1.3600000000	59.3168406701
1.3650000000	29.1488432366
1.3700000000	16.7164891987
1.3750000000	10.7491952574
1.3800000000	7.4953817529
1.3850000000	5.5356448865
1.3900000000	4.2732376181
1.3950000000	3.4124969073
1.4000000000	2.8012749799
1.4050000000	2.3537079142
1.4100000000	2.0183082082
1.4150000000	1.7652371422
1.4200000000	1.5749487943
1.4250000000	1.4475432290
1.4300000000	1.4010081399
1.4350000000	1.4272476970
1.4400000000	1.0996072807
1.4450000000	0.0957393662
1.4500000000	-1.5336819583
1.4550000000	-0.4296734588
1.4600000000	1.8584038382
1.4650000000	1.0058733310
1.4700000000	-0.9510866970
1.4750000000	-4.1607334664
1.4800000000	-1.8518537154
1.4850000000	3.0432639032
1.4900000000	2.4668882621
1.4950000000	1.5967284123
1.5000000000	1.1218767311
1.5050000000	0.8661890169
1.5100000000	0.7204557022
1.5150000000	0.6319534265
1.5200000000	0.5747837546
1.5250000000	0.5392634841
1.5300000000	0.5121314899
1.5350000000	0.4934310483
1.5400000000	0.4811148260
1.5450000000	0.4740845354
1.5500000000	0.4716310851
1.5550000000	0.4737730125
1.5600000000	0.4817741647
1.5650000000	0.4949871616
1.5700000000	0.5163783224
1.5750000000	0.5495668437
1.5800000000	0.6013481219
1.5850000000	0.6849497502
1.5900000000	0.8282402798
1.5950000000	1.0928909647
1.6000000000	1.6091708413
1.6050000000	2.4628299998
1.6100000000	2.8581954340
1.6150000000	2.1170571813
1.6200000000	1.4217730133
1.6250000000	1.0547513259
1.6300000000	0.8704622147
1.6350000000	0.7755762384
1.6400000000	0.7274736924
1.6450000000	0.7063456239
1.6500000000	0.7022720949
1.6550000000	0.7106060310
1.6600000000	0.7285736381
1.6650000000	0.7549079861
1.6700000000	0.7891269607
1.6750000000	0.8312326124
1.6800000000	0.8816006359
1.6850000000	0.9408141141
1.6900000000	1.0093878333
1.6950000000	1.0863439333
1.7000000000	1.1703841691
1.7050000000	1.2564844444
1.7100000000	1.3547162838
1.7150000000	1.5990682398
1.7200000000	2.0278907701
1.7250000000	2.4206677780
1.7300000000	2.8421012779
1.7350000000	3.3051899363
1.7400000000	3.7596584447
1.7450000000	4.3434214912
1.7500000000	5.2261869603
1.7550000000	6.5400672965
1.7600000000	8.5058626508
1.7650000000	11.5361471763
1.7700000000	16.4174043882
1.7750000000	24.6410606027
1.7800000000	38.6540283470
1.7850000000	59.3199297994
1.7900000000	73.7189196999
1.7950000000	62.7732377071
1.8000000000	41.7774579045
1.8050000000	26.3835043740
1.8100000000	17.3953377598
1.8150000000	12.1270144036
1.8200000000	8.8848150812
1.8250000000	6.7828869316
1.8300000000	5.3557520275
1.8350000000	4.3484231783
1.8400000000	3.6145397562
1.8450000000	3.0653167674
1.8500000000	2.6448001759
1.8550000000	2.3179783349
1.8600000000	2.0604278619
1.8650000000	1.8555506209
1.8700000000	1.6915422602
1.8750000000	1.5597374229
1.8800000000	1.4532637472
1.8850000000	1.3660501910
1.8900000000	1.2911025783
1.8950000000	1.2179844284
1.9000000000	1.1286730382
1.9050000000	0.9595490689
1.9100000000	0.7268252939
1.9150000000	0.6039302017
1.9200000000	1.4750398801
1.9250000000	3.8814497939
1.9300000000	5.7898755370
1.9350000000	5.7006344792
1.9400000000	4.4835828581
1.9450000000	3.3036394771
1.9500000000	2.4751935558
1.9550000000	1.9323763794
1.9600000000	1.5736695916
1.9650000000	1.3335799155
1.9700000000	1.1602584877
1.9750000000	1.0332073963
1.9800000000	0.9362083926
1.9850000000	0.8574946201
1.9900000000	0.7880618613
1.9950000000	0.7200514446
2.0000000000	0.6523179537
2.0050000000	0.6090423642
2.0100000000	0.6338333168
2.0150000000	0.7021299598
2.0200000000	0.7442376373
2.0250000000	0.7554163882
2.0300000000	0.7579238450
2.0350000000	0.7624916916
2.0400000000	0.7731062109
2.0450000000	0.7907826109
2.0500000000	0.8161786179
2.0550000000	0.8498912553
2.0600000000	0.8919209114
2.0650000000	0.9397245604
2.0700000000	0.9869955913
2.0750000000	1.0290086414
2.0800000000	1.0699362165
2.0850000000	1.1184056809
2.0900000000	1.1802013468
2.0950000000	1.2577606113
2.1000000000	1.3537077173
2.1050000000	1.4671752778
2.1100000000	1.6061379706
2.1150000000	1.7764257302
2.1200000000	1.9862139647
2.1250000000	2.2469696958
2.1300000000	2.5748566549
2.1350000000	2.9929515165
2.1400000000	3.5345762859
2.1450000000	4.2484479023
2.1500000000	5.2055487933
2.1550000000	6.5063386382
2.1600000000	8.2793901271
2.1650000000	10.6335888794
2.1700000000	13.5253754409
2.1750000000	16.4004081675
2.1800000000	18.1767868633
2.1850000000	18.2690081234
2.1900000000	17.4611868238
2.1950000000	16.8325110115
2.2000000000	16.5536754436
2.2050000000	15.7794940084
2.2100000000	14.1359997901
2.2150000000	12.1153808384
2.2200000000	10.3014803945
2.2250000000	8.8023193601
2.2300000000	7.4821203232
2.2350000000	6.2883658396
2.2400000000	5.2629336354
2.2450000000	4.4424440810
2.2500000000	3.8134759327
2.2550000000	3.3410051774
2.2600000000	2.9872669372
2.2650000000	2.7144129068
2.2700000000	2.4815230332
2.2750000000	2.2482766032
2.2800000000	1.9971302401
2.2850000000	1.7581190646
2.2900000000	1.5929251096
2.2950000000	1.5364712585
2.3000000000	1.5565982196
2.3050000000	1.5873589191
2.3100000000	1.5899260612
2.3150000000	1.5646134135
2.3200000000	1.5282282375
2.3250000000	1.4981307037
2.3300000000	1.4832031063
2.3350000000	1.4849698509
2.3400000000	1.4984519245
2.3450000000	1.5123823474
2.3500000000	1.5125740585
2.3550000000	1.4899757927
2.3600000000	1.4471490915
2.3650000000	1.3952873613
2.3700000000	1.3459285388
2.3750000000	1.3059639593
2.3800000000	1.2776328547
2.3850000000	1.2603032402
2.3900000000	1.2525324771
2.3950000000	1.2526490046
2.4000000000	1.2611076982
2.4050000000	1.2806944254
2.4100000000	1.3123422492
2.4150000000	1.3573431891
2.4200000000	1.4164736236
2.4250000000	1.4910935425
2.4300000000	1.5831868618
2.4350000000	1.6954149702
2.4400000000	1.8312121847
2.4450000000	1.9949635600
2.4500000000	2.1922014362
2.4550000000	2.4298794334
2.4600000000	2.7165409282
2.4650000000	3.0624361944
2.4700000000	3.4793211612
2.4750000000	3.9789713586
2.4800000000	4.5735477405
2.4850000000	5.2678636964
2.4900000000	6.0551318750
2.4950000000	6.9071792004
2.5000000000	7.7644269220
2.5050000000	8.5663520812
2.5100000000	9.1081273825
2.5150000000	9.2716108247
2.5200000000	9.0286383386
2.5250000000	8.4542111519
2.5300000000	7.6790095318
2.5350000000	6.8290792967
2.5400000000	5.9934772240
2.5450000000	5.2225250825
2.5500000000	4.5386022509
2.5550000000	3.9468043262
2.5600000000	3.4389948161
2.5650000000	3.0120568502
2.5700000000	2.6559376197
2.5750000000	2.3643437937
2.5800000000	2.1325745793
2.5850000000	1.9555204944
2.5900000000	1.8247784634
2.5950000000	1.7285348476
2.6000000000	1.6544891672
2.6050000000	1.6018661001
2.6100000000	1.5563025143
2.6150000000	1.5170761018
2.6200000000	1.4849616168
2.6250000000	1.4608175838
2.6300000000	1.4452173323
2.6350000000	1.4384534073
2.6400000000	1.4406957893
2.6450000000	1.4521025451
2.6500000000	1.4729831808
2.6550000000	1.5034244339
2.6600000000	1.5438933887
2.6650000000	1.5948619570
2.6700000000	1.6569098525
2.6750000000	1.7307394995
2.6800000000	1.8171294454
2.6850000000	1.9168760207
2.6900000000	2.0306313863
2.6950000000	2.1587735783
2.7000000000	2.3011724060
2.7050000000	2.4740228424
2.7100000000	2.6626620119
2.7150000000	2.8634151553
2.7200000000	3.0709381056
2.7250000000	3.2785179613
2.7300000000	3.4785812100
2.7350000000	3.6631306069
2.7400000000	3.8238504616
2.7450000000	3.9533606098
2.7500000000	4.0402122018
2.7550000000	4.0774752866
2.7600000000	4.0598914397
2.7650000000	3.9868499610
2.7700000000	3.8632450117
2.7750000000	3.6988815192
2.7800000000	3.5065393688
2.7850000000	3.2997762327
2.7900000000	3.0907567424
2.7950000000	2.8892358108
2.8000000000	2.7021111314
2.8050000000	2.5127854970
2.8100000000	2.3507485796
2.8150000000	2.2155658030
2.8200000000	2.1050610563
2.8250000000	2.0163662892
2.8300000000	1.9465924037
2.8350000000	1.8932668032
2.8400000000	1.8537866648
2.8450000000	1.8282425188
2.8500000000	1.8147427709
2.8550000000	1.8125666362
2.8600000000	1.8211758643
2.8650000000	1.8400855160
2.8700000000	1.8687530769
2.8750000000	1.9064901691
2.8800000000	1.9523943455
2.8850000000	2.0052919436
2.8900000000	2.0637721133
2.8950000000	2.1262393076
2.9000000000	2.1910156860
2.9050000000	2.2688523127
2.9100000000	2.3435186809
2.9150000000	2.4126665446
2.9200000000	2.4738316668
2.9250000000	2.5242181816
2.9300000000	2.5612516882
2.9350000000	2.5809280371
2.9400000000	2.5815192533
2.9450000000	2.5622893928
2.9500000000	2.5243478424
2.9550000000	2.4705779441
2.9600000000	2.4051413255
2.9650000000	2.3327534183
2.9700000000	2.2579739299
2.9750000000	2.1846995745
2.9800000000	2.1159161276
2.9850000000	2.0536606746
2.9900000000	1.9991584239
2.9950000000	1.9529844543
3.0000000000	1.9152597205
