# energy (eV)    P(omega), $W$ = 300 nm, $h$ = 300 nm, $s$ = 20 nm, $d/W = 5$, $E_{\rm e}$ = 200 keV
0.2000000000	0.0712881797
0.2050000000	0.0723564493
0.2100000000	0.0733553101
0.2150000000	0.0742870237
0.2200000000	0.0751535177
0.2250000000	0.0759564305
0.2300000000	0.0766970122
0.2350000000	0.0773760917
0.2400000000	0.0779939805
0.2450000000	0.0785504411
0.2500000000	0.0790445554
0.2550000000	0.0794745719
0.2600000000	0.0798378639
0.2650000000	0.0801306156
0.2700000000	0.0803476602
0.2750000000	0.0804821500
0.2800000000	0.0805251965
0.2850000000	0.0804653725
0.2900000000	0.0802880404
0.2950000000	0.0799746283
0.3000000000	0.0795014118
0.3050000000	0.0788381598
0.3100000000	0.0779461686
0.3150000000	0.0823768312
0.3200000000	0.0876388105
0.3250000000	0.0942941390
0.3300000000	0.1032070348
0.3350000000	0.1143013131
0.3400000000	0.1288294386
0.3450000000	0.1464506563
0.3500000000	0.1695019733
0.3550000000	0.2000025784
0.3600000000	0.2398263384
0.3650000000	0.2953440070
0.3700000000	0.3685464629
0.3750000000	0.4703718750
0.3800000000	0.6176377472
0.3850000000	0.8471026118
0.3900000000	1.2096007980
0.3950000000	1.8253384036
0.4000000000	2.9991390935
0.4050000000	5.6307447789
0.4100000000	12.8113358587
0.4150000000	41.1143142903
0.4200000000	26.1959097376
0.4250000000	-49.3070078612
0.4300000000	13.7107824569
0.4350000000	8.5438788128
0.4400000000	5.2227956560
0.4450000000	3.4351095834
0.4500000000	2.4059914487
0.4550000000	1.7726836382
0.4600000000	1.3602168267
0.4650000000	1.0791460966
0.4700000000	0.8804908161
0.4750000000	0.7368190801
0.4800000000	0.6302982447
0.4850000000	0.5501437085
0.4900000000	0.4889590933
0.4950000000	0.4417792213
0.5000000000	0.4052102286
0.5050000000	0.3767620836
0.5100000000	0.3548313568
0.5150000000	0.3382375781
0.5200000000	0.3257470131
0.5250000000	0.3168036538
0.5300000000	0.3108108216
0.5350000000	0.3073321181
0.5400000000	0.3060458081
0.5450000000	0.3066831190
0.5500000000	0.3091589488
0.5550000000	0.3133217727
0.5600000000	0.3190941313
0.5650000000	0.3264412090
0.5700000000	0.3353312751
0.5750000000	0.3458264292
0.5800000000	0.3580276277
0.5850000000	0.3720007301
0.5900000000	0.3878734083
0.5950000000	0.4058062985
0.6000000000	0.4260040245
0.6050000000	0.4487632066
0.6100000000	0.4743668155
0.6150000000	0.5032014766
0.6200000000	0.5357829276
0.6250000000	0.5726056384
0.6300000000	0.6144004859
0.6350000000	0.6620784041
0.6400000000	0.7165872126
0.6450000000	0.7792950585
0.6500000000	0.8520007967
0.6550000000	0.9365769802
0.6600000000	1.0359016435
0.6650000000	1.1536676340
0.6700000000	1.2942164062
0.6750000000	1.4641683945
0.6800000000	1.6724266243
0.6850000000	1.9306540413
0.6900000000	2.2569144014
0.6950000000	2.6764713429
0.7000000000	3.2294560676
0.7050000000	3.9772187929
0.7100000000	5.0237098517
0.7150000000	6.5539727109
0.7200000000	8.9125014521
0.7250000000	12.8275046002
0.7300000000	20.0135389689
0.7350000000	35.3895806292
0.7400000000	77.5588336529
0.7450000000	257.3003738464
0.7500000000	797.1190599594
0.7550000000	200.5328751859
0.7600000000	66.4119526436
0.7650000000	31.8208729052
0.7700000000	18.5059098625
0.7750000000	12.0783025589
0.7800000000	8.5000225180
0.7850000000	6.3129797853
0.7900000000	4.8772985052
0.7950000000	3.8871405725
0.8000000000	3.1753516396
0.8050000000	2.6452272579
0.8100000000	2.2409775935
0.8150000000	1.9205221627
0.8200000000	1.6676096631
0.8250000000	1.4639673785
0.8300000000	1.2971523359
0.8350000000	1.1599994916
0.8400000000	1.0450253752
0.8450000000	0.9485471727
0.8500000000	0.8669952942
0.8550000000	0.7966194029
0.8600000000	0.7365418690
0.8650000000	0.6852255784
0.8700000000	0.6398833934
0.8750000000	0.6013135098
0.8800000000	0.5685862927
0.8850000000	0.5392445304
0.8900000000	0.5157078519
0.8950000000	0.4942967093
0.9000000000	0.4773280724
0.9050000000	0.4656430357
0.9100000000	0.4549348961
0.9150000000	0.4484413151
0.9200000000	0.4476639977
0.9250000000	0.4470885640
0.9300000000	0.4405340637
0.9350000000	0.4208562982
0.9400000000	0.3112146456
0.9450000000	-0.1871534089
0.9500000000	-2.8172730586
0.9550000000	-16.1577387686
0.9600000000	3.8126619374
0.9650000000	6.6975367404
0.9700000000	2.9706181109
0.9750000000	1.5595034623
0.9800000000	0.9773606603
0.9850000000	0.7050906001
0.9900000000	0.5482140511
0.9950000000	0.4530877521
1.0000000000	0.3923493493
1.0050000000	0.3538428984
1.0100000000	0.3239906629
1.0150000000	0.3021816858
1.0200000000	0.2874923015
1.0250000000	0.2751625108
1.0300000000	0.2657956962
1.0350000000	0.2587096582
1.0400000000	0.2542046370
1.0450000000	0.2504584347
1.0500000000	0.2479870218
1.0550000000	0.2466440735
1.0600000000	0.2467603189
1.0650000000	0.2474152349
1.0700000000	0.2489840985
1.0750000000	0.2514734380
1.0800000000	0.2551294898
1.0850000000	0.2597691280
1.0900000000	0.2666134580
1.0950000000	0.2747415467
1.1000000000	0.2844261830
1.1050000000	0.2955878377
1.1100000000	0.3085791677
1.1150000000	0.3236922542
1.1200000000	0.3412734644
1.1250000000	0.3617750969
1.1300000000	0.3858035190
1.1350000000	0.4141134204
1.1400000000	0.4475643259
1.1450000000	0.4877250536
1.1500000000	0.5363017655
1.1550000000	0.5957609189
1.1600000000	0.6695822383
1.1650000000	0.7622809716
1.1700000000	0.8823150357
1.1750000000	1.0409128967
1.1800000000	1.2566367868
1.1850000000	1.5599984702
1.1900000000	2.0085025149
1.1950000000	2.7125608469
1.2000000000	3.9067415552
1.2050000000	6.1634263511
1.2100000000	11.1276877933
1.2150000000	24.5460912360
1.2200000000	60.2411742491
1.2250000000	54.1235781385
1.2300000000	21.5900499379
1.2350000000	10.1264187405
1.2400000000	5.7842735058
1.2450000000	3.7905942788
1.2500000000	2.7388673539
1.2550000000	2.1319187165
1.2600000000	1.7626163295
1.2650000000	1.5313276721
1.2700000000	1.3934622834
1.2750000000	1.3201092254
1.2800000000	1.2975106625
1.2850000000	1.3196635333
1.2900000000	1.3860950780
1.2950000000	1.5002629375
1.3000000000	1.6762555322
1.3050000000	1.9321412023
1.3100000000	2.3015986059
1.3150000000	2.8428979310
1.3200000000	3.6607907211
1.3250000000	4.9549334355
1.3300000000	7.1625873263
1.3350000000	11.2975487445
1.3400000000	20.1351645520
1.3450000000	42.0747411486
1.3500000000	89.2934039074
1.3550000000	83.2793811800
1.3600000000	38.4042289701
1.3650000000	18.8694217205
1.3700000000	10.8213946343
1.3750000000	6.9591351325
1.3800000000	4.8532201619
1.3850000000	3.5846401557
1.3900000000	2.7670268984
1.3950000000	2.2091963968
1.4000000000	1.8124043845
1.4050000000	1.5209756438
1.4100000000	1.3011923478
1.4150000000	1.1329150523
1.4200000000	1.0019412836
1.4250000000	0.9045165225
1.4300000000	0.8426269010
1.4350000000	0.8018691647
1.4400000000	0.5515826172
1.4450000000	-0.1419575232
1.4500000000	-1.3484613232
1.4550000000	-0.4503343066
1.4600000000	1.3723954951
1.4650000000	0.7948072973
1.4700000000	-0.5081186655
1.4750000000	-2.5696305976
1.4800000000	-1.1337374499
1.4850000000	1.9421115515
1.4900000000	1.5721993102
1.4950000000	1.0200195015
1.5000000000	0.7181340455
1.5050000000	0.5547093340
1.5100000000	0.4611602032
1.5150000000	0.4038032742
1.5200000000	0.3662349620
1.5250000000	0.3423888278
1.5300000000	0.3235969372
1.5350000000	0.3099448883
1.5400000000	0.3000539717
1.5450000000	0.2931019612
1.5500000000	0.2885201697
1.5550000000	0.2860713964
1.5600000000	0.2862445560
1.5650000000	0.2880501553
1.5700000000	0.2925415470
1.5750000000	0.3005448810
1.5800000000	0.3137061507
1.5850000000	0.3352668898
1.5900000000	0.3720850319
1.5950000000	0.4393218929
1.6000000000	0.5689309236
1.6050000000	0.7816551439
1.6100000000	0.8808810704
1.6150000000	0.7016495689
1.6200000000	0.5354548804
1.6250000000	0.4509991930
1.6300000000	0.4122676311
1.6350000000	0.3963406897
1.6400000000	0.3928369000
1.6450000000	0.3970081098
1.6500000000	0.4065434335
1.6550000000	0.4204950517
1.6600000000	0.4383803531
1.6650000000	0.4601356990
1.6700000000	0.4859426546
1.6750000000	0.5161738635
1.6800000000	0.5513736481
1.6850000000	0.5922684164
1.6900000000	0.6397019779
1.6950000000	0.6941635367
1.7000000000	0.7568527099
1.7050000000	0.8293793686
1.7100000000	0.9172842724
1.7150000000	1.0650746156
1.7200000000	1.2883125904
1.7250000000	1.5295717482
1.7300000000	1.8164139418
1.7350000000	2.1267736136
1.7400000000	2.4133291373
1.7450000000	2.7744867146
1.7500000000	3.3281065303
1.7550000000	4.1584613491
1.7600000000	5.4042551388
1.7650000000	7.3261978271
1.7700000000	10.4222361014
1.7750000000	15.6368813069
1.7800000000	24.5183462559
1.7850000000	37.6062236266
1.7900000000	46.7036574275
1.7950000000	39.7375317693
1.8000000000	26.4210750487
1.8050000000	16.6661928793
1.8100000000	10.9732078148
1.8150000000	7.6372272292
1.8200000000	5.5843710661
1.8250000000	4.2532605071
1.8300000000	3.3489890509
1.8350000000	2.7100284696
1.8400000000	2.2436666952
1.8450000000	1.8935926279
1.8500000000	1.6242807236
1.8550000000	1.4134571699
1.8600000000	1.2454557350
1.8650000000	1.1095081308
1.8700000000	0.9977683416
1.8750000000	0.9042186652
1.8800000000	0.8237375907
1.8850000000	0.7513325928
1.8900000000	0.6808255920
1.8950000000	0.6028577291
1.9000000000	0.5015706967
1.9050000000	0.3252088816
1.9100000000	0.0719591918
1.9150000000	-0.1717209408
1.9200000000	0.1236130653
1.9250000000	1.3035456707
1.9300000000	2.2461107176
1.9350000000	2.2670720193
1.9400000000	1.8198077850
1.9450000000	1.3791455870
1.9500000000	1.0668231639
1.9550000000	0.8602396979
1.9600000000	0.7225771311
1.9650000000	0.6308466710
1.9700000000	0.5633237030
1.9750000000	0.5138103575
1.9800000000	0.4762299212
1.9850000000	0.4462245577
1.9900000000	0.4205501936
1.9950000000	0.3964568050
2.0000000000	0.3734503164
2.0050000000	0.3597687270
2.0100000000	0.3689642702
2.0150000000	0.3929453452
2.0200000000	0.4091451136
2.0250000000	0.4161814848
2.0300000000	0.4215426575
2.0350000000	0.4286934297
2.0400000000	0.4393179098
2.0450000000	0.4541300236
2.0500000000	0.4738550814
2.0550000000	0.4992143043
2.0600000000	0.5302490438
2.0650000000	0.5644848792
2.0700000000	0.5957621004
2.0750000000	0.6192708570
2.0800000000	0.6385887983
2.0850000000	0.6614896817
2.0900000000	0.6929188611
2.0950000000	0.7345915120
2.1000000000	0.7878229022
2.1050000000	0.8518120326
2.1100000000	0.9310171337
2.1150000000	1.0286340738
2.1200000000	1.1492586344
2.1250000000	1.2994118180
2.1300000000	1.4883329503
2.1350000000	1.7292415463
2.1400000000	2.0412300451
2.1450000000	2.4522056513
2.1500000000	3.0028083194
2.1550000000	3.7505186795
2.1600000000	4.7688799602
2.1650000000	6.1202174609
2.1700000000	7.7807756583
2.1750000000	9.4366160408
2.1800000000	10.4765001987
2.1850000000	10.5739313624
2.1900000000	10.1790648532
2.1950000000	9.8989138111
2.2000000000	9.8010362867
2.2050000000	9.3405645338
2.2100000000	8.2843419729
2.2150000000	6.9553795663
2.2200000000	5.7466204332
2.2250000000	4.7671378049
2.2300000000	3.9629574156
2.2350000000	3.2898597500
2.2400000000	2.7371606969
2.2450000000	2.3007276172
2.2500000000	1.9625173460
2.2550000000	1.7007690288
2.2600000000	1.4953355793
2.2650000000	1.3280547847
2.2700000000	1.1817326672
2.2750000000	1.0418364678
2.2800000000	0.9049872856
2.2850000000	0.7878920506
2.2900000000	0.7190128776
2.2950000000	0.7111114612
2.3000000000	0.7422233215
2.3050000000	0.7750145051
2.3100000000	0.7865978509
2.3150000000	0.7776923020
2.3200000000	0.7581930214
2.3250000000	0.7382702728
2.3300000000	0.7233233575
2.3350000000	0.7149283003
2.3400000000	0.7118989585
2.3450000000	0.7107847086
2.3500000000	0.7071409992
2.3550000000	0.6981285165
2.3600000000	0.6845327805
2.3650000000	0.6698171236
2.3700000000	0.6575017016
2.3750000000	0.6495431314
2.3800000000	0.6462556962
2.3850000000	0.6468536477
2.3900000000	0.6503332815
2.3950000000	0.6557325727
2.4000000000	0.6635305504
2.4050000000	0.6757614454
2.4100000000	0.6932893891
2.4150000000	0.7173079794
2.4200000000	0.7486403994
2.4250000000	0.7881693484
2.4300000000	0.8369781745
2.4350000000	0.8964557896
2.4400000000	0.9683896226
2.4450000000	1.0550715799
2.4500000000	1.1594064296
2.4550000000	1.2850592933
2.4600000000	1.4365366968
2.4650000000	1.6192715846
2.4700000000	1.8395155597
2.4750000000	2.1035722430
2.4800000000	2.4180935835
2.4850000000	2.7858421267
2.4900000000	3.2033718062
2.4950000000	3.6554514101
2.5000000000	4.1091994724
2.5050000000	4.5297458718
2.5100000000	4.8054952745
2.5150000000	4.8738488673
2.5200000000	4.7243419676
2.5250000000	4.4033421535
2.5300000000	3.9845274427
2.5350000000	3.5347396973
2.5400000000	3.0980916821
2.5450000000	2.6976031107
2.5500000000	2.3425437802
2.5550000000	2.0345058142
2.5600000000	1.7690952539
2.5650000000	1.5453458747
2.5700000000	1.3585069353
2.5750000000	1.2057079853
2.5800000000	1.0847546929
2.5850000000	0.9930576286
2.5900000000	0.9260890639
2.5950000000	0.8773504666
2.6000000000	0.8400487854
2.6050000000	0.8134320991
2.6100000000	0.7898338267
2.6150000000	0.7689374690
2.6200000000	0.7512336203
2.6250000000	0.7372252736
2.6300000000	0.7272350219
2.6350000000	0.7214175376
2.6400000000	0.7198542457
2.6450000000	0.7226277846
2.6500000000	0.7299079706
2.6550000000	0.7417327171
2.6600000000	0.7583615525
2.6650000000	0.7800413624
2.6700000000	0.8070629417
2.6750000000	0.8397663457
2.6800000000	0.8785151478
2.6850000000	0.9236814077
2.6900000000	0.9755942701
2.6950000000	1.0345056653
2.7000000000	1.1005081481
2.7050000000	1.1813244638
2.7100000000	1.2708101411
2.7150000000	1.3678731246
2.7200000000	1.4706783686
2.7250000000	1.5766164129
2.7300000000	1.6823095076
2.7350000000	1.7836234047
2.7400000000	1.8756401366
2.7450000000	1.9534522566
2.7500000000	2.0097723409
2.7550000000	2.0397765780
2.7600000000	2.0398220456
2.7650000000	2.0091063513
2.7700000000	1.9500759724
2.7750000000	1.8680134885
2.7800000000	1.7698910360
2.7850000000	1.6631243381
2.7900000000	1.5543570569
2.7950000000	1.4489143916
2.8000000000	1.3505643398
2.8050000000	1.2506657273
2.8100000000	1.1646697650
2.8150000000	1.0923840347
2.8200000000	1.0326793644
2.8250000000	0.9840545002
2.8300000000	0.9449952283
2.8350000000	0.9142126483
2.8400000000	0.8903356603
2.8450000000	0.8734477470
2.8500000000	0.8625416247
2.8550000000	0.8572364358
2.8600000000	0.8572513622
2.8650000000	0.8623480306
2.8700000000	0.8722941386
2.8750000000	0.8868243219
2.8800000000	0.9056144484
2.8850000000	0.9282538120
2.8900000000	0.9542522784
2.8950000000	0.9830288469
2.9000000000	1.0139445863
2.9050000000	1.0530384320
2.9100000000	1.0921094641
2.9150000000	1.1297626720
2.9200000000	1.1643965391
2.9250000000	1.1941629180
2.9300000000	1.2173403068
2.9350000000	1.2315140949
2.9400000000	1.2355337634
2.9450000000	1.2288371181
2.9500000000	1.2118833478
2.9550000000	1.1861143939
2.9600000000	1.1536747919
2.9650000000	1.1170335500
2.9700000000	1.0786057809
2.9750000000	1.0404738383
2.9800000000	1.0042479928
2.9850000000	0.9710411033
2.9900000000	0.9415389516
2.9950000000	0.9160740082
3.0000000000	0.8947427054
