# energy (eV)    P(omega), $W$ = 300 nm, $h$ = 300 nm, $s$ = 20 nm, $d/W = 5$, $E_{\rm e}$ = 200 keV
0.2000000000	0.1975594845
0.2050000000	0.2003976404
0.2100000000	0.2030654780
0.2150000000	0.2055683215
0.2200000000	0.2079107614
0.2250000000	0.2100965927
0.2300000000	0.2121286027
0.2350000000	0.2140085334
0.2400000000	0.2157368809
0.2450000000	0.2173124720
0.2500000000	0.2187327003
0.2550000000	0.2199925586
0.2600000000	0.2210847313
0.2650000000	0.2219990199
0.2700000000	0.2227214444
0.2750000000	0.2232337056
0.2800000000	0.2235120838
0.2850000000	0.2235262492
0.2900000000	0.2232372360
0.2950000000	0.2225959128
0.3000000000	0.2215390091
0.3050000000	0.2199865936
0.3100000000	0.2178360487
0.3150000000	0.2295722185
0.3200000000	0.2435125613
0.3250000000	0.2611347525
0.3300000000	0.2847161827
0.3350000000	0.3140786120
0.3400000000	0.3525331772
0.3450000000	0.3992161266
0.3500000000	0.4603111024
0.3550000000	0.5411915014
0.3600000000	0.6468757806
0.3650000000	0.7942805081
0.3700000000	0.9888350617
0.3750000000	1.2596740268
0.3800000000	1.6516659507
0.3850000000	2.2628394419
0.3900000000	3.2290918271
0.3950000000	4.8715923089
0.4000000000	8.0048878392
0.4050000000	15.0343542451
0.4100000000	34.2289173739
0.4150000000	109.9406492861
0.4200000000	69.9800811555
0.4250000000	-132.1007734286
0.4300000000	36.8122473739
0.4350000000	22.9693295662
0.4400000000	14.0624430014
0.4450000000	9.2646082491
0.4500000000	6.5008029472
0.4550000000	4.7989470986
0.4600000000	3.6899055784
0.4650000000	2.9337683082
0.4700000000	2.3990994793
0.4750000000	2.0122904031
0.4800000000	1.7254427570
0.4850000000	1.5095951784
0.4900000000	1.3448710166
0.4950000000	1.2179212066
0.5000000000	1.1196239556
0.5050000000	1.0432786573
0.5100000000	0.9845794798
0.5150000000	0.9403580814
0.5200000000	0.9072831183
0.5250000000	0.8838708530
0.5300000000	0.8685155380
0.5350000000	0.8600460860
0.5400000000	0.8576005810
0.5450000000	0.8604594200
0.5500000000	0.8684082890
0.5550000000	0.8810457898
0.5600000000	0.8981763459
0.5650000000	0.9197173772
0.5700000000	0.9455990112
0.5750000000	0.9760064221
0.5800000000	1.0112406822
0.5850000000	1.0514995800
0.5900000000	1.0971594967
0.5950000000	1.1486871424
0.6000000000	1.2066762876
0.6050000000	1.2719780714
0.6100000000	1.3454123996
0.6150000000	1.4280920097
0.6200000000	1.5215021513
0.6250000000	1.6270649156
0.6300000000	1.7468821675
0.6350000000	1.8835738023
0.6400000000	2.0398669224
0.6450000000	2.2196960106
0.6500000000	2.4282358138
0.6550000000	2.6708743702
0.6600000000	2.9558896515
0.6650000000	3.2939114176
0.6700000000	3.6974367442
0.6750000000	4.1855147639
0.6800000000	4.7837932642
0.6850000000	5.5258461259
0.6900000000	6.4637159090
0.6950000000	7.6701642069
0.7000000000	9.2608410378
0.7050000000	11.4125397575
0.7100000000	14.4249082789
0.7150000000	18.8314216902
0.7200000000	25.6254624998
0.7250000000	36.9073006439
0.7300000000	57.6230717462
0.7350000000	101.9658407070
0.7400000000	223.6256529814
0.7450000000	742.4152701087
0.7500000000	2301.7079123388
0.7550000000	579.4794978097
0.7600000000	192.0564823504
0.7650000000	92.0936043209
0.7700000000	53.6003453059
0.7750000000	35.0112156921
0.7800000000	24.6586957900
0.7850000000	18.3289548088
0.7900000000	14.1723284714
0.7950000000	11.3045654206
0.8000000000	9.2423308875
0.8050000000	7.7059067857
0.8100000000	6.5338977696
0.8150000000	5.6044623427
0.8200000000	4.8706971001
0.8250000000	4.2797120954
0.8300000000	3.7954410385
0.8350000000	3.3971935335
0.8400000000	3.0632678846
0.8450000000	2.7830002473
0.8500000000	2.5460736009
0.8550000000	2.3415587718
0.8600000000	2.1669681184
0.8650000000	2.0178731105
0.8700000000	1.8860957591
0.8750000000	1.7740588416
0.8800000000	1.6790789462
0.8850000000	1.5939152685
0.8900000000	1.5257804968
0.8950000000	1.4637914879
0.9000000000	1.4148606048
0.9050000000	1.3815356372
0.9100000000	1.3510148507
0.9150000000	1.3329589897
0.9200000000	1.3318872165
0.9250000000	1.3313232248
0.9300000000	1.3127066776
0.9350000000	1.2544175716
0.9400000000	0.9253755632
0.9450000000	-0.5740227781
0.9500000000	-8.4948559676
0.9550000000	-48.6993263948
0.9600000000	11.5027197116
0.9650000000	20.2172992883
0.9700000000	8.9731829625
0.9750000000	4.7128322445
0.9800000000	2.9543050530
0.9850000000	2.1316092221
0.9900000000	1.6573489628
0.9950000000	1.3696727419
1.0000000000	1.1859565140
1.0050000000	1.0695348964
1.0100000000	0.9791780621
1.0150000000	0.9131280629
1.0200000000	0.8686596137
1.0250000000	0.8312375562
1.0300000000	0.8027455350
1.0350000000	0.7811142778
1.0400000000	0.7672975678
1.0450000000	0.7556809706
1.0500000000	0.7478635880
1.0550000000	0.7433977130
1.0600000000	0.7433161056
1.0650000000	0.7447450854
1.0700000000	0.7488449772
1.0750000000	0.7556293796
1.0800000000	0.7658588400
1.0850000000	0.7788636126
1.0900000000	0.7982476700
1.0950000000	0.8212994005
1.1000000000	0.8488279900
1.1050000000	0.8804800986
1.1100000000	0.9172895341
1.1150000000	0.9600720913
1.1200000000	1.0098287148
1.1250000000	1.0677019651
1.1300000000	1.1354183671
1.1350000000	1.2150629621
1.1400000000	1.3090491775
1.1450000000	1.4216069012
1.1500000000	1.5574814435
1.1550000000	1.7234645227
1.1600000000	1.9291364328
1.1650000000	2.1869648214
1.1700000000	2.5201182246
1.1750000000	2.9595169401
1.1800000000	3.5562041025
1.1850000000	4.3940321499
1.1900000000	5.6312694950
1.1950000000	7.5712637377
1.2000000000	10.8591415444
1.2050000000	17.0691713257
1.2100000000	30.7267804963
1.2150000000	67.6478243194
1.2200000000	165.9126736154
1.2250000000	149.2089613413
1.2300000000	59.6949843893
1.2350000000	28.1452638981
1.2400000000	16.2011218504
1.2450000000	10.7273468400
1.2500000000	7.8515716362
1.2550000000	6.2052644547
1.2600000000	5.2186758491
1.2650000000	4.6181593667
1.2700000000	4.2827976690
1.2750000000	4.1345795285
1.2800000000	4.1382280012
1.2850000000	4.2808074323
1.2900000000	4.5661927520
1.2950000000	5.0106439246
1.3000000000	5.6652448063
1.3050000000	6.5964950215
1.3100000000	7.9246766935
1.3150000000	9.8570255562
1.3200000000	12.7645726346
1.3250000000	17.3558653973
1.3300000000	25.1774079987
1.3350000000	39.8199403777
1.3400000000	71.1130256195
1.3450000000	148.8157847191
1.3500000000	316.1367951376
1.3550000000	295.0343103779
1.3600000000	136.1062275614
1.3650000000	66.8838213547
1.3700000000	38.3570196523
1.3750000000	24.6647044135
1.3800000000	17.1986351018
1.3850000000	12.7018991421
1.3900000000	9.8052232518
1.3950000000	7.8301928764
1.4000000000	6.4276925439
1.4050000000	5.4007011026
1.4100000000	4.6310721988
1.4150000000	4.0503289422
1.4200000000	3.6136021954
1.4250000000	3.3210736636
1.4300000000	3.2138953244
1.4350000000	3.2733740739
1.4400000000	2.5210848817
1.4450000000	0.2170473365
1.4500000000	-3.5237661775
1.4550000000	-0.9881517724
1.4600000000	4.2664541207
1.4650000000	2.3099293839
1.4700000000	-2.1809115261
1.4750000000	-9.5454348080
1.4800000000	-4.2483318699
1.4850000000	6.9826068580
1.4900000000	5.6601188530
1.4950000000	3.6636282140
1.5000000000	2.5741240396
1.5050000000	1.9874610090
1.5100000000	1.6530783232
1.5150000000	1.4500049324
1.5200000000	1.3188200166
1.5250000000	1.2373075166
1.5300000000	1.1750380107
1.5350000000	1.1321116272
1.5400000000	1.1038301111
1.5450000000	1.0876721293
1.5500000000	1.0820095175
1.5550000000	1.0868820277
1.5600000000	1.1051860467
1.5650000000	1.1354298088
1.5700000000	1.1844101959
1.5750000000	1.2604149846
1.5800000000	1.3790062955
1.5850000000	1.5704769968
1.5900000000	1.8986498200
1.5950000000	2.5047600576
1.6000000000	3.6871386404
1.6050000000	5.6421558217
1.6100000000	6.5476005042
1.6150000000	4.8503195260
1.6200000000	3.2580799096
1.6250000000	2.4176179198
1.6300000000	1.9956460260
1.6350000000	1.7784275539
1.6400000000	1.6683589209
1.6450000000	1.6200765012
1.6500000000	1.6108639482
1.6550000000	1.6300809175
1.6600000000	1.6713773202
1.6650000000	1.7318545036
1.6700000000	1.8104118318
1.6750000000	1.9070579476
1.6800000000	2.0226584485
1.6850000000	2.1585551980
1.6900000000	2.3159354121
1.6950000000	2.4925686931
1.7000000000	2.6855003467
1.7050000000	2.8832601392
1.7100000000	3.1089451320
1.7150000000	3.6694926680
1.7200000000	4.6527918203
1.7250000000	5.5538817175
1.7300000000	6.5210500747
1.7350000000	7.5837544099
1.7400000000	8.6264549758
1.7450000000	9.9657154286
1.7500000000	11.9910358188
1.7550000000	15.0055379369
1.7600000000	19.5158041929
1.7650000000	26.4684239580
1.7700000000	37.6678754610
1.7750000000	56.5360365847
1.7800000000	88.6870019558
1.7850000000	136.1021400243
1.7900000000	169.1384122425
1.7950000000	144.0245626553
1.8000000000	95.8523071179
1.8050000000	60.5328723398
1.8100000000	39.9107223179
1.8150000000	27.8232697296
1.8200000000	20.3844854180
1.8250000000	15.5618960457
1.8300000000	12.2875227277
1.8350000000	9.9763310715
1.8400000000	8.2925160070
1.8450000000	7.0323714128
1.8500000000	6.0675172678
1.8550000000	5.3176227818
1.8600000000	4.7266494652
1.8650000000	4.2565119729
1.8700000000	3.8801224832
1.8750000000	3.5775929560
1.8800000000	3.3331465128
1.8850000000	3.1328401370
1.8900000000	2.9606056545
1.8950000000	2.7924649702
1.9000000000	2.5870137991
1.9050000000	2.1981486328
1.9100000000	1.6629221678
1.9150000000	1.3789605363
1.9200000000	3.3745139111
1.9250000000	8.8915408938
1.9300000000	13.2669502962
1.9350000000	13.0631298727
1.9400000000	10.2746696335
1.9450000000	7.5711463470
1.9500000000	5.6729499722
1.9550000000	4.4291840651
1.9600000000	3.6072594772
1.9650000000	3.0571338570
1.9700000000	2.6599807489
1.9750000000	2.3688525607
1.9800000000	2.1465892088
1.9850000000	1.9662305274
1.9900000000	1.8071471439
1.9950000000	1.6513353566
2.0000000000	1.4961699270
2.0050000000	1.3970453533
2.0100000000	1.4538459491
2.0150000000	1.6103103579
2.0200000000	1.7067942323
2.0250000000	1.7324417491
2.0300000000	1.7382403157
2.0350000000	1.7487721412
2.0400000000	1.7731730096
2.0450000000	1.8137732028
2.0500000000	1.8720855372
2.0550000000	1.9494840537
2.0600000000	2.0459700687
2.0650000000	2.1556981529
2.0700000000	2.2641715631
2.0750000000	2.3605256235
2.0800000000	2.4543452524
2.0850000000	2.5654539975
2.0900000000	2.7071390897
2.0950000000	2.8849950225
2.1000000000	3.1050383617
2.1050000000	3.3652757799
2.1100000000	3.6839967293
2.1150000000	4.0745710427
2.1200000000	4.5557488301
2.1250000000	5.1538304596
2.1300000000	5.9058887639
2.1350000000	6.8648529652
2.1400000000	8.1071504802
2.1450000000	9.7445192400
2.1500000000	11.9397650576
2.1550000000	14.9233024408
2.1600000000	18.9900261411
2.1650000000	24.3896752338
2.1700000000	31.0223564824
2.1750000000	37.6166679556
2.1800000000	41.6912509619
2.1850000000	41.9032977811
2.1900000000	40.0512742719
2.1950000000	38.6102850331
2.2000000000	37.9714778714
2.2050000000	36.1955952514
2.2100000000	32.4246799355
2.2150000000	27.7881082092
2.2200000000	23.6256932416
2.2250000000	20.1857542950
2.2300000000	17.1571604955
2.2350000000	14.4192851009
2.2400000000	12.0677632438
2.2450000000	10.1862859240
2.2500000000	8.7439454011
2.2550000000	7.6603901315
2.2600000000	6.8490199802
2.2650000000	6.2230680866
2.2700000000	5.6887551607
2.2750000000	5.1537040609
2.2800000000	4.5777573881
2.2850000000	4.0297980462
2.2900000000	3.6512176466
2.2950000000	3.5220283464
2.3000000000	3.5684267768
2.3050000000	3.6391618714
2.3100000000	3.6451711120
2.3150000000	3.5871808945
2.3200000000	3.5037437394
2.3250000000	3.4346797034
2.3300000000	3.4003648378
2.3350000000	3.4043041051
2.3400000000	3.4350976456
2.3450000000	3.4669395008
2.3500000000	3.4673342592
2.3550000000	3.4155500699
2.3600000000	3.3174540916
2.3650000000	3.1986838626
2.3700000000	3.0856657923
2.3750000000	2.9941820149
2.3800000000	2.9293567184
2.3850000000	2.8897353493
2.3900000000	2.8720070617
2.3950000000	2.8723378015
2.4000000000	2.8917735696
2.4050000000	2.9367092047
2.4100000000	3.0092889104
2.4150000000	3.1124814053
2.4200000000	3.2480720255
2.4250000000	3.4191813334
2.4300000000	3.6303587513
2.4350000000	3.8877068567
2.4400000000	4.1991006872
2.4450000000	4.5745947775
2.4500000000	5.0268752174
2.4550000000	5.5718867655
2.4600000000	6.2292199819
2.4650000000	7.0223795652
2.4700000000	7.9783228604
2.4750000000	9.1240531332
2.4800000000	10.4874587451
2.4850000000	12.0795797252
2.4900000000	13.8848538637
2.4950000000	15.8386741376
2.5000000000	17.8044057301
2.5050000000	19.6432314781
2.5100000000	20.8854285674
2.5150000000	21.2600889685
2.5200000000	20.7026829769
2.5250000000	19.3852744140
2.5300000000	17.6075769576
2.5350000000	15.6586244688
2.5400000000	13.7425938628
2.5450000000	11.9748341071
2.5500000000	10.4066315279
2.5550000000	9.0496575668
2.5600000000	7.8852534429
2.5650000000	6.9062799558
2.5700000000	6.0896923589
2.5750000000	5.4210647815
2.5800000000	4.8896217068
2.5850000000	4.4836479326
2.5900000000	4.1838737195
2.5950000000	3.9632065110
2.6000000000	3.7934369812
2.6050000000	3.6727833475
2.6100000000	3.5683090661
2.6150000000	3.4783585140
2.6200000000	3.4047092454
2.6250000000	3.3493305635
2.6300000000	3.3135371979
2.6350000000	3.2980001778
2.6400000000	3.3031088678
2.6450000000	3.3292260237
2.6500000000	3.3770613193
2.6550000000	3.4468135923
2.6600000000	3.5395540510
2.6650000000	3.6563648178
2.6700000000	3.7985749854
2.6750000000	3.9677951143
2.6800000000	4.1658096486
2.6850000000	4.3944440859
2.6900000000	4.6551935831
2.6950000000	4.9489258316
2.7000000000	5.2753439783
2.7050000000	5.6715742833
2.7100000000	6.1040130332
2.7150000000	6.5642437245
2.7200000000	7.0400238385
2.7250000000	7.5159715217
2.7300000000	7.9747277332
2.7350000000	8.3979552577
2.7400000000	8.7665797041
2.7450000000	9.0636655986
2.7500000000	9.2629455233
2.7550000000	9.3485146995
2.7600000000	9.3083050794
2.7650000000	9.1409104759
2.7700000000	8.8575519268
2.7750000000	8.4807138952
2.7800000000	8.0397038905
2.7850000000	7.5656136900
2.7900000000	7.0863399054
2.7950000000	6.6242532125
2.8000000000	6.1951718200
2.8050000000	5.7610389538
2.8100000000	5.3894746035
2.8150000000	5.0794825102
2.8200000000	4.8260731361
2.8250000000	4.6226699846
2.8300000000	4.4626482072
2.8350000000	4.3403384260
2.8400000000	4.2497721870
2.8450000000	4.1911574370
2.8500000000	4.1601565736
2.8550000000	4.1551168791
2.8600000000	4.1748041357
2.8650000000	4.2181064747
2.8700000000	4.2837805934
2.8750000000	4.3702491590
2.8800000000	4.4754446468
2.8850000000	4.5966782172
2.8900000000	4.7307178231
2.8950000000	4.8739079469
2.9000000000	5.0224041035
2.9050000000	5.2008633317
2.9100000000	5.3720726785
2.9150000000	5.5306455826
2.9200000000	5.6709280563
2.9250000000	5.7865043408
2.9300000000	5.8714670801
2.9350000000	5.9166308865
2.9400000000	5.9180305634
2.9450000000	5.8739766785
2.9500000000	5.7870114359
2.9550000000	5.6637455380
2.9600000000	5.5137212502
2.9650000000	5.3477509376
2.9700000000	5.1762904023
2.9750000000	5.0082753461
2.9800000000	4.8505525582
2.9850000000	4.7077937363
2.9900000000	4.5828086949
2.9950000000	4.4769165218
3.0000000000	4.3903949684
