# energy (eV)    P(omega), $W$ = 300 nm, $h$ = 300 nm, $s$ = 20 nm, $d/W = 5$, $E_{\rm e}$ = 200 keV
0.2000000000	0.0528927708
0.2050000000	0.0536982289
0.2100000000	0.0544467353
0.2150000000	0.0551401917
0.2200000000	0.0557803102
0.2250000000	0.0563685042
0.2300000000	0.0569059025
0.2350000000	0.0573932912
0.2400000000	0.0578310701
0.2450000000	0.0582191833
0.2500000000	0.0585570643
0.2550000000	0.0588434937
0.2600000000	0.0590765747
0.2650000000	0.0592534874
0.2700000000	0.0593703996
0.2750000000	0.0594221789
0.2800000000	0.0594021330
0.2850000000	0.0593016241
0.2900000000	0.0591096042
0.2950000000	0.0588119961
0.3000000000	0.0583908335
0.3050000000	0.0578232197
0.3100000000	0.0570798287
0.3150000000	0.0604414462
0.3200000000	0.0644336020
0.3250000000	0.0694863910
0.3300000000	0.0762594601
0.3350000000	0.0846876963
0.3400000000	0.0957242080
0.3450000000	0.1090985309
0.3500000000	0.1265871174
0.3550000000	0.1497156518
0.3600000000	0.1798910974
0.3650000000	0.2219371905
0.3700000000	0.2773218813
0.3750000000	0.3543026336
0.3800000000	0.4655542974
0.3850000000	0.6387924011
0.3900000000	0.9122524337
0.3950000000	1.3763951368
0.4000000000	2.2605840873
0.4050000000	4.2415145158
0.4100000000	9.6425969558
0.4150000000	30.9154386155
0.4200000000	19.7107178811
0.4250000000	-36.9980233205
0.4300000000	10.2680250737
0.4350000000	6.3902450592
0.4400000000	3.9005471465
0.4450000000	2.5613799030
0.4500000000	1.7909905346
0.4550000000	1.3172031721
0.4600000000	1.0088130891
0.4650000000	0.7987780629
0.4700000000	0.6503983624
0.4750000000	0.5431233098
0.4800000000	0.4636037821
0.4850000000	0.4037670833
0.4900000000	0.3580800611
0.4950000000	0.3228299162
0.5000000000	0.2954783832
0.5050000000	0.2741651180
0.5100000000	0.2576901650
0.5150000000	0.2451692221
0.5200000000	0.2356838367
0.5250000000	0.2288151204
0.5300000000	0.2241177303
0.5350000000	0.2212645546
0.5400000000	0.2200141040
0.5450000000	0.2201647408
0.5500000000	0.2216486532
0.5550000000	0.2243509098
0.5600000000	0.2282102586
0.5650000000	0.2331974239
0.5700000000	0.2392841695
0.5750000000	0.2465120854
0.5800000000	0.2549484757
0.5850000000	0.2646363673
0.5900000000	0.2756621156
0.5950000000	0.2881362978
0.6000000000	0.3021992489
0.6050000000	0.3180580340
0.6100000000	0.3359075764
0.6150000000	0.3560163543
0.6200000000	0.3787427854
0.6250000000	0.4044301212
0.6300000000	0.4335867682
0.6350000000	0.4668461804
0.6400000000	0.5048666277
0.6450000000	0.5485998970
0.6500000000	0.5992964169
0.6550000000	0.6582571092
0.6600000000	0.7274832603
0.6650000000	0.8095399892
0.6700000000	0.9074424355
0.6750000000	1.0257908652
0.6800000000	1.1707686208
0.6850000000	1.3504727028
0.6900000000	1.5774432128
0.6950000000	1.8692145396
0.7000000000	2.2536352577
0.7050000000	2.7732674614
0.7100000000	3.5002137410
0.7150000000	4.5628070123
0.7200000000	6.1998968617
0.7250000000	8.9162808501
0.7300000000	13.9002334449
0.7350000000	24.5600435971
0.7400000000	53.7823963068
0.7450000000	178.2803986009
0.7500000000	551.8742683891
0.7550000000	138.7252860686
0.7600000000	45.9058620242
0.7650000000	21.9778529686
0.7700000000	12.7712631657
0.7750000000	8.3287340230
0.7800000000	5.8565508698
0.7850000000	4.3461445533
0.7900000000	3.3550259762
0.7950000000	2.6717339594
0.8000000000	2.1807231549
0.8050000000	1.8151654426
0.8100000000	1.5365090750
0.8150000000	1.3157097561
0.8200000000	1.1415058532
0.8250000000	1.0012843434
0.8300000000	0.8864609899
0.8350000000	0.7920784660
0.8400000000	0.7129815454
0.8450000000	0.6466241926
0.8500000000	0.5905400886
0.8550000000	0.5421562022
0.8600000000	0.5008544233
0.8650000000	0.4655708180
0.8700000000	0.4344036482
0.8750000000	0.4078791766
0.8800000000	0.3853551077
0.8850000000	0.3651629884
0.8900000000	0.3489259077
0.8950000000	0.3341562357
0.9000000000	0.3224066959
0.9050000000	0.3142326554
0.9100000000	0.3067363756
0.9150000000	0.3020865354
0.9200000000	0.3012812982
0.9250000000	0.3006287254
0.9300000000	0.2960151660
0.9350000000	0.2827205435
0.9400000000	0.2096717347
0.9450000000	-0.1214322910
0.9500000000	-1.8668780207
0.9550000000	-10.7131565283
0.9600000000	2.5267265737
0.9650000000	4.4348640403
0.9700000000	1.9660948790
0.9750000000	1.0320224653
0.9800000000	0.6468860683
0.9850000000	0.4668049137
0.9900000000	0.3630954509
0.9950000000	0.3002272989
1.0000000000	0.2600910496
1.0050000000	0.2346337932
1.0100000000	0.2149174570
1.0150000000	0.2005194062
1.0200000000	0.1908153955
1.0250000000	0.1826885278
1.0300000000	0.1765252717
1.0350000000	0.1718758749
1.0400000000	0.1689295277
1.0450000000	0.1665027230
1.0500000000	0.1649285833
1.0550000000	0.1641112031
1.0600000000	0.1642623831
1.0650000000	0.1647918332
1.0700000000	0.1659418409
1.0750000000	0.1677174542
1.0800000000	0.1702786235
1.0850000000	0.1735265309
1.0900000000	0.1782867444
1.0950000000	0.1839326093
1.1000000000	0.1906476108
1.1050000000	0.1983999475
1.1100000000	0.2074273831
1.1150000000	0.2179350024
1.1200000000	0.2301583171
1.1250000000	0.2444380177
1.1300000000	0.2611919364
1.1350000000	0.2809533293
1.1400000000	0.3043209367
1.1450000000	0.3324233076
1.1500000000	0.3664584284
1.1550000000	0.4081715145
1.1600000000	0.4600249354
1.1650000000	0.5252052171
1.1700000000	0.6097210777
1.1750000000	0.7215143488
1.1800000000	0.8737263943
1.1850000000	1.0879668196
1.1900000000	1.4049150928
1.1950000000	1.9027792455
1.2000000000	2.7475608755
1.2050000000	4.3442859497
1.2100000000	7.8567612809
1.2150000000	17.3484002319
1.2200000000	42.5824794582
1.2250000000	38.2212114513
1.2300000000	15.2114647681
1.2350000000	7.1070574928
1.2400000000	4.0368068627
1.2450000000	2.6255258657
1.2500000000	1.8790784250
1.2550000000	1.4460379794
1.2600000000	1.1799411883
1.2650000000	1.0102739172
1.2700000000	0.9051931902
1.2750000000	0.8440015575
1.2800000000	0.8165211406
1.2850000000	0.8178793611
1.2900000000	0.8468268866
1.2950000000	0.9046389442
1.3000000000	0.9990803256
1.3050000000	1.1399760701
1.3100000000	1.3462652071
1.3150000000	1.6508750918
1.3200000000	2.1132456827
1.3250000000	2.8464910481
1.3300000000	4.0991493033
1.3350000000	6.4466676452
1.3400000000	11.4643961366
1.3450000000	23.9181139389
1.3500000000	50.7060729069
1.3550000000	47.2587521640
1.3600000000	21.7852420681
1.3650000000	10.7027943719
1.3700000000	6.1384610805
1.3750000000	3.9484360781
1.3800000000	2.7543911926
1.3850000000	2.0350287853
1.3900000000	1.5711844765
1.3950000000	1.2545535075
1.4000000000	1.0290023920
1.4050000000	0.8629212680
1.4100000000	0.7369951410
1.4150000000	0.6393945793
1.4200000000	0.5613167798
1.4250000000	0.4987801923
1.4300000000	0.4481888189
1.4350000000	0.3967483942
1.4400000000	0.2338922792
1.4450000000	-0.1878534330
1.4500000000	-0.9593864788
1.4550000000	-0.3484320081
1.4600000000	0.8753584356
1.4650000000	0.5326786908
1.4700000000	-0.2273085709
1.4750000000	-1.3890997887
1.4800000000	-0.6054797950
1.4850000000	1.0904467239
1.4900000000	0.8821818189
1.4950000000	0.5748021734
1.5000000000	0.4065548120
1.5050000000	0.3151573148
1.5100000000	0.2627599582
1.5150000000	0.2305090743
1.5200000000	0.2092953466
1.5250000000	0.1957928024
1.5300000000	0.1850654649
1.5350000000	0.1772142481
1.5400000000	0.1714645322
1.5450000000	0.1673431466
1.5500000000	0.1645398097
1.5550000000	0.1628976725
1.5600000000	0.1626806670
1.5650000000	0.1632834943
1.5700000000	0.1652579072
1.5750000000	0.1689797878
1.5800000000	0.1752116362
1.5850000000	0.1854551760
1.5900000000	0.2028775677
1.5950000000	0.2344385386
1.6000000000	0.2946414252
1.6050000000	0.3921032392
1.6100000000	0.4353359642
1.6150000000	0.3515957889
1.6200000000	0.2758779849
1.6250000000	0.2383256871
1.6300000000	0.2219084679
1.6350000000	0.2160329383
1.6400000000	0.2159554081
1.6450000000	0.2195301787
1.6500000000	0.2257440978
1.6550000000	0.2341737947
1.6600000000	0.2446551323
1.6650000000	0.2572069865
1.6700000000	0.2719718080
1.6750000000	0.2891975725
1.6800000000	0.3092363320
1.6850000000	0.3325567598
1.6900000000	0.3597601864
1.6950000000	0.3914180743
1.7000000000	0.4287364163
1.7050000000	0.4739140269
1.7100000000	0.5295579840
1.7150000000	0.6085620014
1.7200000000	0.7180389858
1.7250000000	0.8507470178
1.7300000000	1.0174131374
1.7350000000	1.1955151447
1.7400000000	1.3527519530
1.7450000000	1.5482795295
1.7500000000	1.8516287864
1.7550000000	2.3095516744
1.7600000000	2.9981327157
1.7650000000	4.0610795799
1.7700000000	5.7733122988
1.7750000000	8.6562822229
1.7800000000	13.5640022484
1.7850000000	20.7901217835
1.7900000000	25.8005549670
1.7950000000	21.9348225169
1.8000000000	14.5714551802
1.8050000000	9.1825597079
1.8100000000	6.0392666992
1.8150000000	4.1980488157
1.8200000000	3.0652920533
1.8250000000	2.3308503853
1.8300000000	1.8318486660
1.8350000000	1.4790935254
1.8400000000	1.2214029138
1.8450000000	1.0276651279
1.8500000000	0.8782457813
1.8550000000	0.7608268333
1.8600000000	0.6666976991
1.8650000000	0.5898390213
1.8700000000	0.5258069774
1.8750000000	0.4711174297
1.8800000000	0.4227067809
1.8850000000	0.3774680348
1.8900000000	0.3314527034
1.8950000000	0.2786569188
1.9000000000	0.2089765289
1.9050000000	0.0903760248
1.9100000000	-0.0818402837
1.9150000000	-0.2673153318
1.9200000000	-0.1843785826
1.9250000000	0.3574966791
1.9300000000	0.7927521751
1.9350000000	0.8280778256
1.9400000000	0.6826038986
1.9450000000	0.5356158139
1.9500000000	0.4299273348
1.9550000000	0.3590176532
1.9600000000	0.3111757330
1.9650000000	0.2795018762
1.9700000000	0.2555160470
1.9750000000	0.2379123999
1.9800000000	0.2246532692
1.9850000000	0.2142992118
1.9900000000	0.2058244854
1.9950000000	0.1983981937
2.0000000000	0.1918199338
2.0050000000	0.1884680593
2.0100000000	0.1915429441
2.0150000000	0.1988947881
2.0200000000	0.2046817556
2.0250000000	0.2086272650
2.0300000000	0.2128397544
2.0350000000	0.2182288157
2.0400000000	0.2254885591
2.0450000000	0.2350708158
2.0500000000	0.2475187516
2.0550000000	0.2633832255
2.0600000000	0.2826904776
2.0650000000	0.3036062880
2.0700000000	0.3215802734
2.0750000000	0.3329983882
2.0800000000	0.3403278863
2.0850000000	0.3490792543
2.0900000000	0.3626638200
2.0950000000	0.3821242507
2.1000000000	0.4080213842
2.1050000000	0.4397628425
2.1100000000	0.4795632207
2.1150000000	0.5289599149
2.1200000000	0.5902346404
2.1250000000	0.6666673908
2.1300000000	0.7629349436
2.1350000000	0.8857452020
2.1400000000	1.0447941868
2.1450000000	1.2542544139
2.1500000000	1.5347570172
2.1550000000	1.9154623310
2.1600000000	2.4336535651
2.1650000000	3.1208599325
2.1700000000	3.9651384468
2.1750000000	4.8077363847
2.1800000000	5.3404844803
2.1850000000	5.4004597743
2.1900000000	5.2170640650
2.1950000000	5.0953088600
2.2000000000	5.0602460331
2.2050000000	4.8168811426
2.2100000000	4.2415417116
2.2150000000	3.5107332135
2.2200000000	2.8420660152
2.2250000000	2.3065035454
2.2300000000	1.8849725445
2.2350000000	1.5501643190
2.2400000000	1.2845318231
2.2450000000	1.0772007556
2.2500000000	0.9155071247
2.2550000000	0.7879325462
2.2600000000	0.6848625259
2.2650000000	0.5982976646
2.2700000000	0.5215166987
2.2750000000	0.4498022809
2.2800000000	0.3834882249
2.2850000000	0.3308997352
2.2900000000	0.3043684944
2.2950000000	0.3081447936
2.3000000000	0.3300637231
2.3050000000	0.3514845798
2.3100000000	0.3607306555
2.3150000000	0.3583947512
2.3200000000	0.3495892734
2.3250000000	0.3395333082
2.3300000000	0.3310472379
2.3350000000	0.3251085855
2.3400000000	0.3215149015
2.3450000000	0.3192199107
2.3500000000	0.3168267329
2.3550000000	0.3134420914
2.3600000000	0.3093137312
2.3650000000	0.3055251240
2.3700000000	0.3031503860
2.3750000000	0.3027144112
2.3800000000	0.3041281497
2.3850000000	0.3068530567
2.3900000000	0.3102891829
2.3950000000	0.3139234185
2.4000000000	0.3180620228
2.4050000000	0.3238459340
2.4100000000	0.3318551495
2.4150000000	0.3428251122
2.4200000000	0.3572560317
2.4250000000	0.3756029776
2.4300000000	0.3983763922
2.4350000000	0.4262160944
2.4400000000	0.4599453005
2.4450000000	0.5006260739
2.4500000000	0.5496101044
2.4550000000	0.6086074617
2.4600000000	0.6797298049
2.4650000000	0.7655321839
2.4700000000	0.8689742297
2.4750000000	0.9930686120
2.4800000000	1.1410740040
2.4850000000	1.3144557332
2.4900000000	1.5117787821
2.4950000000	1.7259060506
2.5000000000	1.9409817969
2.5050000000	2.1397633737
2.5100000000	2.2681815790
2.5150000000	2.2962962216
2.5200000000	2.2202359752
2.5250000000	2.0637985372
2.5300000000	1.8631890262
2.5350000000	1.6501644374
2.5400000000	1.4448394410
2.5450000000	1.2571555340
2.5500000000	1.0908275698
2.5550000000	0.9463275323
2.5600000000	0.8215589336
2.5650000000	0.7162482757
2.5700000000	0.6282942984
2.5750000000	0.5564532281
2.5800000000	0.4997536891
2.5850000000	0.4569923034
2.5900000000	0.4259966688
2.5950000000	0.4036218626
2.6000000000	0.3865785202
2.6050000000	0.3744229609
2.6100000000	0.3635084298
2.6150000000	0.3537007014
2.6200000000	0.3452448605
2.6250000000	0.3383818650
2.6300000000	0.3332572095
2.6350000000	0.3299339761
2.6400000000	0.3284452588
2.6450000000	0.3288284441
2.6500000000	0.3311638096
2.6550000000	0.3354648632
2.6600000000	0.3418444467
2.6650000000	0.3504022433
2.6700000000	0.3612557078
2.6750000000	0.3745441971
2.6800000000	0.3904228124
2.6850000000	0.4090609507
2.6900000000	0.4306223083
2.6950000000	0.4552552574
2.7000000000	0.4830625801
2.7050000000	0.5173926447
2.7100000000	0.5558697616
2.7150000000	0.5982297730
2.7200000000	0.6439017446
2.7250000000	0.6919345891
2.7300000000	0.7409295369
2.7350000000	0.7889809189
2.7400000000	0.8336452403
2.7450000000	0.8723430066
2.7500000000	0.9013297121
2.7550000000	0.9180333299
2.7600000000	0.9205221370
2.7650000000	0.9082992379
2.7700000000	0.8824778889
2.7750000000	0.8455559501
2.7800000000	0.8008462124
2.7850000000	0.7518729170
2.7900000000	0.7017844370
2.7950000000	0.6531014194
2.8000000000	0.6076018178
2.8050000000	0.5613356035
2.8100000000	0.5213967594
2.8150000000	0.4876941811
2.8200000000	0.4596981131
2.8250000000	0.4367044761
2.8300000000	0.4180069743
2.8350000000	0.4030036560
2.8400000000	0.3910546072
2.8450000000	0.3822029316
2.8500000000	0.3759796667
2.8550000000	0.3722100779
2.8600000000	0.3707705490
2.8650000000	0.3715634198
2.8700000000	0.3745017534
2.8750000000	0.3794965851
2.8800000000	0.3864449934
2.8850000000	0.3952190069
2.8900000000	0.4056610656
2.8950000000	0.4175787340
2.9000000000	0.4307437605
2.9050000000	0.4480375323
2.9100000000	0.4657927055
2.9150000000	0.4833245663
2.9200000000	0.4998097352
2.9250000000	0.5142935244
2.9300000000	0.5258786585
2.9350000000	0.5333705826
2.9400000000	0.5361709410
2.9450000000	0.5339733326
2.9500000000	0.5269581202
2.9550000000	0.5157653094
2.9600000000	0.5013696889
2.9650000000	0.4849021121
2.9700000000	0.4674722738
2.9750000000	0.4500430123
2.9800000000	0.4333610587
2.9850000000	0.4179473374
2.9900000000	0.4041224172
2.9950000000	0.3920495896
3.0000000000	0.3817815036
