# energy (eV)    P(omega), $W$ = 300 nm, $h$ = 300 nm, $s$ = 20 nm, $d/W = 5$, $E_{\rm e}$ = 200 keV
0.2000000000	0.3027381738
0.2050000000	0.3073503445
0.2100000000	0.3116374059
0.2150000000	0.3156101850
0.2200000000	0.3192784411
0.2250000000	0.3226502115
0.2300000000	0.3257319162
0.2350000000	0.3285279994
0.2400000000	0.3310407319
0.2450000000	0.3332697518
0.2500000000	0.3352117852
0.2550000000	0.3368598238
0.2600000000	0.3382029889
0.2650000000	0.3392251139
0.2700000000	0.3399042546
0.2750000000	0.3402110160
0.2800000000	0.3401070753
0.2850000000	0.3395429789
0.2900000000	0.3384554875
0.2950000000	0.3367640148
0.3000000000	0.3343657303
0.3050000000	0.3311295656
0.3100000000	0.3268876579
0.3150000000	0.3461287237
0.3200000000	0.3689787267
0.3250000000	0.3978986777
0.3300000000	0.4366634013
0.3350000000	0.4849015511
0.3400000000	0.5480677540
0.3450000000	0.6246162114
0.3500000000	0.7247138764
0.3550000000	0.8570942131
0.3600000000	1.0298126826
0.3650000000	1.2704798922
0.3700000000	1.5875051386
0.3750000000	2.0281577251
0.3800000000	2.6649976155
0.3850000000	3.6566866335
0.3900000000	5.2221255167
0.3950000000	7.8792004717
0.4000000000	12.9410196758
0.4050000000	24.2817201548
0.4100000000	55.2032868975
0.4150000000	176.9945732722
0.4200000000	112.8460294960
0.4250000000	-211.8322287313
0.4300000000	58.7925318800
0.4350000000	36.5905707450
0.4400000000	22.3354717046
0.4450000000	14.6677155754
0.4500000000	10.2565562673
0.4550000000	7.5436525784
0.4600000000	5.7777816588
0.4650000000	4.5750817350
0.4700000000	3.7254194985
0.4750000000	3.1111272847
0.4800000000	2.6557692444
0.4850000000	2.3131220867
0.4900000000	2.0515029219
0.4950000000	1.8496517984
0.5000000000	1.6930348003
0.5050000000	1.5709988249
0.5100000000	1.4766731688
0.5150000000	1.4049944190
0.5200000000	1.3507027805
0.5250000000	1.3114000402
0.5300000000	1.2845361592
0.5350000000	1.2682379453
0.5400000000	1.2611228257
0.5450000000	1.2620363824
0.5500000000	1.2705907853
0.5550000000	1.2861282628
0.5600000000	1.3082985326
0.5650000000	1.3369345364
0.5700000000	1.3718750973
0.5750000000	1.4133593545
0.5800000000	1.4617736931
0.5850000000	1.5173656388
0.5900000000	1.5806308498
0.5950000000	1.6522042029
0.6000000000	1.7328909336
0.6050000000	1.8238792264
0.6100000000	1.9262876417
0.6150000000	2.0416566266
0.6200000000	2.1720427813
0.6250000000	2.3194154672
0.6300000000	2.4866918597
0.6350000000	2.6775063307
0.6400000000	2.8956359191
0.6450000000	3.1465414881
0.6500000000	3.4373975134
0.6550000000	3.7756683814
0.6600000000	4.1728364548
0.6650000000	4.6436197315
0.6700000000	5.2053179632
0.6750000000	5.8843268567
0.6800000000	6.7161240050
0.6850000000	7.7471677800
0.6900000000	9.0494119955
0.6950000000	10.7234651475
0.7000000000	12.9291179354
0.7050000000	15.9105875237
0.7100000000	20.0815916536
0.7150000000	26.1784959712
0.7200000000	35.5718121722
0.7250000000	51.1580624555
0.7300000000	79.7556153960
0.7350000000	140.9214199622
0.7400000000	308.6005146580
0.7450000000	1022.9835415009
0.7500000000	3166.7492965764
0.7550000000	796.0449355975
0.7600000000	263.4258839193
0.7650000000	126.1199617845
0.7700000000	73.2893064509
0.7750000000	47.7962586341
0.7800000000	33.6097216832
0.7850000000	24.9422243866
0.7900000000	19.2546158910
0.7950000000	15.3334562410
0.8000000000	12.5157027259
0.8050000000	10.4178642815
0.8100000000	8.8187151547
0.8150000000	7.5515819944
0.8200000000	6.5518444000
0.8250000000	5.7471210889
0.8300000000	5.0881518172
0.8350000000	4.5464877772
0.8400000000	4.0925454886
0.8450000000	3.7117140097
0.8500000000	3.3898403305
0.8550000000	3.1121572959
0.8600000000	2.8751191299
0.8650000000	2.6726204985
0.8700000000	2.4937456743
0.8750000000	2.3415175160
0.8800000000	2.2122500910
0.8850000000	2.0963656244
0.8900000000	2.0031839860
0.8950000000	1.9184234453
0.9000000000	1.8509998585
0.9050000000	1.8041033541
0.9100000000	1.7610960223
0.9150000000	1.7344309978
0.9200000000	1.7298407178
0.9250000000	1.7261255634
0.9300000000	1.6996614650
0.9350000000	1.6233382049
0.9400000000	1.2038414700
0.9450000000	-0.6977091352
0.9500000000	-10.7221654971
0.9550000000	-61.5290651071
0.9600000000	14.5118389101
0.9650000000	25.4714552093
0.9700000000	11.2922749456
0.9750000000	5.9274290310
0.9800000000	3.7153759486
0.9850000000	2.6810647874
0.9900000000	2.0853962133
0.9950000000	1.7243037865
1.0000000000	1.4937754634
1.0050000000	1.3475601122
1.0100000000	1.2343166805
1.0150000000	1.1516197371
1.0200000000	1.0958851069
1.0250000000	1.0492074747
1.0300000000	1.0138078986
1.0350000000	0.9871030579
1.0400000000	0.9701806187
1.0450000000	0.9562406586
1.0500000000	0.9471975303
1.0550000000	0.9425004008
1.0600000000	0.9433663077
1.0650000000	0.9464033192
1.0700000000	0.9530035168
1.0750000000	0.9631960588
1.0800000000	0.9778999461
1.0850000000	0.9965456277
1.0900000000	1.0238738675
1.0950000000	1.0562867889
1.1000000000	1.0948383031
1.1050000000	1.1393441474
1.1100000000	1.1911698469
1.1150000000	1.2514927660
1.1200000000	1.3216652617
1.1250000000	1.4036415039
1.1300000000	1.4998203994
1.1350000000	1.6132630272
1.1400000000	1.7474066889
1.1450000000	1.9087276889
1.1500000000	2.1041030315
1.1550000000	2.3435501281
1.1600000000	2.6412027591
1.1650000000	3.0153522022
1.1700000000	3.5004859368
1.1750000000	4.1421903487
1.1800000000	5.0158954014
1.1850000000	6.2456395525
1.1900000000	8.0649237376
1.1950000000	10.9226547041
1.2000000000	15.7716866703
1.2050000000	24.9368845354
1.2100000000	45.0985846030
1.2150000000	99.5813136655
1.2200000000	244.4290195788
1.2250000000	219.3992045921
1.2300000000	87.3206516367
1.2350000000	40.7998626926
1.2400000000	23.1759940842
1.2450000000	15.0750135847
1.2500000000	10.7903918536
1.2550000000	8.3048660498
1.2600000000	6.7777088520
1.2650000000	5.8041576939
1.2700000000	5.2014482801
1.2750000000	4.8507871589
1.2800000000	4.6937819188
1.2850000000	4.7025017794
1.2900000000	4.8698358817
1.2950000000	5.2031795923
1.3000000000	5.7472508866
1.3050000000	6.5586381869
1.3100000000	7.7463768606
1.3150000000	9.5000185501
1.3200000000	12.1617215951
1.3250000000	16.3826205334
1.3300000000	23.5933564798
1.3350000000	37.1063878477
1.3400000000	65.9899289370
1.3450000000	137.6774854416
1.3500000000	291.8786946994
1.3550000000	272.0374544771
1.3600000000	125.4038810231
1.3650000000	61.6092902306
1.3700000000	35.3352166574
1.3750000000	22.7285465215
1.3800000000	15.8551308074
1.3850000000	11.7141850570
1.3900000000	9.0441162610
1.3950000000	7.2214715884
1.4000000000	5.9231325802
1.4050000000	4.9671405521
1.4100000000	4.2423200330
1.4150000000	3.6805958710
1.4200000000	3.2313308071
1.4250000000	2.8716910713
1.4300000000	2.5812014932
1.4350000000	2.2864574567
1.4400000000	1.3503406246
1.4450000000	-1.0749544247
1.4500000000	-5.5100381298
1.4550000000	-1.9998192272
1.4600000000	5.0322105345
1.4650000000	3.0606939275
1.4700000000	-1.3126458585
1.4750000000	-8.0008066491
1.4800000000	-3.4880285343
1.4850000000	6.2775000841
1.4900000000	5.0785528946
1.4950000000	3.3087812151
1.5000000000	2.3400839427
1.5050000000	1.8138644538
1.5100000000	1.5121826040
1.5150000000	1.3264909908
1.5200000000	1.2043400327
1.5250000000	1.1265762639
1.5300000000	1.0647850070
1.5350000000	1.0195424524
1.5400000000	0.9863862311
1.5450000000	0.9625890560
1.5500000000	0.9463585739
1.5550000000	0.9367850463
1.5600000000	0.9353761891
1.5650000000	0.9386306343
1.5700000000	0.9496956770
1.5750000000	0.9706865665
1.5800000000	1.0059050971
1.5850000000	1.0638277424
1.5900000000	1.1623349892
1.5950000000	1.3407203699
1.6000000000	1.6808694253
1.6050000000	2.2314528970
1.6100000000	2.4759142892
1.6150000000	2.0035607001
1.6200000000	1.5765657212
1.6250000000	1.3651210993
1.6300000000	1.2730818140
1.6350000000	1.2406469097
1.6400000000	1.2410439359
1.6450000000	1.2621702045
1.6500000000	1.2983173997
1.6550000000	1.3471153130
1.6600000000	1.4076566032
1.6650000000	1.4800726566
1.6700000000	1.5651980197
1.6750000000	1.6644698508
1.6800000000	1.7799209699
1.6850000000	1.9142553344
1.6900000000	2.0709381967
1.6950000000	2.2532627609
1.7000000000	2.4681790700
1.7050000000	2.7283583300
1.7100000000	3.0488408349
1.7150000000	3.5038947380
1.7200000000	4.1343580137
1.7250000000	4.8984142626
1.7300000000	5.8579193213
1.7350000000	6.8833645890
1.7400000000	7.7889268209
1.7450000000	8.9150906726
1.7500000000	10.6621028585
1.7550000000	13.2991975763
1.7600000000	17.2645503570
1.7650000000	23.3857584612
1.7700000000	33.2460414159
1.7750000000	49.8483533194
1.7800000000	78.1108943186
1.7850000000	119.7250259558
1.7900000000	148.5802195035
1.7950000000	126.3193890456
1.8000000000	83.9156123691
1.8050000000	52.8819582328
1.8100000000	34.7801899086
1.8150000000	24.1768231209
1.8200000000	17.6533742402
1.8250000000	13.4237696028
1.8300000000	10.5500404131
1.8350000000	8.5185340671
1.8400000000	7.0344994575
1.8450000000	5.9187682363
1.8500000000	5.0582678504
1.8550000000	4.3820612487
1.8600000000	3.8399844755
1.8650000000	3.3973737153
1.8700000000	3.0286386600
1.8750000000	2.7137162268
1.8800000000	2.4349661751
1.8850000000	2.1744996015
1.8900000000	1.9095832678
1.8950000000	1.6056503708
1.9000000000	1.2045249891
1.9050000000	0.5217489482
1.9100000000	-0.4696793006
1.9150000000	-1.5372379570
1.9200000000	-1.0585316131
1.9250000000	2.0638113519
1.9300000000	4.5718151071
1.9350000000	4.7750114468
1.9400000000	3.9358442760
1.9450000000	3.0880017762
1.9500000000	2.4784055327
1.9550000000	2.0694273252
1.9600000000	1.7935060539
1.9650000000	1.6108274484
1.9700000000	1.4725034443
1.9750000000	1.3709854438
1.9800000000	1.2945199339
1.9850000000	1.2348034429
1.9900000000	1.1859180248
1.9950000000	1.1430688250
2.0000000000	1.1051013046
2.0050000000	1.0857448620
2.0100000000	1.1034907915
2.0150000000	1.1459218228
2.0200000000	1.1792967195
2.0250000000	1.2020168269
2.0300000000	1.2262548773
2.0350000000	1.2572630279
2.0400000000	1.2990403830
2.0450000000	1.3541856445
2.0500000000	1.4258209600
2.0550000000	1.5171129655
2.0600000000	1.6282136931
2.0650000000	1.7485833009
2.0700000000	1.8520717261
2.0750000000	1.9179114366
2.0800000000	1.9602873213
2.0850000000	2.0108758327
2.0900000000	2.0892905567
2.0950000000	2.2015318111
2.1000000000	2.3508372133
2.1050000000	2.5338036526
2.1100000000	2.7631951275
2.1150000000	3.0478758146
2.1200000000	3.4009976951
2.1250000000	3.8414642883
2.1300000000	4.3962281399
2.1350000000	5.1039458304
2.1400000000	6.0204930064
2.1450000000	7.2275431601
2.1500000000	8.8439894749
2.1550000000	11.0378773037
2.1600000000	14.0240677527
2.1650000000	17.9842667511
2.1700000000	22.8496748067
2.1750000000	27.7054689190
2.1800000000	30.7757408247
2.1850000000	31.1215486129
2.1900000000	30.0648246875
2.1950000000	29.3632994877
2.2000000000	29.1614403412
2.2050000000	27.7594159193
2.2100000000	24.4445322338
2.2150000000	20.2338361650
2.2200000000	16.3811898642
2.2250000000	13.2953177362
2.2300000000	10.8661534805
2.2350000000	8.9364068994
2.2400000000	7.4051835669
2.2450000000	6.2099778923
2.2500000000	5.2778697411
2.2550000000	4.5424834238
2.2600000000	3.9483971007
2.2650000000	3.4494846692
2.2700000000	3.0069788031
2.2750000000	2.5936512195
2.2800000000	2.2113943551
2.2850000000	1.9081898669
2.2900000000	1.7551403702
2.2950000000	1.7767778027
2.3000000000	1.9030093079
2.3050000000	2.0263943158
2.3100000000	2.0796316522
2.3150000000	2.0661305638
2.3200000000	2.0153531789
2.3250000000	1.9573783537
2.3300000000	1.9084605047
2.3350000000	1.8742318026
2.3400000000	1.8535218661
2.3450000000	1.8402949506
2.3500000000	1.8264932084
2.3550000000	1.8069642036
2.3600000000	1.7831373656
2.3650000000	1.7612636730
2.3700000000	1.7475406118
2.3750000000	1.7449985047
2.3800000000	1.7531267171
2.3850000000	1.7688233195
2.3900000000	1.7886322821
2.3950000000	1.8095969320
2.4000000000	1.8334809081
2.4050000000	1.8668590079
2.4100000000	1.9130695597
2.4150000000	1.9763492523
2.4200000000	2.0595807505
2.4250000000	2.1653879171
2.4300000000	2.2967144102
2.4350000000	2.4572500242
2.4400000000	2.6517423246
2.4450000000	2.8863158226
2.4500000000	3.1687651308
2.4550000000	3.5089512484
2.4600000000	3.9190502944
2.4650000000	4.4137958469
2.4700000000	5.0102524804
2.4750000000	5.7257910098
2.4800000000	6.5791985100
2.4850000000	7.5789193118
2.4900000000	8.7166746976
2.4950000000	9.9513094086
2.5000000000	11.1914045266
2.5050000000	12.3375508280
2.5100000000	13.0780191310
2.5150000000	13.2401881007
2.5200000000	12.8017241557
2.5250000000	11.8998137142
2.5300000000	10.7431885578
2.5350000000	9.5149509420
2.5400000000	8.3310846589
2.5450000000	7.2489212120
2.5500000000	6.2898889642
2.5550000000	5.4567120003
2.5600000000	4.7373054536
2.5650000000	4.1300898095
2.5700000000	3.6229494477
2.5750000000	3.2087127654
2.5800000000	2.8817789098
2.5850000000	2.6352099599
2.5900000000	2.4564808125
2.5950000000	2.3274588892
2.6000000000	2.2291784929
2.6050000000	2.1590820025
2.6100000000	2.0961428438
2.6150000000	2.0395873043
2.6200000000	1.9908292602
2.6250000000	1.9512591703
2.6300000000	1.9217173172
2.6350000000	1.9025680183
2.6400000000	1.8940026808
2.6450000000	1.8962362930
2.6500000000	1.9097311708
2.6550000000	1.9345642739
2.6600000000	1.9713858901
2.6650000000	2.0207707653
2.6700000000	2.0833962626
2.6750000000	2.1600662534
2.6800000000	2.2516754779
2.6850000000	2.3592010735
2.6900000000	2.4835870973
2.6950000000	2.6256890204
2.7000000000	2.7860991105
2.7050000000	2.9841306189
2.7100000000	3.2060774494
2.7150000000	3.4504135911
2.7200000000	3.7138436429
2.7250000000	3.9908797624
2.7300000000	4.2734534888
2.7350000000	4.5505751521
2.7400000000	4.8081552851
2.7450000000	5.0313196748
2.7500000000	5.1984789147
2.7550000000	5.2948011013
2.7600000000	5.3091479374
2.7650000000	5.2386539637
2.7700000000	5.0897387517
2.7750000000	4.8768054390
2.7800000000	4.6189584784
2.7850000000	4.3365227424
2.7900000000	4.0476537376
2.7950000000	3.7668895920
2.8000000000	3.5044837978
2.8050000000	3.2376539113
2.8100000000	3.0073155479
2.8150000000	2.8129439823
2.8200000000	2.6514844681
2.8250000000	2.5188769089
2.8300000000	2.4110483001
2.8350000000	2.3245274783
2.8400000000	2.2556242693
2.8450000000	2.2045874245
2.8500000000	2.1687126386
2.8550000000	2.1469920804
2.8600000000	2.1387127039
2.8650000000	2.1433111743
2.8700000000	2.1602854300
2.8750000000	2.1891221865
2.8800000000	2.2292272451
2.8850000000	2.2798617609
2.8900000000	2.3401162873
2.8950000000	2.4088801258
2.9000000000	2.4848362566
2.9050000000	2.5846035707
2.9100000000	2.6870278553
2.9150000000	2.7881601035
2.9200000000	2.8832519527
2.9250000000	2.9667978320
2.9300000000	3.0336231514
2.9350000000	3.0768383976
2.9400000000	3.0929925438
2.9450000000	3.0803182042
2.9500000000	3.0398558744
2.9550000000	2.9752967428
2.9600000000	2.8922636196
2.9650000000	2.7972793045
2.9700000000	2.6967447197
2.9750000000	2.5962137743
2.9800000000	2.4999939167
2.9850000000	2.4110902484
2.9900000000	2.3313517396
2.9950000000	2.2617206492
3.0000000000	2.2025007115
