# energy (eV)    P(omega), $W$ = 300 nm, $h$ = 300 nm, $s$ = 20 nm, $d/W = 5$, $E_{\rm e}$ = 200 keV
0.2000000000	0.2087080701
0.2050000000	0.2118398591
0.2100000000	0.2147725701
0.2150000000	0.2175126452
0.2200000000	0.2200654401
0.2250000000	0.2224355664
0.2300000000	0.2246264661
0.2350000000	0.2266404239
0.2400000000	0.2284781547
0.2450000000	0.2301388490
0.2500000000	0.2316196642
0.2550000000	0.2329153630
0.2600000000	0.2340181817
0.2650000000	0.2349168527
0.2700000000	0.2355961905
0.2750000000	0.2360360894
0.2800000000	0.2362104898
0.2850000000	0.2360859542
0.2900000000	0.2356196098
0.2950000000	0.2347571452
0.3000000000	0.2334291390
0.3050000000	0.2315471610
0.3100000000	0.2289979826
0.3150000000	0.2419549776
0.3200000000	0.2573427510
0.3250000000	0.2768015577
0.3300000000	0.3028550180
0.3350000000	0.3352865713
0.3400000000	0.3777557462
0.3450000000	0.4292763714
0.3500000000	0.4966787373
0.3550000000	0.5858720126
0.3600000000	0.7023470385
0.3650000000	0.8647400733
0.3700000000	1.0789060526
0.3750000000	1.3768612277
0.3800000000	1.8078476497
0.3850000000	2.4794857857
0.3900000000	3.5406813049
0.3950000000	5.3435101511
0.4000000000	8.7808037388
0.4050000000	16.4881671702
0.4100000000	37.5217564705
0.4150000000	120.4407775465
0.4200000000	76.7351554012
0.4250000000	-144.5056430100
0.4300000000	40.1969547743
0.4350000000	25.0552405927
0.4400000000	15.3204122024
0.4450000000	10.0794969633
0.4500000000	7.0620319121
0.4550000000	5.2048736786
0.4600000000	3.9951816801
0.4650000000	3.1707575132
0.4700000000	2.5880163020
0.4750000000	2.1665354235
0.4800000000	1.8540281631
0.4850000000	1.6188725841
0.4900000000	1.4393785439
0.4950000000	1.3009843830
0.5000000000	1.1937369587
0.5050000000	1.1103325550
0.5100000000	1.0460689217
0.5150000000	0.9974854518
0.5200000000	0.9609606011
0.5250000000	0.9348660099
0.5300000000	0.9174508302
0.5350000000	0.9074358812
0.5400000000	0.9038782937
0.5450000000	0.9059899558
0.5500000000	0.9135246440
0.5550000000	0.9260388788
0.5600000000	0.9433079269
0.5650000000	0.9652320481
0.5700000000	0.9917214226
0.5750000000	1.0229619380
0.5800000000	1.0592552470
0.5850000000	1.1007995764
0.5900000000	1.1479756557
0.5950000000	1.2012617268
0.6000000000	1.2612671064
0.6050000000	1.3288725514
0.6100000000	1.4049202101
0.6150000000	1.4905590770
0.6200000000	1.5873214894
0.6250000000	1.6966771744
0.6300000000	1.8207975558
0.6350000000	1.9623890172
0.6400000000	2.1242684287
0.6450000000	2.3105002290
0.6500000000	2.5264291107
0.6550000000	2.7776199571
0.6600000000	3.0726226415
0.6650000000	3.4224121518
0.6700000000	3.8398883538
0.6750000000	4.3447268444
0.6800000000	4.9633795808
0.6850000000	5.7305090588
0.6900000000	6.6997967214
0.6950000000	7.9463281773
0.7000000000	9.5893706346
0.7050000000	11.8112676718
0.7100000000	14.9209822583
0.7150000000	19.4685183136
0.7200000000	26.4778550056
0.7250000000	38.1135945830
0.7300000000	59.4724222617
0.7350000000	105.1770225452
0.7400000000	230.5313230243
0.7450000000	764.8776271419
0.7500000000	2369.8846523492
0.7550000000	596.2682468097
0.7600000000	197.4941099446
0.7650000000	94.6392599596
0.7700000000	55.0453773280
0.7750000000	35.9307988764
0.7800000000	25.2889887025
0.7850000000	18.7843352346
0.7900000000	14.5141116598
0.7950000000	11.5688650936
0.8000000000	9.4515127634
0.8050000000	7.8744693582
0.8100000000	6.6718185045
0.8150000000	5.7183932278
0.8200000000	4.9658880816
0.8250000000	4.3599470963
0.8300000000	3.8635625708
0.8350000000	3.4554260119
0.8400000000	3.1132723833
0.8450000000	2.8261518914
0.8500000000	2.5834469938
0.8550000000	2.3739931491
0.8600000000	2.1951874572
0.8650000000	2.0424590780
0.8700000000	1.9075055145
0.8750000000	1.7927150539
0.8800000000	1.6953222904
0.8850000000	1.6080032507
0.8900000000	1.5379814823
0.8950000000	1.4742827445
0.9000000000	1.4238252830
0.9050000000	1.3891249862
0.9100000000	1.3573293064
0.9150000000	1.3381064876
0.9200000000	1.3359451884
0.9250000000	1.3343787021
0.9300000000	1.3149363083
0.9350000000	1.2562516587
0.9400000000	0.9286596635
0.9450000000	-0.5609494619
0.9500000000	-8.4234791975
0.9550000000	-48.3078119530
0.9600000000	11.3992836265
0.9650000000	20.0270557903
0.9700000000	8.8832282708
0.9750000000	4.6635049134
0.9800000000	2.9225894383
0.9850000000	2.1083337260
0.9900000000	1.6391526366
0.9950000000	1.3546447535
1.0000000000	1.1729853530
1.0050000000	1.0578269875
1.0100000000	0.9685422210
1.0150000000	0.9033134478
1.0200000000	0.8593847240
1.0250000000	0.8225052167
1.0300000000	0.7944859454
1.0350000000	0.7732855820
1.0400000000	0.7598071717
1.0450000000	0.7485903877
1.0500000000	0.7411826555
1.0550000000	0.7371461423
1.0600000000	0.7374731513
1.0650000000	0.7394021721
1.0700000000	0.7440584276
1.0750000000	0.7514618359
1.0800000000	0.7623500032
1.0850000000	0.7761655236
1.0900000000	0.7965533719
1.0950000000	0.8207674875
1.1000000000	0.8496229961
1.1050000000	0.8828731986
1.1100000000	0.9215721299
1.1150000000	0.9665888031
1.1200000000	1.0189576540
1.1250000000	1.0800149435
1.1300000000	1.1515689970
1.1350000000	1.2358646542
1.1400000000	1.3354624998
1.1450000000	1.4550200577
1.1500000000	1.5996163022
1.1550000000	1.7765868824
1.1600000000	1.9962814978
1.1650000000	2.2721346083
1.1700000000	2.6292909416
1.1750000000	3.1011522145
1.1800000000	3.7429231100
1.1850000000	4.6453566692
1.1900000000	5.9795038652
1.1950000000	8.0737482222
1.2000000000	11.6258183099
1.2050000000	18.3383112769
1.2100000000	33.1048010584
1.2150000000	73.0207179826
1.2200000000	179.2131926572
1.2250000000	161.0350317266
1.2300000000	64.2537110714
1.2350000000	30.1490292763
1.2400000000	17.2308670339
1.2450000000	11.3000292203
1.2500000000	8.1720260981
1.2550000000	6.3677135985
1.2600000000	5.2708639955
1.2650000000	4.5850841849
1.2700000000	4.1778438595
1.2750000000	3.9632204148
1.2800000000	3.9004641981
1.2850000000	3.9719569444
1.2900000000	4.1766562046
1.2950000000	4.5252983166
1.3000000000	5.0606751440
1.3050000000	5.8376976578
1.3100000000	6.9584810957
1.3150000000	8.5996437155
1.3200000000	11.0785950428
1.3250000000	15.0003693863
1.3300000000	21.6897534803
1.3350000000	34.2185532961
1.3400000000	60.9961093390
1.3450000000	127.4731199152
1.3500000000	270.5517817042
1.3550000000	252.3419845682
1.3600000000	116.3703385206
1.3650000000	57.1773836991
1.3700000000	32.7902626932
1.3750000000	21.0866920628
1.3800000000	14.7052165074
1.3850000000	10.8611015034
1.3900000000	8.3835871331
1.3950000000	6.6933012207
1.4000000000	5.4910733293
1.4050000000	4.6081968719
1.4100000000	3.9425586297
1.4150000000	3.4332446677
1.4200000000	3.0374249573
1.4250000000	2.7442265937
1.4300000000	2.5609837820
1.4350000000	2.4454159564
1.4400000000	1.6939956314
1.4450000000	-0.3959953839
1.4500000000	-4.0208783243
1.4550000000	-1.3338381336
1.4600000000	4.1245786087
1.4650000000	2.3798116125
1.4700000000	-1.5609308058
1.4750000000	-7.8099831058
1.4800000000	-3.4488192953
1.4850000000	5.8876692861
1.4900000000	4.7662797643
1.4950000000	3.0911422648
1.5000000000	2.1753533079
1.5050000000	1.6796537210
1.5100000000	1.3958874119
1.5150000000	1.2218970913
1.5200000000	1.1079106503
1.5250000000	1.0355054763
1.5300000000	0.9784137988
1.5350000000	0.9368715267
1.5400000000	0.9066883934
1.5450000000	0.8853594342
1.5500000000	0.8711369191
1.5550000000	0.8632771321
1.5600000000	0.8632187176
1.5650000000	0.8679020030
1.5700000000	0.8804128623
1.5750000000	0.9030771567
1.5800000000	0.9405621444
1.5850000000	1.0020759816
1.5900000000	1.1071184024
1.5950000000	1.2988235086
1.6000000000	1.6681885540
1.6050000000	2.2747398224
1.6100000000	2.5595795218
1.6150000000	2.0519853674
1.6200000000	1.5807513784
1.6250000000	1.3420406640
1.6300000000	1.2336504540
1.6350000000	1.1904372902
1.6400000000	1.1828909404
1.6450000000	1.1975301245
1.6500000000	1.2278018333
1.6550000000	1.2710801792
1.6600000000	1.3260374308
1.6650000000	1.3925630791
1.6700000000	1.4712593509
1.6750000000	1.5632900441
1.6800000000	1.6703241855
1.6850000000	1.7945818594
1.6900000000	1.9386231894
1.6950000000	2.1039200114
1.7000000000	2.2940931001
1.7050000000	2.5139654147
1.7100000000	2.7805029036
1.7150000000	3.2297875243
1.7200000000	3.9086928718
1.7250000000	4.6405560481
1.7300000000	5.5097266638
1.7350000000	6.4507630756
1.7400000000	7.3212360115
1.7450000000	8.4188306290
1.7500000000	10.1004112159
1.7550000000	12.6218360167
1.7600000000	16.4044029041
1.7650000000	22.2398144951
1.7700000000	31.6400913979
1.7750000000	47.4733344929
1.7800000000	74.4410066669
1.7850000000	114.1831172410
1.7900000000	141.8122949162
1.7950000000	120.6659199337
1.8000000000	80.2334302953
1.8050000000	50.6130971759
1.8100000000	33.3259574115
1.8150000000	23.1957222206
1.8200000000	16.9617710306
1.8250000000	12.9194868408
1.8300000000	10.1733843149
1.8350000000	8.2329740244
1.8400000000	6.8167231793
1.8450000000	5.7536411298
1.8500000000	4.9358489812
1.8550000000	4.2957085931
1.8600000000	3.7856575773
1.8650000000	3.3730029169
1.8700000000	3.0339303731
1.8750000000	2.7501861605
1.8800000000	2.5062456926
1.8850000000	2.2869876989
1.8900000000	2.0737151936
1.8950000000	1.8381017054
1.9000000000	1.5321407632
1.9050000000	0.9990416972
1.9100000000	0.2337235276
1.9150000000	-0.5003129122
1.9200000000	0.4065366632
1.9250000000	4.0042789306
1.9300000000	6.8781683975
1.9350000000	6.9391354239
1.9400000000	5.5681316627
1.9450000000	4.2177362634
1.9500000000	3.2607932644
1.9550000000	2.6279431049
1.9600000000	2.2062940781
1.9650000000	1.9253073536
1.9700000000	1.7185531563
1.9750000000	1.5669480052
1.9800000000	1.4518697312
1.9850000000	1.3599625320
1.9900000000	1.2812781874
1.9950000000	1.2073802918
2.0000000000	1.1367598562
2.0050000000	1.0947091805
2.0100000000	1.1229101822
2.0150000000	1.1964879859
2.0200000000	1.2460769952
2.0250000000	1.2674240672
2.0300000000	1.2835256025
2.0350000000	1.3050238460
2.0400000000	1.3370555111
2.0450000000	1.3817689352
2.0500000000	1.4413316941
2.0550000000	1.5178981818
2.0600000000	1.6115977528
2.0650000000	1.7150493513
2.0700000000	1.8098656691
2.0750000000	1.8817047112
2.0800000000	1.9412936716
2.0850000000	2.0119039438
2.0900000000	2.1083662379
2.0950000000	2.2358627247
2.1000000000	2.3984327733
2.1050000000	2.5936867677
2.1100000000	2.8352241130
2.1150000000	3.1328100756
2.1200000000	3.5004613943
2.1250000000	3.9580635330
2.1300000000	4.5337765176
2.1350000000	5.2678932104
2.1400000000	6.2185982927
2.1450000000	7.4709369834
2.1500000000	9.1487678336
2.1550000000	11.4272697270
2.1600000000	14.5305914406
2.1650000000	18.6487311117
2.1700000000	23.7093967820
2.1750000000	28.7559347292
2.1800000000	31.9255439922
2.1850000000	32.2228317104
2.1900000000	31.0193913752
2.1950000000	30.1653423209
2.2000000000	29.8674054797
2.2050000000	28.4665215779
2.2100000000	25.2523889655
2.2150000000	21.2083633508
2.2200000000	17.5303520531
2.2250000000	14.5490518314
2.2300000000	12.0988952519
2.2350000000	10.0457286124
2.2400000000	8.3585603080
2.2450000000	7.0259313249
2.2500000000	5.9932817184
2.2550000000	5.1943165732
2.2600000000	4.5675335130
2.2650000000	4.0574121134
2.2700000000	3.6113201424
2.2750000000	3.1846846998
2.2800000000	2.7669991684
2.2850000000	2.4092011631
2.2900000000	2.1982667472
2.2950000000	2.1733311661
2.3000000000	2.2675360505
2.3050000000	2.3670066010
2.3100000000	2.4019443104
2.3150000000	2.3744982227
2.3200000000	2.3148200668
2.3250000000	2.2539089673
2.3300000000	2.2082242455
2.3350000000	2.1825576951
2.3400000000	2.1732769299
2.3450000000	2.1698343238
2.3500000000	2.1586490916
2.3550000000	2.1310448895
2.3600000000	2.0894220432
2.3650000000	2.0443644831
2.3700000000	2.0066324573
2.3750000000	1.9822123027
2.3800000000	1.9720780970
2.3850000000	1.9738491627
2.3900000000	1.9844810577
2.3950000000	2.0010478523
2.4000000000	2.0250019382
2.4050000000	2.0625400754
2.4100000000	2.1162697338
2.4150000000	2.1898172772
2.4200000000	2.2856928165
2.4250000000	2.4065905888
2.4300000000	2.5558245946
2.4350000000	2.7376448408
2.4400000000	2.9575173936
2.4450000000	3.2224487975
2.4500000000	3.5413177032
2.4550000000	3.9253334173
2.4600000000	4.3882631549
2.4650000000	4.9467182990
2.4700000000	5.6197938086
2.4750000000	6.4267507795
2.4800000000	7.3878903029
2.4850000000	8.5116233877
2.4900000000	9.7873753519
2.4950000000	11.1685718729
2.5000000000	12.5547583706
2.5050000000	13.8394382935
2.5100000000	14.6818417250
2.5150000000	14.8908092051
2.5200000000	14.4343351752
2.5250000000	13.4539578932
2.5300000000	12.1746652541
2.5350000000	10.8006334956
2.5400000000	9.4666577353
2.5450000000	8.2431056329
2.5500000000	7.1583304616
2.5550000000	6.2172087598
2.5600000000	5.4063190161
2.5650000000	4.7227054281
2.5700000000	4.1518485665
2.5750000000	3.6849783094
2.5800000000	3.3153940725
2.5850000000	3.0351857690
2.5900000000	2.8305243309
2.5950000000	2.6815601109
2.6000000000	2.5675394023
2.6050000000	2.4861708381
2.6100000000	2.4140314361
2.6150000000	2.3501555792
2.6200000000	2.2960444614
2.6250000000	2.2532404266
2.6300000000	2.2227341850
2.6350000000	2.2050052155
2.6400000000	2.2003014481
2.6450000000	2.2088746204
2.6500000000	2.2312422892
2.6550000000	2.2675174187
2.6600000000	2.3184948230
2.6650000000	2.3849317947
2.6700000000	2.4677171558
2.6750000000	2.5678938944
2.6800000000	2.6865784299
2.6850000000	2.8249048194
2.6900000000	2.9838778377
2.6950000000	3.1642657440
2.7000000000	3.3663437008
2.7050000000	3.6137496923
2.7100000000	3.8876579470
2.7150000000	4.1847182598
2.7200000000	4.4993038865
2.7250000000	4.8234209541
2.7300000000	5.1467313429
2.7350000000	5.4565934713
2.7400000000	5.7379781457
2.7450000000	5.9758955001
2.7500000000	6.1480771698
2.7550000000	6.2397839730
2.7600000000	6.2398849155
2.7650000000	6.1459256942
2.7700000000	5.9653842296
2.7750000000	5.7144088193
2.7800000000	5.4143161281
2.7850000000	5.0877813752
2.7900000000	4.7551209091
2.7950000000	4.4326222230
2.8000000000	4.1318115849
2.8050000000	3.8262450591
2.8100000000	3.5632005239
2.8150000000	3.3420935488
2.8200000000	3.1594745113
2.8250000000	3.0107541114
2.8300000000	2.8913023405
2.8350000000	2.7971811739
2.8400000000	2.7241965762
2.8450000000	2.6726102018
2.8500000000	2.6393372435
2.8550000000	2.6232144702
2.8600000000	2.6233829240
2.8650000000	2.6391076353
2.8700000000	2.6696786847
2.8750000000	2.7142830787
2.8800000000	2.7719214544
2.8850000000	2.8413341655
2.8900000000	2.9210241264
2.8950000000	3.0092022152
2.9000000000	3.1039175796
2.9050000000	3.2236427712
2.9100000000	3.3432769537
2.9150000000	3.4585507567
2.9200000000	3.5645700754
2.9250000000	3.6556812446
2.9300000000	3.7266250501
2.9350000000	3.7700079427
2.9400000000	3.7823169365
2.9450000000	3.7618316344
2.9500000000	3.7099523135
2.9550000000	3.6310959564
2.9600000000	3.5318251977
2.9650000000	3.4196928035
2.9700000000	3.3020962566
2.9750000000	3.1854069832
2.9800000000	3.0745536421
2.9850000000	2.9729429474
2.9900000000	2.8826783461
2.9950000000	2.8047739032
3.0000000000	2.7395263389
