# energy (eV)    P(omega), $W$ = 400 nm, $h$ = 300 nm, $s$ = 20 nm, $d/W = 5$, $E_{\rm e}$ = 200 keV
0.2000000000	0.0620036188
0.2050000000	0.0625676203
0.2100000000	0.0629646719
0.2150000000	0.0631880870
0.2200000000	0.0632285146
0.2250000000	0.0630732507
0.2300000000	0.0627055786
0.2350000000	0.0621037323
0.2400000000	0.0612397186
0.2450000000	0.0600774610
0.2500000000	0.0585708337
0.2550000000	0.0566604873
0.2600000000	0.0542699402
0.2650000000	0.0567744551
0.2700000000	0.0631364607
0.2750000000	0.0722402773
0.2800000000	0.0849244380
0.2850000000	0.1036241655
0.2900000000	0.1267943463
0.2950000000	0.1600106622
0.3000000000	0.2046627169
0.3050000000	0.2731034957
0.3100000000	0.3684390315
0.3150000000	0.5529088414
0.3200000000	0.8410138651
0.3250000000	1.0382604541
0.3300000000	1.3111155448
0.3350000000	1.6979259221
0.3400000000	2.3051391947
0.3450000000	3.3469208767
0.3500000000	5.4243210331
0.3550000000	10.2332358584
0.3600000000	25.1493606425
0.3650000000	0.1137129636
0.3700000000	11.6557424139
0.3750000000	15.3268120789
0.3800000000	7.1417393115
0.3850000000	4.0229906606
0.3900000000	2.5803819885
0.3950000000	1.8183337617
0.4000000000	1.3771087882
0.4050000000	1.0894613708
0.4100000000	0.9021965528
0.4150000000	0.7786848663
0.4200000000	0.7006225661
0.4250000000	0.6393144474
0.4300000000	0.5668711275
0.4350000000	0.5095365103
0.4400000000	0.4641911921
0.4450000000	0.4281362357
0.4500000000	0.3996709276
0.4550000000	0.3770986032
0.4600000000	0.3594901658
0.4650000000	0.3458629529
0.4700000000	0.3355664232
0.4750000000	0.3281454105
0.4800000000	0.3232027166
0.4850000000	0.3203900652
0.4900000000	0.3195014907
0.4950000000	0.3203785322
0.5000000000	0.3228857866
0.5050000000	0.3269628958
0.5100000000	0.3325604130
0.5150000000	0.3396489428
0.5200000000	0.3482431659
0.5250000000	0.3583551149
0.5300000000	0.3701332486
0.5350000000	0.3836435495
0.5400000000	0.3990048558
0.5450000000	0.4163730156
0.5500000000	0.4359685279
0.5550000000	0.4580325879
0.5600000000	0.4828587664
0.5650000000	0.5108245739
0.5700000000	0.5424511419
0.5750000000	0.5781247090
0.5800000000	0.6185679821
0.5850000000	0.6647684209
0.5900000000	0.7173920585
0.5950000000	0.7778404426
0.6000000000	0.8479651934
0.6050000000	0.9291540311
0.6100000000	1.0245881913
0.6150000000	1.1369056955
0.6200000000	1.2706350860
0.6250000000	1.4322733010
0.6300000000	1.6284460245
0.6350000000	1.8716036447
0.6400000000	2.1754821211
0.6450000000	2.5650074662
0.6500000000	3.0720199057
0.6550000000	3.7504536922
0.6600000000	4.6913757909
0.6650000000	6.0386636092
0.6700000000	8.0787758940
0.6750000000	11.3589634648
0.6800000000	17.1573041424
0.6850000000	28.7920315552
0.6900000000	57.7036599169
0.6950000000	161.9823038365
0.7000000000	785.6255510355
0.7050000000	381.9501353145
0.7100000000	98.1147542251
0.7150000000	41.7238281851
0.7200000000	22.7858703733
0.7250000000	14.3135725030
0.7300000000	9.8171148551
0.7350000000	7.1590384876
0.7400000000	5.4569051105
0.7450000000	4.3015657078
0.7500000000	3.4831459829
0.7550000000	2.8818775377
0.7600000000	2.4286885654
0.7650000000	2.0772474063
0.7700000000	1.7998209394
0.7750000000	1.5770996382
0.7800000000	1.3961089672
0.7850000000	1.2470818485
0.7900000000	1.1222318512
0.7950000000	1.0179592457
0.8000000000	0.9292994914
0.8050000000	0.8533408684
0.8100000000	0.7886773180
0.8150000000	0.7320024850
0.8200000000	0.6826610185
0.8250000000	0.6412548437
0.8300000000	0.6050107223
0.8350000000	0.5735017015
0.8400000000	0.5484092693
0.8450000000	0.5265147334
0.8500000000	0.5079504042
0.8550000000	0.4962155863
0.8600000000	0.4868156064
0.8650000000	0.4800848485
0.8700000000	0.4824261233
0.8750000000	0.4832453121
0.8800000000	0.4806431704
0.8850000000	0.4597444121
0.8900000000	0.3567810847
0.8950000000	-0.1592166325
0.9000000000	-2.9261278026
0.9050000000	-19.2268874560
0.9100000000	3.6611785902
0.9150000000	8.6726227458
0.9200000000	3.6001725416
0.9250000000	1.8729164563
0.9300000000	1.1432764718
0.9350000000	0.7946794173
0.9400000000	0.6066269370
0.9450000000	0.5023912259
0.9500000000	0.4283679508
0.9550000000	0.3788185397
0.9600000000	0.3481755742
0.9650000000	0.3228929480
0.9700000000	0.3048541585
0.9750000000	0.2925632345
0.9800000000	0.2850848668
0.9850000000	0.2837236471
0.9900000000	0.2864707848
0.9950000000	0.2975217938
1.0000000000	0.3239254597
1.0050000000	0.3855562089
1.0100000000	0.5470652199
1.0150000000	1.1005917330
1.0200000000	2.1139407171
1.0250000000	0.9608219798
1.0300000000	0.4919311393
1.0350000000	0.3521796949
1.0400000000	0.2972218571
1.0450000000	0.2714374337
1.0500000000	0.2585090685
1.0550000000	0.2517231727
1.0600000000	0.2486725668
1.0650000000	0.2480940491
1.0700000000	0.2492872843
1.0750000000	0.2520053862
1.0800000000	0.2557597530
1.0850000000	0.2608714330
1.0900000000	0.2682599865
1.0950000000	0.2768746017
1.1000000000	0.2867996069
1.1050000000	0.2980527852
1.1100000000	0.3108121928
1.1150000000	0.3252475690
1.1200000000	0.3415603939
1.1250000000	0.3599174076
1.1300000000	0.3807941570
1.1350000000	0.4045112251
1.1400000000	0.4315486506
1.1450000000	0.4625168905
1.1500000000	0.4978910141
1.1550000000	0.5391501277
1.1600000000	0.5872295417
1.1650000000	0.6433542464
1.1700000000	0.7077776138
1.1750000000	0.7731108048
1.1800000000	0.8349277823
1.1850000000	1.1604544007
1.1900000000	1.4401390879
1.1950000000	1.9742276351
1.2000000000	2.6887778774
1.2050000000	2.3584872007
1.2100000000	2.2570831471
1.2150000000	2.5127648896
1.2200000000	3.0052800163
1.2250000000	3.7616324089
1.2300000000	4.9117219498
1.2350000000	6.7310441086
1.2400000000	9.7956923458
1.2450000000	15.5664028795
1.2500000000	28.0641296572
1.2550000000	60.7499806241
1.2600000000	146.7363957807
1.2650000000	148.6377477526
1.2700000000	61.8302202161
1.2750000000	28.5408649048
1.2800000000	15.8064290333
1.2850000000	9.9400154609
1.2900000000	6.8129678397
1.2950000000	4.9653884079
1.3000000000	3.7885623008
1.3050000000	2.9962091690
1.3100000000	2.4374725601
1.3150000000	2.0337575902
1.3200000000	1.7344829636
1.3250000000	1.5092676441
1.3300000000	1.3396582262
1.3350000000	1.2143314203
1.3400000000	1.1274083873
1.3450000000	1.0772765742
1.3500000000	1.0712477190
1.3550000000	1.1259678822
1.3600000000	1.2837925408
1.3650000000	1.6525052355
1.3700000000	2.5330469001
1.3750000000	4.7239106417
1.3800000000	7.7161556880
1.3850000000	5.3903248206
1.3900000000	2.7469531429
1.3950000000	1.5938804336
1.4000000000	1.0438343090
1.4050000000	0.7057731322
1.4100000000	0.3997952006
1.4150000000	-0.0566678723
1.4200000000	-1.0786226167
1.4250000000	-3.7865331056
1.4300000000	-5.0912335355
1.4350000000	2.3324936717
1.4400000000	2.9836173372
1.4450000000	1.7888057119
1.4500000000	1.1130657106
1.4550000000	0.7672840186
1.4600000000	0.5665935009
1.4650000000	0.4079868112
1.4700000000	0.2383343038
1.4750000000	0.2800806735
1.4800000000	0.4106112806
1.4850000000	0.3728486039
1.4900000000	0.3301487409
1.4950000000	0.3025302011
1.5000000000	0.2843871399
1.5050000000	0.2723910599
1.5100000000	0.2642304553
1.5150000000	0.2597779429
1.5200000000	0.2564960145
1.5250000000	0.2553125217
1.5300000000	0.2563366644
1.5350000000	0.2600369518
1.5400000000	0.2675821268
1.5450000000	0.2815677326
1.5500000000	0.3078275725
1.5550000000	0.3579900955
1.5600000000	0.4332880288
1.5650000000	0.4453547760
1.5700000000	0.3774031113
1.5750000000	0.3297186299
1.5800000000	0.3091464328
1.5850000000	0.3026711383
1.5900000000	0.3035065351
1.5950000000	0.3087055054
1.6000000000	0.3169840244
1.6050000000	0.3278999660
1.6100000000	0.3411232276
1.6150000000	0.3566045861
1.6200000000	0.3745906139
1.6250000000	0.3952940182
1.6300000000	0.4190644373
1.6350000000	0.4463526387
1.6400000000	0.4777350406
1.6450000000	0.5139478495
1.6500000000	0.5559151784
1.6550000000	0.6048081455
1.6600000000	0.6621440564
1.6650000000	0.7298814307
1.6700000000	0.8099245482
1.6750000000	0.9069465873
1.6800000000	1.0250782252
1.6850000000	1.1708177851
1.6900000000	1.3533917010
1.6950000000	1.5863393653
1.7000000000	1.8900428102
1.7050000000	2.3090097404
1.7100000000	2.8935429352
1.7150000000	3.7431739563
1.7200000000	5.0380398534
1.7250000000	7.0922925882
1.7300000000	10.2491174985
1.7350000000	14.3003565768
1.7400000000	19.4217774166
1.7450000000	28.4090127575
1.7500000000	40.0752589308
1.7550000000	40.7199144673
1.7600000000	28.5676093463
1.7650000000	17.7949527143
1.7700000000	11.4072636838
1.7750000000	7.7749905875
1.7800000000	5.6284750183
1.7850000000	4.3081059027
1.7900000000	3.4892828348
1.7950000000	3.0207731298
1.8000000000	2.8316894984
1.8050000000	2.7718449476
1.8100000000	2.4661527726
1.8150000000	1.9109056802
1.8200000000	1.4673000170
1.8250000000	1.2385792035
1.8300000000	1.0783075240
1.8350000000	0.9358714286
1.8400000000	0.8197259292
1.8450000000	0.7275574836
1.8500000000	0.6532794870
1.8550000000	0.5919173723
1.8600000000	0.5354724751
1.8650000000	0.4877528441
1.8700000000	0.4395241660
1.8750000000	0.3699992778
1.8800000000	0.2115248008
1.8850000000	-0.1357956875
1.8900000000	-0.6029604245
1.8950000000	-0.6831144793
1.9000000000	0.0730999909
1.9050000000	0.7781603479
1.9100000000	0.8604323148
1.9150000000	0.7269066419
1.9200000000	0.5960392627
1.9250000000	0.5031757008
1.9300000000	0.4469378153
1.9350000000	0.4040033874
1.9400000000	0.3754435839
1.9450000000	0.3565399653
1.9500000000	0.3433270794
1.9550000000	0.3322684094
1.9600000000	0.3227171842
1.9650000000	0.3159338876
1.9700000000	0.3123108228
1.9750000000	0.3116070306
1.9800000000	0.3136269823
1.9850000000	0.3184291643
1.9900000000	0.3263287808
1.9950000000	0.3377202348
2.0000000000	0.3523072637
2.0050000000	0.3688554466
2.0100000000	0.3807257039
2.0150000000	0.3886422748
2.0200000000	0.3981880445
2.0250000000	0.4129229097
2.0300000000	0.4338944599
2.0350000000	0.4616270804
2.0400000000	0.4970729469
2.0450000000	0.5418842398
2.0500000000	0.5984338612
2.0550000000	0.6693589167
2.0600000000	0.7559385938
2.0650000000	0.8568119040
2.0700000000	0.9734942817
2.0750000000	1.1190019452
2.0800000000	1.3148244550
2.0850000000	1.5819144228
2.0900000000	1.9324573468
2.0950000000	2.3412680130
2.1000000000	2.7056314915
2.1050000000	2.8821858202
2.1100000000	2.7983338936
2.1150000000	2.6053850946
2.1200000000	2.4690021566
2.1250000000	2.4631699510
2.1300000000	2.6098373276
2.1350000000	2.9263997426
2.1400000000	3.4477005487
2.1450000000	4.2353841006
2.1500000000	5.3757737045
2.1550000000	6.9337122278
2.1600000000	8.7835619799
2.1650000000	10.3383279858
2.1700000000	10.7056944019
2.1750000000	9.5833243738
2.1800000000	7.7368670455
2.1850000000	5.9693531977
2.1900000000	4.5874185425
2.1950000000	3.5890111423
2.2000000000	2.8885444542
2.2050000000	2.4052789970
2.2100000000	2.0697930509
2.2150000000	1.8124729361
2.2200000000	1.5819006761
2.2250000000	1.3625919913
2.2300000000	1.1640244929
2.2350000000	0.9935271216
2.2400000000	0.8491217343
2.2450000000	0.7244329268
2.2500000000	0.6131149725
2.2550000000	0.5116190516
2.2600000000	0.4101214172
2.2650000000	0.3362852144
2.2700000000	0.2961784079
2.2750000000	0.3062772900
2.2800000000	0.3645338246
2.2850000000	0.4387163451
2.2900000000	0.4930169870
2.2950000000	0.5170850245
2.3000000000	0.5198399431
2.3050000000	0.5115383610
2.3100000000	0.5006017553
2.3150000000	0.4909104285
2.3200000000	0.4839985411
2.3250000000	0.4807091397
2.3300000000	0.4817246743
2.3350000000	0.4876104409
2.3400000000	0.4988491814
2.3450000000	0.5159291806
2.3500000000	0.5393676465
2.3550000000	0.5699398956
2.3600000000	0.6071439057
2.3650000000	0.6512110267
2.3700000000	0.7020186157
2.3750000000	0.7601181466
2.3800000000	0.8276068947
2.3850000000	0.9069735112
2.3900000000	0.9987683468
2.3950000000	1.0989039086
2.4000000000	1.1968721940
2.4050000000	1.2812988976
2.4100000000	1.3280938020
2.4150000000	1.3325652067
2.4200000000	1.3061538500
2.4250000000	1.2683693573
2.4300000000	1.2365268901
2.4350000000	1.2210785384
2.4400000000	1.2261949962
2.4450000000	1.2525498716
2.4500000000	1.3002270725
2.4550000000	1.3702888715
2.4600000000	1.4672273012
2.4650000000	1.5956473054
2.4700000000	1.7606768466
2.4750000000	1.9655188141
2.4800000000	2.2085571396
2.4850000000	2.4794219784
2.4900000000	2.7543923021
2.4950000000	2.9941041987
2.5000000000	3.1492995387
2.5050000000	3.1692512074
2.5100000000	3.0337042069
2.5150000000	2.7796561846
2.5200000000	2.4662229547
2.5250000000	2.1453394118
2.5300000000	1.8486630474
2.5350000000	1.5894952917
2.5400000000	1.3697944221
2.5450000000	1.1863007754
2.5500000000	1.0342906873
2.5550000000	0.9095199738
2.5600000000	0.8051906547
2.5650000000	0.7271131528
2.5700000000	0.6710127104
2.5750000000	0.6348885778
2.5800000000	0.6147309152
2.5850000000	0.6050555806
2.5900000000	0.6007158012
2.5950000000	0.5985067180
2.6000000000	0.5973949810
2.6050000000	0.6021600862
2.6100000000	0.6097090299
2.6150000000	0.6211975166
2.6200000000	0.6372395659
2.6250000000	0.6578730090
2.6300000000	0.6825154340
2.6350000000	0.7099307318
2.6400000000	0.7382301851
2.6450000000	0.7650187674
2.6500000000	0.7877600225
2.6550000000	0.8043743397
2.6600000000	0.8138957267
2.6650000000	0.8168916021
2.6700000000	0.8153427215
2.6750000000	0.8121444577
2.6800000000	0.8101023751
2.6850000000	0.8118376715
2.6900000000	0.8191757522
2.6950000000	0.8332384076
2.7000000000	0.8545634846
2.7050000000	0.8864859867
2.7100000000	0.9275701099
2.7150000000	0.9771515753
2.7200000000	1.0338572864
2.7250000000	1.0953564228
2.7300000000	1.1581301997
2.7350000000	1.2174345682
2.7400000000	1.2676266175
2.7450000000	1.3029768143
2.7500000000	1.3188671150
2.7550000000	1.3129708224
2.7600000000	1.2858824185
2.7650000000	1.2409028471
2.7700000000	1.1830833235
2.7750000000	1.1180202181
2.7800000000	1.0508452695
2.7850000000	0.9856636390
2.7900000000	0.9248553047
2.7950000000	0.8710246277
2.8000000000	0.8247103588
2.8050000000	0.7818150419
2.8100000000	0.7479953384
2.8150000000	0.7219196861
2.8200000000	0.7021415640
2.8250000000	0.6873335900
2.8300000000	0.6763676062
2.8350000000	0.6683078477
2.8400000000	0.6623636162
2.8450000000	0.6578636001
2.8500000000	0.6542687459
2.8550000000	0.6512211999
2.8600000000	0.6485998331
2.8650000000	0.6465381304
2.8700000000	0.6453902956
2.8750000000	0.6456434647
2.8800000000	0.6478098625
2.8850000000	0.6523294846
2.8900000000	0.6595023803
2.8950000000	0.6694477663
2.9000000000	0.6820839596
2.9050000000	0.7009856045
2.9100000000	0.7217137997
2.9150000000	0.7428845567
2.9200000000	0.7627488094
2.9250000000	0.7794276349
2.9300000000	0.7911765035
2.9350000000	0.7966910393
2.9400000000	0.7953594408
2.9450000000	0.7873793003
2.9500000000	0.7736837170
2.9550000000	0.7557034666
2.9600000000	0.7350654444
2.9650000000	0.7133106859
2.9700000000	0.6917065201
2.9750000000	0.6711643939
2.9800000000	0.6522454485
2.9850000000	0.6352211147
2.9900000000	0.6201545073
2.9950000000	0.6069795620
3.0000000000	0.5955656051
