# energy (eV)    P(omega), $W$ = 300 nm, $h$ = 300 nm, $s$ = 20 nm, $d/W = 5$, $E_{\rm e}$ = 200 keV
0.2000000000	0.2054419699
0.2050000000	0.2085201831
0.2100000000	0.2113977668
0.2150000000	0.2140812655
0.2200000000	0.2165762739
0.2250000000	0.2188875401
0.2300000000	0.2210186989
0.2350000000	0.2229721585
0.2400000000	0.2247488447
0.2450000000	0.2263480886
0.2500000000	0.2277672674
0.2550000000	0.2290013468
0.2600000000	0.2300427672
0.2650000000	0.2308805471
0.2700000000	0.2314998011
0.2750000000	0.2318808042
0.2800000000	0.2319979428
0.2850000000	0.2318182835
0.2900000000	0.2312996407
0.2950000000	0.2303884813
0.3000000000	0.2290164273
0.3050000000	0.2270963387
0.3100000000	0.2245166601
0.3150000000	0.2372880259
0.3200000000	0.2524556971
0.3250000000	0.2716402098
0.3300000000	0.2973331955
0.3350000000	0.3293141523
0.3400000000	0.3711937599
0.3450000000	0.4219882860
0.3500000000	0.4884347244
0.3550000000	0.5763527417
0.3600000000	0.6911421555
0.3650000000	0.8511657638
0.3700000000	1.0621574944
0.3750000000	1.3556423307
0.3800000000	1.7800876809
0.3850000000	2.4414315918
0.3900000000	3.4861677414
0.3950000000	5.2607097125
0.4000000000	8.6435041989
0.4050000000	16.2274082714
0.4100000000	36.9203474465
0.4150000000	118.4816183759
0.4200000000	75.4909559046
0.4250000000	-142.0816050109
0.4300000000	39.5064774973
0.4350000000	24.6175303352
0.4400000000	15.0478350482
0.4450000000	9.8967384941
0.4500000000	6.9314657575
0.4550000000	5.1067054672
0.4600000000	3.9182787932
0.4650000000	3.1084528482
0.4700000000	2.5360915884
0.4750000000	2.1221520942
0.4800000000	1.8152518048
0.4850000000	1.5843163429
0.4900000000	1.4080344646
0.4950000000	1.2721001307
0.5000000000	1.1667346560
0.5050000000	1.0847637053
0.5100000000	1.0215673325
0.5150000000	0.9737440704
0.5200000000	0.9377396763
0.5250000000	0.9119517797
0.5300000000	0.8946613483
0.5350000000	0.8846108904
0.5400000000	0.8808732757
0.5450000000	0.8826741026
0.5500000000	0.8897676511
0.5550000000	0.9017172333
0.5600000000	0.9182992809
0.5650000000	0.9394131469
0.5700000000	0.9649669395
0.5750000000	0.9951390217
0.5800000000	1.0302194595
0.5850000000	1.0703972818
0.5900000000	1.1160394077
0.5950000000	1.1676076414
0.6000000000	1.2256902115
0.6050000000	1.2911401813
0.6100000000	1.3647710514
0.6150000000	1.4476946079
0.6200000000	1.5413939231
0.6250000000	1.6472908215
0.6300000000	1.7674870929
0.6350000000	1.9046022877
0.6400000000	2.0613618754
0.6450000000	2.2417002750
0.6500000000	2.4507903581
0.6550000000	2.6940167618
0.6600000000	2.9796558512
0.6650000000	3.3183266360
0.6700000000	3.7225133943
0.6750000000	4.2112535241
0.6800000000	4.8101489377
0.6850000000	5.5527369445
0.6900000000	6.4909608499
0.6950000000	7.6974666200
0.7000000000	9.2876529177
0.7050000000	11.4379326378
0.7100000000	14.4472143196
0.7150000000	18.8475871953
0.7200000000	25.6296326651
0.7250000000	36.8872789083
0.7300000000	57.5506315287
0.7350000000	101.7638184190
0.7400000000	223.0186065896
0.7450000000	739.8473739248
0.7500000000	2292.0118363707
0.7550000000	576.5954845682
0.7600000000	190.9518739937
0.7650000000	91.4917311080
0.7700000000	53.2074321164
0.7750000000	34.7264142115
0.7800000000	24.4380362913
0.7850000000	18.1498426805
0.7900000000	14.0220039705
0.7950000000	11.1751489129
0.8000000000	9.1286650115
0.8050000000	7.6045027128
0.8100000000	6.4422532031
0.8150000000	5.5209281172
0.8200000000	4.7937975478
0.8250000000	4.2083249798
0.8300000000	3.7287344481
0.8350000000	3.3344247581
0.8400000000	3.0038804528
0.8450000000	2.7265122414
0.8500000000	2.4920569633
0.8550000000	2.2897332191
0.8600000000	2.1170165131
0.8650000000	1.9694871961
0.8700000000	1.8391336527
0.8750000000	1.7282487112
0.8800000000	1.6341595299
0.8850000000	1.5498035202
0.8900000000	1.4821335112
0.8950000000	1.4205746682
0.9000000000	1.3717846531
0.9050000000	1.3381796105
0.9100000000	1.3073834951
0.9150000000	1.2886993623
0.9200000000	1.2864415577
0.9250000000	1.2847651150
0.9300000000	1.2659118002
0.9350000000	1.2093585640
0.9400000000	0.8943439410
0.9450000000	-0.5374472876
0.9500000000	-8.0934986068
0.9550000000	-46.4186090626
0.9600000000	10.9531107409
0.9650000000	19.2404916633
0.9700000000	8.5338360198
0.9750000000	4.4800547667
0.9800000000	2.8077197164
0.9850000000	2.0255669507
0.9900000000	1.5749098425
0.9950000000	1.3016430253
1.0000000000	1.1271615333
1.0050000000	1.0165438628
1.0100000000	0.9307884809
1.0150000000	0.8681388055
1.0200000000	0.8259404072
1.0250000000	0.7905216302
1.0300000000	0.7636147619
1.0350000000	0.7432602579
1.0400000000	0.7303197972
1.0450000000	0.7195604402
1.0500000000	0.7124637216
1.0550000000	0.7086093575
1.0600000000	0.7089469336
1.0650000000	0.7108333818
1.0700000000	0.7153463405
1.0750000000	0.7225044976
1.0800000000	0.7330150351
1.0850000000	0.7463534295
1.0900000000	0.7660286805
1.0950000000	0.7893939455
1.1000000000	0.8172329991
1.1050000000	0.8493187925
1.1100000000	0.8866645522
1.1150000000	0.9301100644
1.1200000000	0.9806506181
1.1250000000	1.0395881847
1.1300000000	1.1086655648
1.1350000000	1.1900527695
1.1400000000	1.2862206550
1.1450000000	1.4016815920
1.1500000000	1.5413407977
1.1550000000	1.7122904380
1.1600000000	1.9245362066
1.1650000000	2.1910605915
1.1700000000	2.5361854814
1.1750000000	2.9921967334
1.1800000000	3.6124694181
1.1850000000	4.4847376635
1.1900000000	5.7743490815
1.1950000000	7.7987875465
1.2000000000	11.2325287012
1.2050000000	17.7213901591
1.2100000000	31.9955645867
1.2150000000	70.5783698216
1.2200000000	173.2133067663
1.2250000000	155.6199872476
1.2300000000	62.0746930171
1.2350000000	29.1130941392
1.2400000000	16.6280517890
1.2450000000	10.8955085237
1.2500000000	7.8713006190
1.2550000000	6.1258994030
1.2600000000	5.0637341085
1.2650000000	4.3983262902
1.2700000000	4.0014434059
1.2750000000	3.7899424683
1.2800000000	3.7242362379
1.2850000000	3.7870245535
1.2900000000	3.9768891319
1.2950000000	4.3036984825
1.3000000000	4.8078192220
1.3050000000	5.5410158215
1.3100000000	6.5998134077
1.3150000000	8.1512285910
1.3200000000	10.4955193397
1.3250000000	14.2049692317
1.3300000000	20.5329645260
1.3350000000	32.3854547392
1.3400000000	57.7176955620
1.3450000000	120.6053583398
1.3500000000	255.9521059331
1.3550000000	238.7114072490
1.3600000000	110.0811066125
1.3650000000	54.0868731201
1.3700000000	31.0182397238
1.3750000000	19.9475960769
1.3800000000	13.9112834198
1.3850000000	10.2750719314
1.3900000000	7.9314845600
1.3950000000	6.3325250479
1.4000000000	5.1951478737
1.4050000000	4.3597668334
1.4100000000	3.7297238094
1.4150000000	3.2472717997
1.4200000000	2.8716642102
1.4250000000	2.5920491556
1.4300000000	2.4138851829
1.4350000000	2.2956489056
1.4400000000	1.5770530106
1.4450000000	-0.4127523746
1.4500000000	-3.8762026713
1.4550000000	-1.2960379540
1.4600000000	3.9394735250
1.4650000000	2.2829901868
1.4700000000	-1.4529098755
1.4750000000	-7.3615753361
1.4800000000	-3.2474909074
1.4850000000	5.5663112316
1.4900000000	4.5060885036
1.4950000000	2.9236619630
1.5000000000	2.0585169049
1.5050000000	1.5901611596
1.5100000000	1.3220608756
1.5150000000	1.1576819243
1.5200000000	1.0500166324
1.5250000000	0.9816830247
1.5300000000	0.9278355626
1.5350000000	0.8887232936
1.5400000000	0.8603959492
1.5450000000	0.8404982635
1.5500000000	0.8274033607
1.5550000000	0.8204340357
1.5600000000	0.8209967446
1.5650000000	0.8262620066
1.5700000000	0.8392613899
1.5750000000	0.8623831795
1.5800000000	0.9003819077
1.5850000000	0.9626188208
1.5900000000	1.0688965584
1.5950000000	1.2629905700
1.6000000000	1.6371468017
1.6050000000	2.2511795648
1.6100000000	2.5373273889
1.6150000000	2.0195227053
1.6200000000	1.5394813726
1.6250000000	1.2954593145
1.6300000000	1.1834305857
1.6350000000	1.1372106092
1.6400000000	1.1268221284
1.6450000000	1.1385529683
1.6500000000	1.1657289960
1.6550000000	1.2056051358
1.6600000000	1.2567832863
1.6650000000	1.3190718405
1.6700000000	1.3929854846
1.6750000000	1.4795886928
1.6800000000	1.5804399966
1.6850000000	1.6976201081
1.6900000000	1.8335492214
1.6950000000	1.9896354497
1.7000000000	2.1693273330
1.7050000000	2.3772662552
1.7100000000	2.6293041074
1.7150000000	3.0526732933
1.7200000000	3.6919883441
1.7250000000	4.3833633585
1.7300000000	5.2056227019
1.7350000000	6.0951886021
1.7400000000	6.9162170575
1.7450000000	7.9508899566
1.7500000000	9.5371134107
1.7550000000	11.9163674256
1.7600000000	15.4860664337
1.7650000000	20.9932287966
1.7700000000	29.8646524349
1.7750000000	44.8066928465
1.7800000000	70.2554932456
1.7850000000	107.7569288796
1.7900000000	133.8236022620
1.7950000000	113.8620477847
1.8000000000	75.7050245250
1.8050000000	47.7536464655
1.8100000000	31.4412196935
1.8150000000	21.8824977259
1.8200000000	16.0003836375
1.8250000000	12.1863202739
1.8300000000	9.5952921709
1.8350000000	7.7644633676
1.8400000000	6.4281815216
1.8450000000	5.4250948417
1.8500000000	4.6534101451
1.8550000000	4.0493049650
1.8600000000	3.5678877852
1.8650000000	3.1783019052
1.8700000000	2.8580625751
1.8750000000	2.5899220655
1.8800000000	2.3591984124
1.8850000000	2.1515760849
1.8900000000	1.9493363644
1.8950000000	1.7256385407
1.9000000000	1.4350036440
1.9050000000	0.9290341706
1.9100000000	0.2024251806
1.9150000000	-0.4973258656
1.9200000000	0.3464276591
1.9250000000	3.7238284846
1.9300000000	6.4218447326
1.9350000000	6.4826063576
1.9400000000	5.2041961442
1.9450000000	3.9445538069
1.9500000000	3.0517303398
1.9550000000	2.4611491308
1.9600000000	2.0675814909
1.9650000000	1.8053367171
1.9700000000	1.6122774788
1.9750000000	1.4707099683
1.9800000000	1.3632636941
1.9850000000	1.2774820452
1.9900000000	1.2040935169
1.9950000000	1.1352395553
2.0000000000	1.0695066884
2.0050000000	1.0304317652
2.0100000000	1.0567148397
2.0150000000	1.1252441171
2.0200000000	1.1715640692
2.0250000000	1.1917290068
2.0300000000	1.2071319934
2.0350000000	1.2276703277
2.0400000000	1.2581630978
2.0450000000	1.3006592011
2.0500000000	1.3572434022
2.0550000000	1.4299889770
2.0600000000	1.5190140012
2.0650000000	1.6172049226
2.0700000000	1.7068554992
2.0750000000	1.7741368300
2.0800000000	1.8293244313
2.0850000000	1.8947525106
2.0900000000	1.9846245333
2.0950000000	2.1038597589
2.1000000000	2.2562186854
2.1050000000	2.4393988743
2.1100000000	2.6661630838
2.1150000000	2.9456577032
2.1200000000	3.2910399575
2.1250000000	3.7209793612
2.1300000000	4.2619307561
2.1350000000	4.9517449200
2.1400000000	5.8450897124
2.1450000000	7.0218729964
2.1500000000	8.5984590517
2.1550000000	10.7394326506
2.1600000000	13.6553679015
2.1650000000	17.5247132459
2.1700000000	22.2794380964
2.1750000000	27.0206361523
2.1800000000	29.9981704832
2.1850000000	30.2772707235
2.1900000000	29.1469205822
2.1950000000	28.3451174867
2.2000000000	28.0650521755
2.2050000000	26.7461286993
2.2100000000	23.7206308279
2.2150000000	19.9137646189
2.2200000000	16.4511344440
2.2250000000	13.6455051320
2.2300000000	11.3425936017
2.2350000000	9.4156346601
2.2400000000	7.8336546812
2.2450000000	6.5845442094
2.2500000000	5.6165326099
2.2550000000	4.8673014585
2.2600000000	4.2791852033
2.2650000000	3.8002197338
2.2700000000	3.3812332933
2.2750000000	2.9806902350
2.2800000000	2.5889736382
2.2850000000	2.2539155306
2.2900000000	2.0569499203
2.2950000000	2.0345527569
2.3000000000	2.1238069552
2.3050000000	2.2178303835
2.3100000000	2.2510945771
2.3150000000	2.2256668891
2.3200000000	2.1698822375
2.3250000000	2.1128618171
2.3300000000	2.0700659562
2.3350000000	2.0460116945
2.3400000000	2.0373111350
2.3450000000	2.0340990289
2.3500000000	2.0236671145
2.3550000000	1.9978970592
2.3600000000	1.9590348888
2.3650000000	1.9169830362
2.3700000000	1.8818056088
2.3750000000	1.8590948003
2.3800000000	1.8497445786
2.3850000000	1.8515012240
2.3900000000	1.8614876272
2.3950000000	1.8769480953
2.4000000000	1.8992561738
2.4050000000	1.9342385215
2.4100000000	1.9843747964
2.4150000000	2.0530860677
2.4200000000	2.1427304384
2.4250000000	2.2558350923
2.4300000000	2.3954998731
2.4350000000	2.5656983538
2.4400000000	2.7715450308
2.4450000000	3.0195981632
2.4500000000	3.3181698471
2.4550000000	3.6777473686
2.4600000000	4.1112275094
2.4650000000	4.6341566940
2.4700000000	5.2644268763
2.4750000000	6.0200779676
2.4800000000	6.9201514898
2.4850000000	7.9725593181
2.4900000000	9.1674479927
2.4950000000	10.4612341882
2.5000000000	11.7598105896
2.5050000000	12.9633678758
2.5100000000	13.7524959814
2.5150000000	13.9480301863
2.5200000000	13.5200434799
2.5250000000	12.6012772252
2.5300000000	11.4026219495
2.5350000000	10.1153755589
2.5400000000	8.8657671587
2.5450000000	7.7196562095
2.5500000000	6.7035567537
2.5550000000	5.8220193698
2.5600000000	5.0624686381
2.5650000000	4.4221425717
2.5700000000	3.8874484744
2.5750000000	3.4501731315
2.5800000000	3.1040373900
2.5850000000	2.8416309334
2.5900000000	2.6499952431
2.5950000000	2.5105307207
2.6000000000	2.4037955610
2.6050000000	2.3276356747
2.6100000000	2.2601101001
2.6150000000	2.2003131501
2.6200000000	2.1496489324
2.6250000000	2.1095562505
2.6300000000	2.0809575568
2.6350000000	2.0642944064
2.6400000000	2.0597999934
2.6450000000	2.0677108226
2.6500000000	2.0885130272
2.6550000000	2.1223154039
2.6600000000	2.1698602437
2.6650000000	2.2318533527
2.6700000000	2.3091266646
2.6750000000	2.4026526036
2.6800000000	2.5134706084
2.6850000000	2.6426457640
2.6900000000	2.7911201518
2.6950000000	2.9596154682
2.7000000000	3.1483984508
2.7050000000	3.3795603589
2.7100000000	3.6355314405
2.7150000000	3.9131922172
2.7200000000	4.2072980345
2.7250000000	4.5103884358
2.7300000000	4.8128020073
2.7350000000	5.1027092274
2.7400000000	5.3660342121
2.7450000000	5.5887282158
2.7500000000	5.7499314589
2.7550000000	5.8358344754
2.7600000000	5.8360084835
2.7650000000	5.7481557786
2.7700000000	5.5792766450
2.7750000000	5.3444878658
2.7800000000	5.0637410376
2.7850000000	4.7582567743
2.7900000000	4.4470461939
2.7950000000	4.1453468791
2.8000000000	3.8639404742
2.8050000000	3.5781048264
2.8100000000	3.3320469901
2.8150000000	3.1252154817
2.8200000000	2.9543790709
2.8250000000	2.8152418654
2.8300000000	2.7034708988
2.8350000000	2.6153777592
2.8400000000	2.5470395431
2.8450000000	2.4986939378
2.8500000000	2.4674596373
2.8550000000	2.4522464764
2.8600000000	2.4522513473
2.8650000000	2.4667929687
2.8700000000	2.4952070051
2.8750000000	2.5367345590
2.8800000000	2.5904502996
2.8850000000	2.6551804766
2.8900000000	2.7295231235
2.8950000000	2.8118190755
2.9000000000	2.9002402603
2.9050000000	3.0120674100
2.9100000000	3.1238393074
2.9150000000	3.2315642283
2.9200000000	3.3306579135
2.9250000000	3.4158308325
2.9300000000	3.4821550055
2.9350000000	3.5227213089
2.9400000000	3.5342360548
2.9450000000	3.5150898569
2.9500000000	3.4665967844
2.9550000000	3.3928812566
2.9600000000	3.3000786548
2.9650000000	3.1952533467
2.9700000000	3.0853140188
2.9750000000	2.9762186277
2.9800000000	2.8725742468
2.9850000000	2.7775648548
2.9900000000	2.6931518921
2.9950000000	2.6202872242
3.0000000000	2.5592465886
