# energy (eV)    P(omega), $W$ = 300 nm, $h$ = 300 nm, $s$ = 20 nm, $d/W = 5$, $E_{\rm e}$ = 200 keV
0.2000000000	0.0844388896
0.2050000000	0.0856517962
0.2100000000	0.0867919408
0.2150000000	0.0878615976
0.2200000000	0.0888627275
0.2250000000	0.0897969513
0.2300000000	0.0906654592
0.2350000000	0.0914689946
0.2400000000	0.0922077689
0.2450000000	0.0928812798
0.2500000000	0.0934884128
0.2550000000	0.0940270277
0.2600000000	0.0944939974
0.2650000000	0.0948849632
0.2700000000	0.0951939508
0.2750000000	0.0954131392
0.2800000000	0.0955323914
0.2850000000	0.0955387462
0.2900000000	0.0954155516
0.2950000000	0.0951418106
0.3000000000	0.0946904847
0.3050000000	0.0940274152
0.3100000000	0.0931087485
0.3150000000	0.0981241831
0.3200000000	0.1040815694
0.3250000000	0.1116123691
0.3300000000	0.1216898042
0.3350000000	0.1342377420
0.3400000000	0.1506711788
0.3450000000	0.1706210555
0.3500000000	0.1967299304
0.3550000000	0.2312941484
0.3600000000	0.2764584356
0.3650000000	0.3394521123
0.3700000000	0.4225956763
0.3750000000	0.5383399879
0.3800000000	0.7058600655
0.3850000000	0.9670493113
0.3900000000	1.3799852236
0.3950000000	2.0819233155
0.4000000000	3.4209702873
0.4050000000	6.4250948047
0.4100000000	14.6281380185
0.4150000000	46.9846098307
0.4200000000	29.9068359343
0.4250000000	-56.4554546395
0.4300000000	15.7324470044
0.4350000000	9.8164480209
0.4400000000	6.0099282193
0.4450000000	3.9594808552
0.4500000000	2.7783122630
0.4550000000	2.0509877751
0.4600000000	1.5770141276
0.4650000000	1.2538613363
0.4700000000	1.0253578222
0.4750000000	0.8600455399
0.4800000000	0.7374540935
0.4850000000	0.6452062795
0.4900000000	0.5748073852
0.4950000000	0.5205523920
0.5000000000	0.4785428990
0.5050000000	0.4459152547
0.5100000000	0.4208292646
0.5150000000	0.4019308802
0.5200000000	0.3877963536
0.5250000000	0.3777915940
0.5300000000	0.3712303446
0.5350000000	0.3676121221
0.5400000000	0.3665685689
0.5450000000	0.3677921577
0.5500000000	0.3711913108
0.5550000000	0.3765944917
0.5600000000	0.3839181432
0.5650000000	0.3931269877
0.5700000000	0.4041911800
0.5750000000	0.4171898995
0.5800000000	0.4322518496
0.5850000000	0.4494616038
0.5900000000	0.4689800565
0.5950000000	0.4910067272
0.6000000000	0.5157954467
0.6050000000	0.5437100520
0.6100000000	0.5751010357
0.6150000000	0.6104440672
0.6200000000	0.6503740576
0.6250000000	0.6954989062
0.6300000000	0.7467171147
0.6350000000	0.8051486119
0.6400000000	0.8719591680
0.6450000000	0.9488306587
0.6500000000	1.0379751823
0.6550000000	1.1416959748
0.6600000000	1.2635316191
0.6650000000	1.4080261430
0.6700000000	1.5805216652
0.6750000000	1.7891612351
0.6800000000	2.0449086694
0.6850000000	2.3621159758
0.6900000000	2.7630300488
0.6950000000	3.2787547742
0.7000000000	3.9587277983
0.7050000000	4.8785241099
0.7100000000	6.1662363482
0.7150000000	8.0499128787
0.7200000000	10.9542021177
0.7250000000	15.7769231405
0.7300000000	24.6324398071
0.7350000000	43.5879795705
0.7400000000	95.5948880291
0.7450000000	317.3664266596
0.7500000000	983.9325952285
0.7550000000	247.7161177233
0.7600000000	82.1005804136
0.7650000000	39.3684040637
0.7700000000	22.9132673546
0.7750000000	14.9667577657
0.7800000000	10.5412415530
0.7850000000	7.8353877595
0.7900000000	6.0585005258
0.7950000000	4.8325790119
0.8000000000	3.9510067622
0.8050000000	3.2942092994
0.8100000000	2.7931930857
0.8150000000	2.3958729216
0.8200000000	2.0821985963
0.8250000000	1.8295605977
0.8300000000	1.6225411218
0.8350000000	1.4522954930
0.8400000000	1.3095464822
0.8450000000	1.1897354846
0.8500000000	1.0884522537
0.8550000000	1.0010245609
0.8600000000	0.9263890975
0.8650000000	0.8626527956
0.8700000000	0.8063195083
0.8750000000	0.7584251065
0.8800000000	0.7178224824
0.8850000000	0.6814161497
0.8900000000	0.6522896843
0.8950000000	0.6257904173
0.9000000000	0.6048735462
0.9050000000	0.5906283555
0.9100000000	0.5775818726
0.9150000000	0.5698642906
0.9200000000	0.5694077017
0.9250000000	0.5691680855
0.9300000000	0.5612103132
0.9350000000	0.5362909609
0.9400000000	0.3956155626
0.9450000000	-0.2454274595
0.9500000000	-3.6318591817
0.9550000000	-20.8207059089
0.9600000000	4.9178391533
0.9650000000	8.6436593642
0.9700000000	3.8363825796
0.9750000000	2.0149208234
0.9800000000	1.2630824391
0.9850000000	0.9113478758
0.9900000000	0.7085828193
0.9950000000	0.5855897167
1.0000000000	0.5070436382
1.0050000000	0.4572687785
1.0100000000	0.4186375286
1.0150000000	0.3903984045
1.0200000000	0.3713863227
1.0250000000	0.3553867449
1.0300000000	0.3432050792
1.0350000000	0.3339566246
1.0400000000	0.3280492135
1.0450000000	0.3230823219
1.0500000000	0.3197396769
1.0550000000	0.3178298659
1.0600000000	0.3177944736
1.0650000000	0.3184047716
1.0700000000	0.3201568764
1.0750000000	0.3230566014
1.0800000000	0.3274291297
1.0850000000	0.3329879735
1.0900000000	0.3412738669
1.0950000000	0.3511275815
1.1000000000	0.3628950570
1.1050000000	0.3764250841
1.1100000000	0.3921596272
1.1150000000	0.4104473817
1.1200000000	0.4317162391
1.1250000000	0.4564544203
1.1300000000	0.4853999469
1.1350000000	0.5194440300
1.1400000000	0.5596182766
1.1450000000	0.6077305044
1.1500000000	0.6658090410
1.1550000000	0.7367568004
1.1600000000	0.8246686101
1.1650000000	0.9348734571
1.1700000000	1.0772739056
1.1750000000	1.2650859821
1.1800000000	1.5201265015
1.1850000000	1.8782356076
1.1900000000	2.4070605354
1.1950000000	3.2362576979
1.2000000000	4.6415671523
1.2050000000	7.2958628862
1.2100000000	13.1334045909
1.2150000000	28.9142226384
1.2200000000	70.9147218402
1.2250000000	63.7753906553
1.2300000000	25.5152666124
1.2350000000	12.0302516621
1.2400000000	6.9250817400
1.2450000000	4.5854923334
1.2500000000	3.3563503408
1.2550000000	2.6527161812
1.2600000000	2.2310672789
1.2650000000	1.9744421495
1.2700000000	1.8311605795
1.2750000000	1.7678810250
1.2800000000	1.7695287897
1.2850000000	1.8305798390
1.2900000000	1.9526971970
1.2950000000	2.1428398914
1.3000000000	2.4228586938
1.3050000000	2.8211995153
1.3100000000	3.3893104990
1.3150000000	4.2158315143
1.3200000000	5.4594601491
1.3250000000	7.4232580584
1.3300000000	10.7686949673
1.3350000000	17.0316029689
1.3400000000	30.4162883811
1.3450000000	63.6513479915
1.3500000000	135.2180579966
1.3550000000	126.1922987697
1.3600000000	58.2155139850
1.3650000000	28.6076366448
1.3700000000	16.4061153889
1.3750000000	10.5496181515
1.3800000000	7.3562195974
1.3850000000	5.4328696479
1.3900000000	4.1939010829
1.3950000000	3.3491408518
1.4000000000	2.7492656814
1.4050000000	2.3100057659
1.4100000000	1.9808288819
1.4150000000	1.7324488974
1.4200000000	1.5456801204
1.4250000000	1.4206141601
1.4300000000	1.3748879370
1.4350000000	1.4005395794
1.4400000000	1.0789096490
1.4450000000	0.0935845984
1.4500000000	-1.5058841308
1.4550000000	-0.4220208924
1.4600000000	1.8242329304
1.4650000000	0.9874797020
1.4700000000	-0.9332170851
1.4750000000	-4.0832421089
1.4800000000	-1.8173407304
1.4850000000	2.9867159605
1.4900000000	2.4210475991
1.4950000000	1.5670647486
1.5000000000	1.1010401746
1.5050000000	0.8501042308
1.5100000000	0.7070788444
1.5150000000	0.6202204569
1.5200000000	0.5641121753
1.5250000000	0.5292509832
1.5300000000	0.5026218836
1.5350000000	0.4842675085
1.5400000000	0.4721785273
1.5450000000	0.4652769629
1.5500000000	0.4628668575
1.5550000000	0.4649662064
1.5600000000	0.4728151708
1.5650000000	0.4857779569
1.5700000000	0.5067651996
1.5750000000	0.5393278027
1.5800000000	0.5901329964
1.5850000000	0.6721589007
1.5900000000	0.8127484493
1.5950000000	1.0724096249
1.6000000000	1.5789537828
1.6050000000	2.4165110174
1.6100000000	2.8044131157
1.6150000000	2.0772514308
1.6200000000	1.3950849025
1.6250000000	1.0349910023
1.6300000000	0.8541834874
1.6350000000	0.7610931595
1.6400000000	0.7139043030
1.6450000000	0.6931817388
1.6500000000	0.6891928077
1.6550000000	0.6973781812
1.6600000000	0.7150165851
1.6650000000	0.7408651857
1.6700000000	0.7744511996
1.6750000000	0.8157769380
1.6800000000	0.8652114040
1.6850000000	0.9233271885
1.6900000000	0.9906301054
1.6950000000	1.0661618233
1.7000000000	1.1486506468
1.7050000000	1.2331717015
1.7100000000	1.3296076652
1.7150000000	1.5694048784
1.7200000000	1.9901920937
1.7250000000	2.3756583636
1.7300000000	2.7892842102
1.7350000000	3.2437852419
1.7400000000	3.6897980665
1.7450000000	4.2626897941
1.7500000000	5.1290281508
1.7550000000	6.4184692662
1.7600000000	8.3477047937
1.7650000000	11.3216345862
1.7700000000	16.1121139262
1.7750000000	24.1828299780
1.7800000000	37.9351820536
1.7850000000	58.2167153402
1.7900000000	72.3478548675
1.7950000000	61.6056869794
1.8000000000	41.0003733836
1.8050000000	25.8927239462
1.8100000000	17.0717290167
1.8150000000	11.9013939080
1.8200000000	8.7194985680
1.8250000000	6.6566656954
1.8300000000	5.2560746825
1.8350000000	4.2674808044
1.8400000000	3.5472456248
1.8450000000	3.0082353793
1.8500000000	2.5955366446
1.8550000000	2.2747888343
1.8600000000	2.0220225830
1.8650000000	1.8209481386
1.8700000000	1.6599802309
1.8750000000	1.5306139849
1.8800000000	1.4261038628
1.8850000000	1.3404902695
1.8900000000	1.2669068627
1.8950000000	1.1951077370
1.9000000000	1.1073996862
1.9050000000	0.9413320215
1.9100000000	0.7128003886
1.9150000000	0.5919769866
1.9200000000	1.4465504083
1.9250000000	3.8077493022
1.9300000000	5.6803279548
1.9350000000	5.5928465205
1.9400000000	4.3988537646
1.9450000000	3.2412573643
1.9500000000	2.4284977030
1.9550000000	1.8959560593
1.9600000000	1.5440381241
1.9650000000	1.3084928872
1.9700000000	1.1384504130
1.9750000000	1.0138028865
1.9800000000	0.9186391866
1.9850000000	0.8414153436
1.9900000000	0.7732978126
1.9950000000	0.7065769752
2.0000000000	0.6401290268
2.0050000000	0.5976760442
2.0100000000	0.6219974756
2.0150000000	0.6889989869
2.0200000000	0.7303100732
2.0250000000	0.7412810027
2.0300000000	0.7437468953
2.0350000000	0.7482355689
2.0400000000	0.7586581168
2.0450000000	0.7760110539
2.0500000000	0.8009403610
2.0550000000	0.8340325049
2.0600000000	0.8752878974
2.0650000000	0.9222092581
2.0700000000	0.9686034238
2.0750000000	1.0098296803
2.0800000000	1.0499845881
2.0850000000	1.0975391597
2.0900000000	1.1581723890
2.0950000000	1.2342766654
2.1000000000	1.3284268330
2.1050000000	1.4397711585
2.1100000000	1.5761350738
2.1150000000	1.7432392774
2.1200000000	1.9491061999
2.1250000000	2.2049884089
2.1300000000	2.5267474370
2.1350000000	2.9370285883
2.1400000000	3.4685309595
2.1450000000	4.1690608287
2.1500000000	5.1082737239
2.1550000000	6.3847513084
2.1600000000	8.1246626747
2.1650000000	10.4348576709
2.1700000000	13.2725919982
2.1750000000	16.0938898612
2.1800000000	17.8370841694
2.1850000000	17.9276276494
2.1900000000	17.1349797201
2.1950000000	16.5181421877
2.2000000000	16.2445830791
2.2050000000	15.4848435006
2.2100000000	13.8719259149
2.2150000000	11.8888663969
2.2200000000	10.1086646671
2.2250000000	8.6373809243
2.2300000000	7.3418068805
2.2350000000	6.1703885625
2.2400000000	5.1641762602
2.2450000000	4.3590733702
2.2500000000	3.7418964254
2.2550000000	3.2782742362
2.2600000000	2.9311499845
2.2650000000	2.6633873938
2.2700000000	2.4348390153
2.2750000000	2.2059481115
2.2800000000	1.9595072234
2.2850000000	1.7249894161
2.2900000000	1.5629154632
2.2950000000	1.5075467894
2.3000000000	1.5273212217
2.3050000000	1.5575254074
2.3100000000	1.5600573986
2.3150000000	1.5352258936
2.3200000000	1.4995243251
2.3250000000	1.4699885902
2.3300000000	1.4553352777
2.3350000000	1.4570610422
2.3400000000	1.4702816266
2.3450000000	1.4839436597
2.3500000000	1.4841289175
2.3550000000	1.4619576677
2.3600000000	1.4199429196
2.3650000000	1.3690659548
2.3700000000	1.3206460017
2.3750000000	1.2814435960
2.3800000000	1.2536551015
2.3850000000	1.2366598134
2.3900000000	1.2290417770
2.3950000000	1.2291606114
2.4000000000	1.2374629245
2.4050000000	1.2566829617
2.4100000000	1.2877368348
2.4150000000	1.3318929001
2.4200000000	1.3899133922
2.4250000000	1.4631329434
2.4300000000	1.5534982504
2.4350000000	1.6636207500
2.4400000000	1.7968702874
2.4450000000	1.9575495996
2.4500000000	2.1510872032
2.4550000000	2.3843062410
2.4600000000	2.6655897964
2.4650000000	3.0049958656
2.4700000000	3.4140598827
2.4750000000	3.9043366365
2.4800000000	4.4877593304
2.4850000000	5.1690515411
2.4900000000	5.9415537472
2.4950000000	6.7776213138
2.5000000000	7.6187917490
2.5050000000	8.4056743821
2.5100000000	8.9372794132
2.5150000000	9.0976799379
2.5200000000	8.8592442450
2.5250000000	8.2955738047
2.5300000000	7.5349026939
2.5350000000	6.7009131241
2.5400000000	5.8809884862
2.5450000000	5.1245032181
2.5500000000	4.4534143896
2.5550000000	3.8727209441
2.5600000000	3.3744389245
2.5650000000	2.9555106196
2.5700000000	2.6060723327
2.5750000000	2.3199492039
2.5800000000	2.0925288934
2.5850000000	1.9187978368
2.5900000000	1.7905104640
2.5950000000	1.6960744524
2.6000000000	1.6234197385
2.6050000000	1.5717852185
2.6100000000	1.5270770806
2.6150000000	1.4885866038
2.6200000000	1.4570741043
2.6250000000	1.4333820185
2.6300000000	1.4180729144
2.6350000000	1.4114338438
2.6400000000	1.4136315618
2.6450000000	1.4248211842
2.6500000000	1.4453063841
2.6550000000	1.4751722449
2.6600000000	1.5148770558
2.6650000000	1.5648838113
2.6700000000	1.6257612723
2.6750000000	1.6981986347
2.6800000000	1.7829597754
2.6850000000	1.8808260610
2.6900000000	1.9924374578
2.6950000000	2.1181650254
2.7000000000	2.2578812275
2.7050000000	2.4274762444
2.7100000000	2.6125641231
2.7150000000	2.8095399472
2.7200000000	3.0131608768
2.7250000000	3.2168409615
2.7300000000	3.4131494419
2.7350000000	3.5942392264
2.7400000000	3.7519501121
2.7450000000	3.8790393503
2.7500000000	3.9642716456
2.7550000000	4.0008458878
2.7600000000	3.9836014429
2.7650000000	3.9119386002
2.7700000000	3.7906595555
2.7750000000	3.6293853664
2.7800000000	3.4406563375
2.7850000000	3.2377759995
2.7900000000	3.0326809107
2.7950000000	2.8349430922
2.8000000000	2.6513309061
2.8050000000	2.4655588140
2.8100000000	2.3065628207
2.8150000000	2.1739164805
2.8200000000	2.0654845268
2.8250000000	1.9784527162
2.8300000000	1.9099861614
2.8350000000	1.8576586886
2.8400000000	1.8189163037
2.8450000000	1.7938478766
2.8500000000	1.7805973065
2.8550000000	1.7784573487
2.8600000000	1.7868998760
2.8650000000	1.8054490933
2.8700000000	1.8335727385
2.8750000000	1.8705954813
2.8800000000	1.9156319719
2.8850000000	1.9675307925
2.8900000000	2.0249078488
2.8950000000	2.0861978029
2.9000000000	2.1497545536
2.9050000000	2.2261277344
2.9100000000	2.2993918927
2.9150000000	2.3672427009
2.9200000000	2.4272618934
2.9250000000	2.4767056871
2.9300000000	2.5130476280
2.9350000000	2.5323584173
2.9400000000	2.5329422614
2.9450000000	2.5140768593
2.9500000000	2.4768506293
2.9550000000	2.4240927048
2.9600000000	2.3598865484
2.9650000000	2.2888590426
2.9700000000	2.2154843082
2.9750000000	2.1435859322
2.9800000000	2.0760936709
2.9850000000	2.0150064011
2.9900000000	1.9615263659
2.9950000000	1.9162178936
3.0000000000	1.8791996993
