# energy (eV)    P(omega), $W$ = 300 nm, $h$ = 300 nm, $s$ = 20 nm, $d/W = 5$, $E_{\rm e}$ = 200 keV
0.2000000000	0.2567404492
0.2050000000	0.2604291070
0.2100000000	0.2638964104
0.2150000000	0.2671492782
0.2200000000	0.2701936753
0.2250000000	0.2730345340
0.2300000000	0.2756754760
0.2350000000	0.2781187657
0.2400000000	0.2803650468
0.2450000000	0.2824127954
0.2500000000	0.2842586233
0.2550000000	0.2858960223
0.2600000000	0.2873154855
0.2650000000	0.2885037576
0.2700000000	0.2894426681
0.2750000000	0.2901084359
0.2800000000	0.2904702340
0.2850000000	0.2904886423
0.2900000000	0.2901130189
0.2950000000	0.2892795106
0.3000000000	0.2879058877
0.3050000000	0.2858882671
0.3100000000	0.2830932803
0.3150000000	0.2983462533
0.3200000000	0.3164638864
0.3250000000	0.3393666491
0.3300000000	0.3700143553
0.3350000000	0.4081753511
0.3400000000	0.4581529708
0.3450000000	0.5188246264
0.3500000000	0.5982269001
0.3550000000	0.7033433470
0.3600000000	0.8406961810
0.3650000000	1.0322710821
0.3700000000	1.2851242594
0.3750000000	1.6371205259
0.3800000000	2.1465732783
0.3850000000	2.9408854552
0.3900000000	4.1966758825
0.3950000000	6.3313520834
0.4000000000	10.4035395219
0.4050000000	19.5393834999
0.4100000000	44.4855871140
0.4150000000	142.8842775324
0.4200000000	90.9496691316
0.4250000000	-171.6846139016
0.4300000000	47.8429284818
0.4350000000	29.8520056366
0.4400000000	18.2761888073
0.4450000000	12.0406939043
0.4500000000	8.4487215150
0.4550000000	6.2369093635
0.4600000000	4.7955469666
0.4650000000	3.8128356890
0.4700000000	3.1179552564
0.4750000000	2.6152401789
0.4800000000	2.2424397022
0.4850000000	1.9619142009
0.4900000000	1.7478310357
0.4950000000	1.5828411371
0.5000000000	1.4550894006
0.5050000000	1.3558673812
0.5100000000	1.2795790364
0.5150000000	1.2221066231
0.5200000000	1.1791205845
0.5250000000	1.1486925768
0.5300000000	1.1287356965
0.5350000000	1.1177279367
0.5400000000	1.1145491186
0.5450000000	1.1182639898
0.5500000000	1.1285940333
0.5550000000	1.1450175646
0.5600000000	1.1672803781
0.5650000000	1.1952751508
0.5700000000	1.2289110819
0.5750000000	1.2684287910
0.5800000000	1.3142195782
0.5850000000	1.3665404602
0.5900000000	1.4258806083
0.5950000000	1.4928465462
0.6000000000	1.5682099370
0.6050000000	1.6530769325
0.6100000000	1.7485130952
0.6150000000	1.8559645446
0.6200000000	1.9773615156
0.6250000000	2.1145521903
0.6300000000	2.2702681523
0.6350000000	2.4479142563
0.6400000000	2.6510346664
0.6450000000	2.8847427043
0.6500000000	3.1557634416
0.6550000000	3.4710992527
0.6600000000	3.8415083430
0.6650000000	4.2808050912
0.6700000000	4.8052309456
0.6750000000	5.4395422820
0.6800000000	6.2170711205
0.6850000000	7.1814503767
0.6900000000	8.4003150826
0.6950000000	9.9682267005
0.7000000000	12.0354848631
0.7050000000	14.8318516928
0.7100000000	18.7467517226
0.7150000000	24.4734931077
0.7200000000	33.3030833829
0.7250000000	47.9650471150
0.7300000000	74.8874168185
0.7350000000	132.5155939808
0.7400000000	290.6255142021
0.7450000000	964.8478313955
0.7500000000	2991.3135605766
0.7550000000	753.0947183283
0.7600000000	249.5975279874
0.7650000000	119.6852275654
0.7700000000	69.6591905943
0.7750000000	45.5006684767
0.7800000000	32.0464863143
0.7850000000	23.8203282559
0.7900000000	18.4183601322
0.7950000000	14.6914048552
0.8000000000	12.0113177777
0.8050000000	10.0145762046
0.8100000000	8.4914299404
0.8150000000	7.2835332989
0.8200000000	6.3299303175
0.8250000000	5.5618849673
0.8300000000	4.9325254225
0.8350000000	4.4149622305
0.8400000000	3.9809919270
0.8450000000	3.6167558015
0.8500000000	3.3088455214
0.8550000000	3.0430578552
0.8600000000	2.8161596428
0.8650000000	2.6223954915
0.8700000000	2.4511374782
0.8750000000	2.3055340811
0.8800000000	2.1820979136
0.8850000000	2.0714189349
0.8900000000	1.9828705676
0.8950000000	1.9023092899
0.9000000000	1.8387182003
0.9050000000	1.7954082944
0.9100000000	1.7557427639
0.9150000000	1.7322764354
0.9200000000	1.7308822462
0.9250000000	1.7301480866
0.9300000000	1.7059536161
0.9350000000	1.6302024247
0.9400000000	1.2025910585
0.9450000000	-0.7459707336
0.9500000000	-11.0395814274
0.9550000000	-63.2877412186
0.9600000000	14.9484593292
0.9650000000	26.2735666492
0.9700000000	11.6611671024
0.9750000000	6.1245906778
0.9800000000	3.8392822545
0.9850000000	2.7701414307
0.9900000000	2.1538130765
0.9950000000	1.7799615048
1.0000000000	1.5412118984
1.0050000000	1.3899153998
1.0100000000	1.2724917037
1.0150000000	1.1866561492
1.0200000000	1.1288669878
1.0250000000	1.0802351351
1.0300000000	1.0432084208
1.0350000000	1.0150977054
1.0400000000	0.9971424413
1.0450000000	0.9820464838
1.0500000000	0.9718879131
1.0550000000	0.9660849023
1.0600000000	0.9659795441
1.0650000000	0.9678374606
1.0700000000	0.9731665273
1.0750000000	0.9819844184
1.0800000000	0.9952794872
1.0850000000	1.0121815282
1.0900000000	1.0373742337
1.0950000000	1.0673336228
1.1000000000	1.1031113061
1.1050000000	1.1442482802
1.1100000000	1.1920880719
1.1150000000	1.2476909830
1.1200000000	1.3123578716
1.1250000000	1.3875738924
1.1300000000	1.4755829627
1.1350000000	1.5790950035
1.1400000000	1.7012467237
1.1450000000	1.8475359173
1.1500000000	2.0241300193
1.1550000000	2.2398563581
1.1600000000	2.5071665649
1.1650000000	2.8422649757
1.1700000000	3.2752642991
1.1750000000	3.8463520164
1.1800000000	4.6218698884
1.1850000000	5.7108024233
1.1900000000	7.3188537404
1.1950000000	9.8402905598
1.2000000000	14.1135956384
1.2050000000	22.1848741323
1.2100000000	39.9359061972
1.2150000000	87.9228349885
1.2200000000	215.6393616612
1.2250000000	193.9291329772
1.2300000000	77.5862063486
1.2350000000	36.5804628821
1.2400000000	21.0564290615
1.2450000000	13.9420372307
1.2500000000	10.2043041452
1.2550000000	8.0645243598
1.2600000000	6.7821836052
1.2650000000	6.0016173569
1.2700000000	5.5656640659
1.2750000000	5.3729282853
1.2800000000	5.3775555642
1.2850000000	5.5627266379
1.2900000000	5.9334692685
1.2950000000	6.5109047199
1.3000000000	7.3614067042
1.3050000000	8.5713768188
1.3100000000	10.2971003182
1.3150000000	12.8078442585
1.3200000000	16.5857016056
1.3250000000	22.5513094122
1.3300000000	32.7140938415
1.3350000000	51.7396240277
1.3400000000	92.3997737175
1.3450000000	193.3615366878
1.3500000000	410.7671360515
1.3550000000	383.3477046649
1.3600000000	176.8471814089
1.3650000000	86.9042722117
1.3700000000	49.8384887902
1.3750000000	32.0476291579
1.3800000000	22.3467285838
1.3850000000	16.5039755839
1.3900000000	12.7402293315
1.3950000000	10.1740050931
1.4000000000	8.3516847044
1.4050000000	7.0172716423
1.4100000000	6.0172521548
1.4150000000	5.2626474866
1.4200000000	4.6951481710
1.4250000000	4.3149678055
1.4300000000	4.1755193002
1.4350000000	4.2524611012
1.4400000000	3.2747806338
1.4450000000	0.2808725657
1.4500000000	-4.5804720224
1.4550000000	-1.2848829980
1.4600000000	5.5444193024
1.4650000000	3.0021141865
1.4700000000	-2.8331622846
1.4750000000	-12.4020190240
1.4800000000	-5.5196576880
1.4850000000	9.0725299442
1.4900000000	7.3541987840
1.4950000000	4.7601581835
1.5000000000	3.3445611734
1.5050000000	2.5823012055
1.5100000000	2.1478292285
1.5150000000	1.8839660891
1.5200000000	1.7135064438
1.5250000000	1.6075852993
1.5300000000	1.5266640447
1.5350000000	1.4708728880
1.5400000000	1.4341066027
1.5450000000	1.4130879985
1.5500000000	1.4057002704
1.5550000000	1.4119926057
1.5600000000	1.4357249739
1.5650000000	1.4749533900
1.5700000000	1.5385004004
1.5750000000	1.6371192144
1.5800000000	1.7910023173
1.5850000000	2.0394563941
1.5900000000	2.4652953793
1.5950000000	3.2517812345
1.6000000000	4.7860177584
1.6050000000	7.3228123572
1.6100000000	8.4977295820
1.6150000000	6.2954475014
1.6200000000	4.2294651944
1.6250000000	3.1389686104
1.6300000000	2.5914976742
1.6350000000	2.3097163263
1.6400000000	2.1669786163
1.6450000000	2.1044234650
1.6500000000	2.0925760543
1.6550000000	2.1176320340
1.6600000000	2.1713535247
1.6650000000	2.2499818030
1.6700000000	2.3520918360
1.6750000000	2.4776982573
1.6800000000	2.6279286930
1.6850000000	2.8045298199
1.6900000000	3.0090485595
1.6950000000	3.2385960793
1.7000000000	3.4893501600
1.7050000000	3.7464470106
1.7100000000	4.0398920676
1.7150000000	4.7681638482
1.7200000000	6.0453755894
1.7250000000	7.2160887085
1.7300000000	8.4728714208
1.7350000000	9.8537690674
1.7400000000	11.2085525036
1.7450000000	12.9486073314
1.7500000000	15.5800819440
1.7550000000	19.4968288000
1.7600000000	25.3570460788
1.7650000000	34.3906387934
1.7700000000	48.9421743449
1.7750000000	73.4577180458
1.7800000000	115.2316885991
1.7850000000	176.8384504396
1.7900000000	219.7625576848
1.7950000000	187.1318032784
1.8000000000	124.5412078158
1.8050000000	78.6504291863
1.8100000000	51.8559441180
1.8150000000	36.1506466422
1.8200000000	26.4853892748
1.8250000000	20.2193672210
1.8300000000	15.9649476138
1.8350000000	12.9619917040
1.8400000000	10.7741856601
1.8450000000	9.1368523787
1.8500000000	7.8831861633
1.8550000000	6.9088118671
1.8600000000	6.1409167610
1.8650000000	5.5300141984
1.8700000000	5.0409059877
1.8750000000	4.6477471050
1.8800000000	4.3300325647
1.8850000000	4.0696369402
1.8900000000	3.8456689298
1.8950000000	3.6269518529
1.9000000000	3.3596532960
1.9050000000	2.8538486279
1.9100000000	2.1575847143
1.9150000000	1.7873157404
1.9200000000	4.3781285650
1.9250000000	11.5437402630
1.9300000000	17.2266557330
1.9350000000	16.9624453588
1.9400000000	13.3419296797
1.9450000000	9.8316388284
1.9500000000	7.3669716609
1.9550000000	5.7520185021
1.9600000000	4.6847910011
1.9650000000	3.9704841551
1.9700000000	3.4547929256
1.9750000000	3.0767718749
1.9800000000	2.7881716226
1.9850000000	2.5539870864
1.9900000000	2.3474337663
1.9950000000	2.1451371473
2.0000000000	1.9436879978
2.0050000000	1.8150041909
2.0100000000	1.8887532659
2.0150000000	2.0918938449
2.0200000000	2.2171714985
2.0250000000	2.2504940554
2.0300000000	2.2580570411
2.0350000000	2.2717734624
2.0400000000	2.3035064765
2.0450000000	2.3562840063
2.0500000000	2.4320736140
2.0550000000	2.5326628272
2.0600000000	2.6580537332
2.0650000000	2.8006466713
2.0700000000	2.9415939684
2.0750000000	3.0667688164
2.0800000000	3.1886301037
2.0850000000	3.3329478246
2.0900000000	3.5169931758
2.0950000000	3.7480360085
2.1000000000	4.0338915136
2.1050000000	4.3719684635
2.1100000000	4.7860264156
2.1150000000	5.2934336672
2.1200000000	5.9185484597
2.1250000000	6.6955381475
2.1300000000	7.6725646352
2.1350000000	8.9183898934
2.1400000000	10.5323023696
2.1450000000	12.6594637096
2.1500000000	15.5113786295
2.1550000000	19.3873836539
2.1600000000	24.6705833947
2.1650000000	31.6854194399
2.1700000000	40.3021324736
2.1750000000	48.8690479679
2.1800000000	54.1626491580
2.1850000000	54.4385370525
2.1900000000	52.0331442207
2.1950000000	50.1618422024
2.2000000000	49.3325264160
2.2050000000	47.0253405932
2.2100000000	42.1255280710
2.2150000000	36.1006352962
2.2200000000	30.6917419862
2.2250000000	26.2218270354
2.2300000000	22.2868838053
2.2350000000	18.7300885269
2.2400000000	15.6754083762
2.2450000000	13.2313694144
2.2500000000	11.3577348329
2.2550000000	9.9501030470
2.2600000000	8.8959802090
2.2650000000	8.0826735472
2.2700000000	7.3884043870
2.2750000000	6.6932361126
2.2800000000	5.9450562105
2.2850000000	5.2333479342
2.2900000000	4.7417376219
2.2950000000	4.5741088311
2.3000000000	4.6345505797
2.3050000000	4.7265707073
2.3100000000	4.7344584683
2.3150000000	4.6591614942
2.3200000000	4.5507663461
2.3250000000	4.4610061524
2.3300000000	4.4163545526
2.3350000000	4.4213716521
2.3400000000	4.4612637749
2.3450000000	4.5025350948
2.3500000000	4.5030060958
2.3550000000	4.4357664692
2.3600000000	4.3084317346
2.3650000000	4.1542787287
2.3700000000	4.0076081660
2.3750000000	3.8889035589
2.3800000000	3.8048125851
2.3850000000	3.7534422340
2.3900000000	3.7304904160
2.3950000000	3.7309764648
2.4000000000	3.7562613611
2.4050000000	3.8146568070
2.4100000000	3.9089507900
2.4150000000	4.0430040898
2.4200000000	4.2191399109
2.4250000000	4.4414135373
2.4300000000	4.7157348792
2.4350000000	5.0500310655
2.4400000000	5.4545318212
2.4450000000	5.9422973714
2.4500000000	6.5298070948
2.4550000000	7.2377728133
2.4600000000	8.0916426266
2.4650000000	9.1219489843
2.4700000000	10.3637092553
2.4750000000	11.8520009270
2.4800000000	13.6230516158
2.4850000000	15.6912026349
2.4900000000	18.0362378848
2.4950000000	20.5742283099
2.5000000000	23.1276732900
2.5050000000	25.5162248241
2.5100000000	27.1296956613
2.5150000000	27.6161858384
2.5200000000	26.8919165984
2.5250000000	25.1804594919
2.5300000000	22.8711794716
2.5350000000	20.3395258757
2.5400000000	17.8506911101
2.5450000000	15.5544768188
2.5500000000	13.5174776075
2.5550000000	11.7548437422
2.5600000000	10.2423366383
2.5650000000	8.9706889017
2.5700000000	7.9099716484
2.5750000000	7.0414501571
2.5800000000	6.3511303770
2.5850000000	5.8237955592
2.5900000000	5.4344140990
2.5950000000	5.1477908343
2.6000000000	4.9272795923
2.6050000000	4.7705626558
2.6100000000	4.6348553807
2.6150000000	4.5180077901
2.6200000000	4.4223296423
2.6250000000	4.3503797750
2.6300000000	4.3038661251
2.6350000000	4.2836606291
2.6400000000	4.2902687979
2.6450000000	4.3241621083
2.6500000000	4.3862625447
2.6550000000	4.4768284865
2.6600000000	4.5972518338
2.6650000000	4.7489386525
2.6700000000	4.9336155971
2.6750000000	5.1533748758
2.6800000000	5.4105338122
2.6850000000	5.7074631333
2.6900000000	6.0461044120
2.6950000000	6.4275851247
2.7000000000	6.8515206083
2.7050000000	7.3661304240
2.7100000000	7.9277777233
2.7150000000	8.5255371683
2.7200000000	9.1435151127
2.7250000000	9.7617393149
2.7300000000	10.3576663370
2.7350000000	10.9074768822
2.7400000000	11.3863887567
2.7450000000	11.7723931369
2.7500000000	12.0313573165
2.7550000000	12.1426099011
2.7600000000	12.0904664702
2.7650000000	11.8730956190
2.7700000000	11.5050721642
2.7750000000	11.0156042545
2.7800000000	10.4427642008
2.7850000000	9.8269428007
2.7900000000	9.2043797235
2.7950000000	8.6041362499
2.8000000000	8.0467614354
2.8050000000	7.4828202752
2.8100000000	7.0001508693
2.8150000000	6.5974595733
2.8200000000	6.2682654448
2.8250000000	6.0040258555
2.8300000000	5.7961351932
2.8350000000	5.6372293274
2.8400000000	5.5195552983
2.8450000000	5.4433834671
2.8500000000	5.4030792180
2.8550000000	5.3964956782
2.8600000000	5.4220294778
2.8650000000	5.4782362181
2.8700000000	5.5635013340
2.8750000000	5.6757765969
2.8800000000	5.8123777278
2.8850000000	5.9698137874
2.8900000000	6.1438887334
2.8950000000	6.3298565643
2.9000000000	6.5227255757
2.9050000000	6.7545289114
2.9100000000	6.9769299520
2.9150000000	7.1829299614
2.9200000000	7.3651816183
2.9250000000	7.5153470599
2.9300000000	7.6257494050
2.9350000000	7.6844538170
2.9400000000	7.6863072381
2.9450000000	7.6291136346
2.9500000000	7.5161740487
2.9550000000	7.3560751408
2.9600000000	7.1612119534
2.9650000000	6.9456296377
2.9700000000	6.7229105770
2.9750000000	6.5046626776
2.9800000000	6.2997801911
2.9850000000	6.1143322474
2.9900000000	5.9519690872
2.9950000000	5.8144044907
3.0000000000	5.7019995792
