# energy (eV)    P(omega), $W$ = 400 nm, $h$ = 300 nm, $s$ = 20 nm, $d/W = 5$, $E_{\rm e}$ = 200 keV
0.2000000000	0.0524527354
0.2050000000	0.0529298706
0.2100000000	0.0532657885
0.2150000000	0.0534548319
0.2200000000	0.0534890897
0.2250000000	0.0533578146
0.2300000000	0.0530468647
0.2350000000	0.0525378267
0.2400000000	0.0518070199
0.2450000000	0.0508239251
0.2500000000	0.0495495228
0.2550000000	0.0479336065
0.2600000000	0.0459114774
0.2650000000	0.0480301180
0.2700000000	0.0534118676
0.2750000000	0.0611129823
0.2800000000	0.0718428090
0.2850000000	0.0876613702
0.2900000000	0.1072616606
0.2950000000	0.1353603035
0.3000000000	0.1731328602
0.3050000000	0.2310291246
0.3100000000	0.3116767219
0.3150000000	0.4677261532
0.3200000000	0.7114447448
0.3250000000	0.8783041349
0.3300000000	1.1091243423
0.3350000000	1.4363448455
0.3400000000	1.9500146905
0.3450000000	2.8313069133
0.3500000000	4.5886792108
0.3550000000	8.6567751531
0.3600000000	21.2750681404
0.3650000000	0.0961541847
0.3700000000	9.8602119184
0.3750000000	12.9657866709
0.3800000000	6.0416014785
0.3850000000	3.4032840420
0.3900000000	2.1829023289
0.3950000000	1.5382434026
0.4000000000	1.1649864692
0.4050000000	0.9216492115
0.4100000000	0.7632312866
0.4150000000	0.6587458521
0.4200000000	0.5927088240
0.4250000000	0.5408450910
0.4300000000	0.4795610298
0.4350000000	0.4310583072
0.4400000000	0.3926980553
0.4450000000	0.3621970972
0.4500000000	0.3381167090
0.4550000000	0.3190215834
0.4600000000	0.3041257494
0.4650000000	0.2925979137
0.4700000000	0.2838877468
0.4750000000	0.2776101997
0.4800000000	0.2734292614
0.4850000000	0.2710503055
0.4900000000	0.2702990965
0.4950000000	0.2710415850
0.5000000000	0.2731632313
0.5050000000	0.2766129795
0.5100000000	0.2813490037
0.5150000000	0.2873464437
0.5200000000	0.2946177247
0.5250000000	0.3031730346
0.5300000000	0.3131379754
0.5350000000	0.3245683786
0.5400000000	0.3375647886
0.5450000000	0.3522590614
0.5500000000	0.3688377518
0.5550000000	0.3875049220
0.5600000000	0.4085089494
0.5650000000	0.4321692227
0.5700000000	0.4589266447
0.5750000000	0.4891079926
0.5800000000	0.5233247087
0.5850000000	0.5624122246
0.5900000000	0.6069340421
0.5950000000	0.6580759292
0.6000000000	0.7174044376
0.6050000000	0.7860936529
0.6100000000	0.8668350323
0.6150000000	0.9618604741
0.6200000000	1.0750013309
0.6250000000	1.2117542994
0.6300000000	1.3777250465
0.6350000000	1.5834471500
0.6400000000	1.8405419073
0.6450000000	2.1700978673
0.6500000000	2.5990533864
0.6550000000	3.1730394142
0.6600000000	3.9691029019
0.6650000000	5.1089711267
0.6700000000	6.8350019139
0.6750000000	9.6101960299
0.6800000000	14.5158694276
0.6850000000	24.3594100737
0.6900000000	48.8200553513
0.6950000000	137.0449153786
0.7000000000	664.6781362631
0.7050000000	323.1490617656
0.7100000000	83.0101086802
0.7150000000	35.3005310374
0.7200000000	19.2780514364
0.7250000000	12.1100509960
0.7300000000	8.3058142947
0.7350000000	6.0569425106
0.7400000000	4.6168478426
0.7450000000	3.6393692464
0.7500000000	2.9469422884
0.7550000000	2.4382367223
0.7600000000	2.0548142054
0.7650000000	1.7574757390
0.7700000000	1.5227576486
0.7750000000	1.3343230669
0.7800000000	1.1811948567
0.7850000000	1.0551095351
0.7900000000	0.9494793777
0.7950000000	0.8612588299
0.8000000000	0.7862476155
0.8050000000	0.7219822599
0.8100000000	0.6672731743
0.8150000000	0.6193229843
0.8200000000	0.5775772345
0.8250000000	0.5425452153
0.8300000000	0.5118805909
0.8350000000	0.4852221377
0.8400000000	0.4639925328
0.8450000000	0.4454685366
0.8500000000	0.4297621009
0.8550000000	0.4198339164
0.8600000000	0.4118811545
0.8650000000	0.4061867340
0.8700000000	0.4081679476
0.8750000000	0.4088613338
0.8800000000	0.4066599570
0.8850000000	0.3889780602
0.8900000000	0.3018624900
0.8950000000	-0.1347156436
0.9000000000	-2.4757611301
0.9050000000	-16.2676202981
0.9100000000	3.0976751477
0.9150000000	7.3378004307
0.9200000000	3.0460618658
0.9250000000	1.5846503738
0.9300000000	0.9673097906
0.9350000000	0.6723651490
0.9400000000	0.5132553803
0.9450000000	0.4250619784
0.9500000000	0.3624307980
0.9550000000	0.3205064864
0.9600000000	0.2945784691
0.9650000000	0.2731853585
0.9700000000	0.2579206398
0.9750000000	0.2475183244
0.9800000000	0.2411866432
0.9850000000	0.2400286913
0.9900000000	0.2423434574
0.9950000000	0.2516780083
1.0000000000	0.2739898165
1.0050000000	0.3260771605
1.0100000000	0.4625814380
1.0150000000	0.9304192488
1.0200000000	1.7869016100
1.0250000000	0.8122875856
1.0300000000	0.4159807688
1.0350000000	0.2978629826
1.0400000000	0.2514133369
1.0450000000	0.2296216045
1.0500000000	0.2186965732
1.0550000000	0.2129634016
1.0600000000	0.2103878120
1.0650000000	0.2099021748
1.0700000000	0.2109145802
1.0750000000	0.2132165021
1.0800000000	0.2163947515
1.0850000000	0.2207211242
1.0900000000	0.2269737674
1.0950000000	0.2342636217
1.1000000000	0.2426620853
1.1050000000	0.2521842457
1.1100000000	0.2629807799
1.1150000000	0.2751953307
1.1200000000	0.2889983872
1.1250000000	0.3045310397
1.1300000000	0.3221956772
1.1350000000	0.3422635483
1.1400000000	0.3651408419
1.1450000000	0.3913440850
1.1500000000	0.4212752398
1.1550000000	0.4561858384
1.1600000000	0.4968672925
1.1650000000	0.5443561852
1.1700000000	0.5988673480
1.1750000000	0.6541508755
1.1800000000	0.7064662811
1.1850000000	0.9818891954
1.1900000000	1.2185325349
1.1950000000	1.6704317225
1.2000000000	2.2750209580
1.2050000000	1.9955680725
1.2100000000	1.9097786647
1.2150000000	2.1261238406
1.2200000000	2.5428591747
1.2250000000	3.1828351436
1.2300000000	4.1559650748
1.2350000000	5.6953553499
1.2400000000	8.2884586075
1.2450000000	13.1712542692
1.2500000000	23.7460110306
1.2550000000	51.4026419265
1.2600000000	124.1587548948
1.2650000000	125.7676122926
1.2700000000	52.3167417577
1.2750000000	24.1494483529
1.2800000000	13.3743917002
1.2850000000	8.4106103623
1.2900000000	5.7647034756
1.2950000000	4.2014000586
1.3000000000	3.2056449439
1.3050000000	2.5352061854
1.3100000000	2.0624387668
1.3150000000	1.7208407457
1.3200000000	1.4676135025
1.3250000000	1.2770505308
1.3300000000	1.1335377708
1.3350000000	1.0274941992
1.3400000000	0.9539455039
1.3450000000	0.9115272997
1.3500000000	0.9064263719
1.3550000000	0.9527276750
1.3600000000	1.0862699956
1.3650000000	1.3982535501
1.3700000000	2.1433172522
1.3750000000	3.9971001860
1.3800000000	6.5289667843
1.3850000000	4.5609837173
1.3900000000	2.3243147693
1.3950000000	1.3486508524
1.4000000000	0.8832333543
1.4050000000	0.5971852976
1.4100000000	0.3382841056
1.4150000000	-0.0479493954
1.4200000000	-0.9126708689
1.4250000000	-3.2039557954
1.4300000000	-4.3079230711
1.4350000000	1.9736288873
1.4400000000	2.5245752902
1.4450000000	1.5135909250
1.4500000000	0.9418164424
1.4550000000	0.6492347876
1.4600000000	0.4794216479
1.4650000000	0.3452182880
1.4700000000	0.2016698380
1.4750000000	0.2369915077
1.4800000000	0.3474359698
1.4850000000	0.3154834818
1.4900000000	0.2793536254
1.4950000000	0.2559845285
1.5000000000	0.2406329208
1.5050000000	0.2304824641
1.5100000000	0.2235773076
1.5150000000	0.2198096708
1.5200000000	0.2170324210
1.5250000000	0.2160306249
1.5300000000	0.2168966061
1.5350000000	0.2200266572
1.5400000000	0.2264094343
1.5450000000	0.2382405805
1.5500000000	0.2604550783
1.5550000000	0.3028897543
1.5600000000	0.3665872878
1.5650000000	0.3767953555
1.5700000000	0.3193137883
1.5750000000	0.2789773455
1.5800000000	0.2615763013
1.5850000000	0.2561004952
1.5900000000	0.2568092740
1.5950000000	0.2612096036
1.6000000000	0.2682153227
1.6050000000	0.2774524802
1.6100000000	0.2886418553
1.6150000000	0.3017418494
1.6200000000	0.3169611276
1.6250000000	0.3344796978
1.6300000000	0.3545934220
1.6350000000	0.3776837305
1.6400000000	0.4042383721
1.6450000000	0.4348802999
1.6500000000	0.4703914671
1.6550000000	0.5117628309
1.6600000000	0.5602782781
1.6650000000	0.6175950333
1.6700000000	0.6853244287
1.6750000000	0.7674207232
1.6800000000	0.8673791408
1.6850000000	0.9906983156
1.6900000000	1.1451852873
1.6950000000	1.3422965809
1.7000000000	1.5992786750
1.7050000000	1.9537922510
1.7100000000	2.4484015489
1.7150000000	3.1673262952
1.7200000000	4.2629913558
1.7250000000	6.0012197562
1.7300000000	8.6724020899
1.7350000000	12.1004073090
1.7400000000	16.4339692490
1.7450000000	24.0386450220
1.7500000000	33.9102034599
1.7550000000	34.4556973585
1.7600000000	24.1728667377
1.7650000000	15.0574391201
1.7700000000	9.6524088257
1.7750000000	6.5789098034
1.7800000000	4.7626036222
1.7850000000	3.6453509265
1.7900000000	2.9524855551
1.7950000000	2.5560378969
1.8000000000	2.3960236718
1.8050000000	2.3453655886
1.8100000000	2.0867018521
1.8150000000	1.6168939662
1.8200000000	1.2415494853
1.8250000000	1.0480225697
1.8300000000	0.9124112141
1.8350000000	0.7918907420
1.8400000000	0.6936154001
1.8450000000	0.6156277500
1.8500000000	0.5527778278
1.8550000000	0.5008565586
1.8600000000	0.4530959269
1.8650000000	0.4127183492
1.8700000000	0.3719102215
1.8750000000	0.3130821568
1.8800000000	0.1789874425
1.8850000000	-0.1149041480
1.8900000000	-0.5102052412
1.8950000000	-0.5780301205
1.9000000000	0.0618540969
1.9050000000	0.6584534936
1.9100000000	0.7280690483
1.9150000000	0.6150834497
1.9200000000	0.5043471644
1.9250000000	0.4257683990
1.9300000000	0.3781809306
1.9350000000	0.3418500747
1.9400000000	0.3176820783
1.9450000000	0.3016843931
1.9500000000	0.2905024294
1.9550000000	0.2811451367
1.9600000000	0.2730649859
1.9650000000	0.2673270736
1.9700000000	0.2642627110
1.9750000000	0.2636680405
1.9800000000	0.2653777637
1.9850000000	0.2694414775
1.9900000000	0.2761259563
1.9950000000	0.2857649480
2.0000000000	0.2981077704
2.0050000000	0.3121099455
2.0100000000	0.3221538705
2.0150000000	0.3288524672
2.0200000000	0.3369296909
2.0250000000	0.3493976904
2.0300000000	0.3671428580
2.0350000000	0.3906088893
2.0400000000	0.4206014694
2.0450000000	0.4585185838
2.0500000000	0.5063680277
2.0550000000	0.5663810814
2.0600000000	0.6396399498
2.0650000000	0.7249928761
2.0700000000	0.8237219895
2.0750000000	0.9468407902
2.0800000000	1.1125324418
2.0850000000	1.3385256868
2.0900000000	1.6351310782
2.0950000000	1.9810388355
2.1000000000	2.2893394082
2.1050000000	2.4387308692
2.1100000000	2.3677873885
2.1150000000	2.2045359936
2.1200000000	2.0891485162
2.1250000000	2.0842261530
2.1300000000	2.2083414560
2.1350000000	2.4762148346
2.1400000000	2.9173305812
2.1450000000	3.5838509656
2.1500000000	4.5488204086
2.1550000000	5.8671066836
2.1600000000	7.4323986819
2.1650000000	8.7479988349
2.1700000000	9.0588552747
2.1750000000	8.1091388670
2.1800000000	6.5467200457
2.1850000000	5.0511009828
2.1900000000	3.8817484579
2.1950000000	3.0369263711
2.2000000000	2.4442140157
2.2050000000	2.0352919886
2.2100000000	1.7514169329
2.2150000000	1.5336822584
2.2200000000	1.3385781644
2.2250000000	1.1530025911
2.2300000000	0.9849767416
2.2350000000	0.8407033171
2.2400000000	0.7185088391
2.2450000000	0.6129985723
2.2500000000	0.5188027594
2.2550000000	0.4329182619
2.2600000000	0.3470322232
2.2650000000	0.2845523981
2.2700000000	0.2506135170
2.2750000000	0.2591577289
2.2800000000	0.3084521366
2.2850000000	0.3712228394
2.2900000000	0.4171697840
2.2950000000	0.4375342957
2.3000000000	0.4398638864
2.3050000000	0.4328375625
2.3100000000	0.4235817899
2.3150000000	0.4153803431
2.3200000000	0.4095315045
2.3250000000	0.4067484179
2.3300000000	0.4076081817
2.3350000000	0.4125888348
2.3400000000	0.4220986995
2.3450000000	0.4365508761
2.3500000000	0.4563829879
2.3550000000	0.4822510835
2.3600000000	0.5137303933
2.3650000000	0.5510167326
2.3700000000	0.5940063790
2.3750000000	0.6431659847
2.3800000000	0.7002700992
2.3850000000	0.7674243984
2.3900000000	0.8450945193
2.3950000000	0.9298219527
2.4000000000	1.0127156795
2.4050000000	1.0841517861
2.4100000000	1.1237470921
2.4150000000	1.1275318748
2.4200000000	1.1051864332
2.4250000000	1.0732182735
2.4300000000	1.0462781652
2.4350000000	1.0332099665
2.4400000000	1.0375427669
2.4450000000	1.0598467552
2.4500000000	1.1001931868
2.4550000000	1.1594810916
2.4600000000	1.2415114691
2.4650000000	1.3501808100
2.4700000000	1.4898281320
2.4750000000	1.6631634860
2.4800000000	1.8688192829
2.4850000000	2.0980207165
2.4900000000	2.3306955801
2.4950000000	2.5335350978
2.5000000000	2.6648582418
2.5050000000	2.6817410005
2.5100000000	2.5670441607
2.5150000000	2.3520743765
2.5200000000	2.0868541555
2.5250000000	1.8153296285
2.5300000000	1.5642886461
2.5350000000	1.3449865662
2.5400000000	1.1590804160
2.5450000000	1.0038119556
2.5500000000	0.8751840990
2.5550000000	0.7696055012
2.5600000000	0.6813238560
2.5650000000	0.6152558023
2.5700000000	0.5677841275
2.5750000000	0.5372158436
2.5800000000	0.5201579305
2.5850000000	0.5119698562
2.5900000000	0.5082965784
2.5950000000	0.5064262458
2.6000000000	0.5054844685
2.6050000000	0.5095153778
2.6100000000	0.5159017847
2.6150000000	0.5256215325
2.6200000000	0.5391941415
2.6250000000	0.5566516205
2.6300000000	0.5775012021
2.6350000000	0.6006970382
2.6400000000	0.6246411313
2.6450000000	0.6473070989
2.6500000000	0.6665488947
2.6550000000	0.6806069904
2.6600000000	0.6886640706
2.6650000000	0.6912002110
2.6700000000	0.6898913092
2.6750000000	0.6871871218
2.6800000000	0.6854614263
2.6850000000	0.6869320299
2.6900000000	0.6931434231
2.6950000000	0.7050447776
2.7000000000	0.7230911892
2.7050000000	0.7501048324
2.7100000000	0.7848705787
2.7150000000	0.8268263541
2.7200000000	0.8748103031
2.7250000000	0.9268501560
2.7300000000	0.9799684197
2.7350000000	1.0301508165
2.7400000000	1.0726224358
2.7450000000	1.1025351045
2.7500000000	1.1159811411
2.7550000000	1.1109917718
2.7600000000	1.0880700226
2.7650000000	1.0500090917
2.7700000000	1.0010832025
2.7750000000	0.9460278949
2.7800000000	0.8891854949
2.7850000000	0.8340297250
2.7900000000	0.7825744676
2.7950000000	0.7370234759
2.8000000000	0.6978326470
2.8050000000	0.6615347103
2.8100000000	0.6329163390
2.8150000000	0.6108508336
2.8200000000	0.5941142153
2.8250000000	0.5815833177
2.8300000000	0.5723035461
2.8350000000	0.5654830983
2.8400000000	0.5604529193
2.8450000000	0.5566449738
2.8500000000	0.5536031340
2.8550000000	0.5510245966
2.8600000000	0.5488068533
2.8650000000	0.5470628321
2.8700000000	0.5460922129
2.8750000000	0.5463071572
2.8800000000	0.5481410490
2.8850000000	0.5519661668
2.8900000000	0.5580363706
2.8950000000	0.5664525214
2.9000000000	0.5771454822
2.9050000000	0.5931400829
2.9100000000	0.6106801311
2.9150000000	0.6285945360
2.9200000000	0.6454032903
2.9250000000	0.6595165071
2.9300000000	0.6694580203
2.9350000000	0.6741241148
2.9400000000	0.6729971143
2.9450000000	0.6662442326
2.9500000000	0.6546550502
2.9550000000	0.6394402703
2.9600000000	0.6219765473
2.9650000000	0.6035678823
2.9700000000	0.5852866710
2.9750000000	0.5679041696
2.9800000000	0.5518952103
2.9850000000	0.5374894764
2.9900000000	0.5247403811
2.9950000000	0.5135920231
3.0000000000	0.5039338282
