# energy (eV)    P(omega), $W$ = 300 nm, $h$ = 300 nm, $s$ = 20 nm, $d/W = 5$, $E_{\rm e}$ = 200 keV
0.2000000000	0.0518660106
0.2050000000	0.0526558255
0.2100000000	0.0533897926
0.2150000000	0.0540697770
0.2200000000	0.0546974575
0.2250000000	0.0552742203
0.2300000000	0.0558011723
0.2350000000	0.0562790843
0.2400000000	0.0567083487
0.2450000000	0.0570889106
0.2500000000	0.0574202145
0.2550000000	0.0577010649
0.2600000000	0.0579296018
0.2650000000	0.0581030600
0.2700000000	0.0582176818
0.2750000000	0.0582684347
0.2800000000	0.0582487562
0.2850000000	0.0581501761
0.2900000000	0.0579618611
0.2950000000	0.0576700073
0.3000000000	0.0572569971
0.3050000000	0.0567003786
0.3100000000	0.0559713951
0.3150000000	0.0592677445
0.3200000000	0.0631823903
0.3250000000	0.0681370782
0.3300000000	0.0747786493
0.3350000000	0.0830432524
0.3400000000	0.0938654919
0.3450000000	0.1069801507
0.3500000000	0.1241291922
0.3550000000	0.1468086776
0.3600000000	0.1763982486
0.3650000000	0.2176279843
0.3700000000	0.2719373218
0.3750000000	0.3474233910
0.3800000000	0.4565149300
0.3850000000	0.6263893109
0.3900000000	0.8945395664
0.3950000000	1.3496698903
0.4000000000	2.2166901160
0.4050000000	4.1591554095
0.4100000000	9.4553598824
0.4150000000	30.3151211589
0.4200000000	19.3279725060
0.4250000000	-36.2795671506
0.4300000000	10.0686276446
0.4350000000	6.2661487078
0.4400000000	3.8247982205
0.4450000000	2.5116365826
0.4500000000	1.7562077582
0.4550000000	1.2916211851
0.4600000000	0.9892199933
0.4650000000	0.7832638517
0.4700000000	0.6377657109
0.4750000000	0.5325739705
0.4800000000	0.4545987407
0.4850000000	0.3959240933
0.4900000000	0.3511243279
0.4950000000	0.3165587467
0.5000000000	0.2897383779
0.5050000000	0.2688390044
0.5100000000	0.2526839741
0.5150000000	0.2404061570
0.5200000000	0.2311049384
0.5250000000	0.2243695635
0.5300000000	0.2197633386
0.5350000000	0.2169655037
0.5400000000	0.2157392592
0.5450000000	0.2158868833
0.5500000000	0.2173418798
0.5550000000	0.2199915487
0.5600000000	0.2237758271
0.5650000000	0.2286660066
0.5700000000	0.2346343987
0.5750000000	0.2417217840
0.5800000000	0.2499941575
0.5850000000	0.2594937091
0.5900000000	0.2703051149
0.5950000000	0.2825368022
0.6000000000	0.2963263772
0.6050000000	0.3118768803
0.6100000000	0.3293794450
0.6150000000	0.3490973301
0.6200000000	0.3713819865
0.6250000000	0.3965699926
0.6300000000	0.4251598716
0.6350000000	0.4577727638
0.6400000000	0.4950541428
0.6450000000	0.5379372934
0.6500000000	0.5876483367
0.6550000000	0.6454629054
0.6600000000	0.7133433819
0.6650000000	0.7938050215
0.6700000000	0.8898043494
0.6750000000	1.0058522068
0.6800000000	1.1480117353
0.6850000000	1.3242225308
0.6900000000	1.5467809232
0.6950000000	1.8328804366
0.7000000000	2.2098282784
0.7050000000	2.7193591483
0.7100000000	3.4321739779
0.7150000000	4.4741109171
0.7200000000	6.0793763439
0.7250000000	8.7429545983
0.7300000000	13.6300201857
0.7350000000	24.0826048906
0.7400000000	52.7368759323
0.7450000000	174.8146285017
0.7500000000	541.1457424441
0.7550000000	136.0284208479
0.7600000000	45.0134295305
0.7650000000	21.5505892072
0.7700000000	12.5229794832
0.7750000000	8.1668154003
0.7800000000	5.7426929810
0.7850000000	4.2616499954
0.7900000000	3.2897995240
0.7950000000	2.6197912798
0.8000000000	2.1383261805
0.8050000000	1.7798752770
0.8100000000	1.5066362881
0.8150000000	1.2901295669
0.8200000000	1.1193124037
0.8250000000	0.9818169826
0.8300000000	0.8692259537
0.8350000000	0.7766783616
0.8400000000	0.6991192042
0.8450000000	0.6340519414
0.8500000000	0.5790582017
0.8550000000	0.5316149783
0.8600000000	0.4911161751
0.8650000000	0.4565185423
0.8700000000	0.4259573163
0.8750000000	0.3999485249
0.8800000000	0.3778623597
0.8850000000	0.3580628079
0.8900000000	0.3421413972
0.8950000000	0.3276588669
0.9000000000	0.3161377469
0.9050000000	0.3081226049
0.9100000000	0.3007720472
0.9150000000	0.2962125818
0.9200000000	0.2954229611
0.9250000000	0.2947830377
0.9300000000	0.2902591546
0.9350000000	0.2772230255
0.9400000000	0.2055947100
0.9450000000	-0.1190705638
0.9500000000	-1.8305734706
0.9550000000	-10.5048216127
0.9600000000	2.4775902426
0.9650000000	4.3486201088
0.9700000000	1.9278605116
0.9750000000	1.0119528656
0.9800000000	0.6343061828
0.9850000000	0.4577270548
0.9900000000	0.3560344268
0.9950000000	0.2943888700
1.0000000000	0.2550331478
1.0050000000	0.2300709537
1.0100000000	0.2107380376
1.0150000000	0.1966199816
1.0200000000	0.1871046792
1.0250000000	0.1791358499
1.0300000000	0.1730924458
1.0350000000	0.1685334608
1.0400000000	0.1656444056
1.0450000000	0.1632647896
1.0500000000	0.1617212570
1.0550000000	0.1609197673
1.0600000000	0.1610680011
1.0650000000	0.1615871497
1.0700000000	0.1627147877
1.0750000000	0.1644558648
1.0800000000	0.1669672208
1.0850000000	0.1701519604
1.0900000000	0.1748195966
1.0950000000	0.1803556605
1.1000000000	0.1869400691
1.1050000000	0.1945416396
1.1100000000	0.2033935116
1.1150000000	0.2136967816
1.1200000000	0.2256823804
1.1250000000	0.2396843740
1.1300000000	0.2561124683
1.1350000000	0.2754895487
1.1400000000	0.2984027109
1.1450000000	0.3259585577
1.1500000000	0.3593317763
1.1550000000	0.4002336418
1.1600000000	0.4510786362
1.1650000000	0.5149913140
1.1700000000	0.5978635386
1.1750000000	0.7074826892
1.1800000000	0.8567345570
1.1850000000	1.0668084903
1.1900000000	1.3775928212
1.1950000000	1.8657745954
1.2000000000	2.6941270139
1.2050000000	4.2597990759
1.2100000000	7.7039637637
1.2150000000	17.0110084598
1.2200000000	41.7543300381
1.2250000000	37.4778749459
1.2300000000	14.9156254589
1.2350000000	6.9688348382
1.2400000000	3.9582954824
1.2450000000	2.5744616161
1.2500000000	1.8425313784
1.2550000000	1.4179128500
1.2600000000	1.1569911619
1.2650000000	0.9906235615
1.2700000000	0.8875863589
1.2750000000	0.8275846328
1.2800000000	0.8006384412
1.2850000000	0.8019699509
1.2900000000	0.8303541071
1.2950000000	0.8870413182
1.3000000000	0.9796453042
1.3050000000	1.1177999583
1.3100000000	1.3200758702
1.3150000000	1.6187598152
1.3200000000	2.0721354091
1.3250000000	2.7911162029
1.3300000000	4.0194052506
1.3350000000	6.3212550082
1.3400000000	11.2413686826
1.3450000000	23.4528120102
1.3500000000	49.7196379417
1.3550000000	46.3393805657
1.3600000000	21.3614318817
1.3650000000	10.4945821763
1.3700000000	6.0190434661
1.3750000000	3.8716232551
1.3800000000	2.7008073525
1.3850000000	1.9954394516
1.3900000000	1.5406187966
1.3950000000	1.2301475939
1.4000000000	1.0089843836
1.4050000000	0.8461342448
1.4100000000	0.7226579447
1.4150000000	0.6269561961
1.4200000000	0.5503974838
1.4250000000	0.4890777971
1.4300000000	0.4394712958
1.4350000000	0.3890327628
1.4400000000	0.2293450291
1.4450000000	-0.1841970252
1.4500000000	-0.9407209936
1.4550000000	-0.3416526447
1.4600000000	0.8583292138
1.4650000000	0.5223158904
1.4700000000	-0.2228865197
1.4750000000	-1.3620762805
1.4800000000	-0.5937006213
1.4850000000	1.0692335817
1.4900000000	0.8650202576
1.4950000000	0.5636203576
1.5000000000	0.3986460856
1.5050000000	0.3090266606
1.5100000000	0.2576486737
1.5150000000	0.2260252395
1.5200000000	0.2052242545
1.5250000000	0.1919844495
1.5300000000	0.1814658768
1.5350000000	0.1737674896
1.5400000000	0.1681297416
1.5450000000	0.1640886747
1.5500000000	0.1613400514
1.5550000000	0.1597300887
1.5600000000	0.1595176045
1.5650000000	0.1601091084
1.5700000000	0.1620456720
1.5750000000	0.1656959554
1.5800000000	0.1718077881
1.5850000000	0.1818539941
1.5900000000	0.1989407778
1.5950000000	0.2298939201
1.6000000000	0.2889376426
1.6050000000	0.3845231802
1.6100000000	0.4269234709
1.6150000000	0.3447943843
1.6200000000	0.2705329368
1.6250000000	0.2337022699
1.6300000000	0.2175997664
1.6350000000	0.2118359118
1.6400000000	0.2117582935
1.6450000000	0.2152624855
1.6500000000	0.2213548090
1.6550000000	0.2296200069
1.6600000000	0.2398970616
1.6650000000	0.2522044380
1.6700000000	0.2666817877
1.6750000000	0.2835722416
1.6800000000	0.3032209881
1.6850000000	0.3260875658
1.6900000000	0.3527615878
1.6950000000	0.3838033588
1.7000000000	0.4203953391
1.7050000000	0.4646933999
1.7100000000	0.5192539098
1.7150000000	0.5967210556
1.7200000000	0.7040697171
1.7250000000	0.8341962194
1.7300000000	0.9976192969
1.7350000000	1.1722558354
1.7400000000	1.3264335936
1.7450000000	1.5181573719
1.7500000000	1.8156050706
1.7550000000	2.2646190562
1.7600000000	2.9398036369
1.7650000000	3.9820706354
1.7700000000	5.6609914603
1.7750000000	8.4878724958
1.7800000000	13.3001116323
1.7850000000	20.3856452354
1.7900000000	25.2985992525
1.7950000000	21.5080756655
1.8000000000	14.2879645160
1.8050000000	9.0039113892
1.8100000000	5.9217719488
1.8150000000	4.1163754461
1.8200000000	3.0056567875
1.8250000000	2.2855039060
1.8300000000	1.7962104439
1.8350000000	1.4503183045
1.8400000000	1.1976412037
1.8450000000	1.0076727219
1.8500000000	0.8611604727
1.8550000000	0.7460260682
1.8600000000	0.6537283972
1.8650000000	0.5783652169
1.8700000000	0.5155791718
1.8750000000	0.4619539245
1.8800000000	0.4144855037
1.8850000000	0.3701273947
1.8900000000	0.3250079797
1.8950000000	0.2732402792
1.9000000000	0.2049168524
1.9050000000	0.0886257953
1.9100000000	-0.0802368734
1.9150000000	-0.2620985926
1.9200000000	-0.1807680763
1.9250000000	0.3505744190
1.9300000000	0.7773692266
1.9350000000	0.8120052846
1.9400000000	0.6693523530
1.9450000000	0.5252152401
1.9500000000	0.4215769317
1.9550000000	0.3520429295
1.9600000000	0.3051292533
1.9650000000	0.2740699126
1.9700000000	0.2505495409
1.9750000000	0.2332875037
1.9800000000	0.2202856606
1.9850000000	0.2101324861
1.9900000000	0.2018221260
1.9950000000	0.1945397875
2.0000000000	0.1880889598
2.0050000000	0.1848019123
2.0100000000	0.1878171322
2.0150000000	0.1950264445
2.0200000000	0.2007010920
2.0250000000	0.2045698306
2.0300000000	0.2087002528
2.0350000000	0.2139843430
2.0400000000	0.2211027291
2.0450000000	0.2304984500
2.0500000000	0.2427040949
2.0550000000	0.2582597962
2.0600000000	0.2771912819
2.0650000000	0.2977000392
2.0700000000	0.3153242722
2.0750000000	0.3265202970
2.0800000000	0.3337073416
2.0850000000	0.3422886223
2.0900000000	0.3556090631
2.0950000000	0.3746910395
2.1000000000	0.4000844855
2.1050000000	0.4312085544
2.1100000000	0.4702347672
2.1150000000	0.5186706200
2.1200000000	0.5787534476
2.1250000000	0.6536994441
2.1300000000	0.7480944189
2.1350000000	0.8685157928
2.1400000000	1.0244709872
2.1450000000	1.2298568389
2.1500000000	1.5049031762
2.1550000000	1.8782031218
2.1600000000	2.3863146719
2.1650000000	3.0601537415
2.1700000000	3.8880096136
2.1750000000	4.7142174308
2.1800000000	5.2366020258
2.1850000000	5.2954092972
2.1900000000	5.1155788109
2.1950000000	4.9961894835
2.2000000000	4.9618068154
2.2050000000	4.7231763447
2.2100000000	4.1590318013
2.2150000000	3.4424440865
2.2200000000	2.7867888701
2.2250000000	2.2616477056
2.2300000000	1.8483175562
2.2350000000	1.5200213813
2.2400000000	1.2595545852
2.2450000000	1.0562552059
2.2500000000	0.8977059116
2.2550000000	0.7726124204
2.2600000000	0.6715472033
2.2650000000	0.5866663495
2.2700000000	0.5113791559
2.2750000000	0.4410597941
2.2800000000	0.3760353969
2.2850000000	0.3244692409
2.2900000000	0.2984533215
2.2950000000	0.3021554506
2.3000000000	0.3236474404
2.3050000000	0.3446511637
2.3100000000	0.3537170602
2.3150000000	0.3514263822
2.3200000000	0.3427920806
2.3250000000	0.3329317120
2.3300000000	0.3246107878
2.3350000000	0.3187877996
2.3400000000	0.3152642001
2.3450000000	0.3130140046
2.3500000000	0.3106674296
2.3550000000	0.3073485257
2.3600000000	0.3033002307
2.3650000000	0.2995849974
2.3700000000	0.2972561078
2.3750000000	0.2968282855
2.3800000000	0.2982142351
2.3850000000	0.3008859023
2.3900000000	0.3042550177
2.3950000000	0.3078184565
2.4000000000	0.3118765157
2.4050000000	0.3175479293
2.4100000000	0.3254014007
2.4150000000	0.3361580548
2.4200000000	0.3503083625
2.4250000000	0.3682985405
2.4300000000	0.3906291040
2.4350000000	0.4179274306
2.4400000000	0.4510007297
2.4450000000	0.4908904122
2.4500000000	0.5389218839
2.4550000000	0.5967719609
2.4600000000	0.6665112379
2.4650000000	0.7506450768
2.4700000000	0.8520755556
2.4750000000	0.9737567466
2.4800000000	1.1188839393
2.4850000000	1.2888939465
2.4900000000	1.4823796351
2.4950000000	1.6923426832
2.5000000000	1.9032357294
2.5050000000	2.0981515152
2.5100000000	2.2240724612
2.5150000000	2.2516406728
2.5200000000	2.1770600197
2.5250000000	2.0236652280
2.5300000000	1.8269572000
2.5350000000	1.6180753358
2.5400000000	1.4167431979
2.5450000000	1.2327090406
2.5500000000	1.0696155346
2.5550000000	0.9279255062
2.5600000000	0.8055832421
2.5650000000	0.7023205419
2.5700000000	0.6160769939
2.5750000000	0.5456329996
2.5800000000	0.4900360667
2.5850000000	0.4481062178
2.5900000000	0.4177133001
2.5950000000	0.3957735585
2.6000000000	0.3790616061
2.6050000000	0.3671423987
2.6100000000	0.3564401036
2.6150000000	0.3468231034
2.6200000000	0.3385317144
2.6250000000	0.3318022070
2.6300000000	0.3267772462
2.6350000000	0.3235186870
2.6400000000	0.3220589809
2.6450000000	0.3224347877
2.6500000000	0.3247248249
2.6550000000	0.3289423396
2.6600000000	0.3351979809
2.6650000000	0.3435894969
2.6700000000	0.3542320603
2.6750000000	0.3672623202
2.6800000000	0.3828323633
2.6850000000	0.4011082922
2.6900000000	0.4222506180
2.6950000000	0.4464048237
2.7000000000	0.4736716856
2.7050000000	0.5073344832
2.7100000000	0.5450636758
2.7150000000	0.5866002167
2.7200000000	0.6313842459
2.7250000000	0.6784831417
2.7300000000	0.7265253219
2.7350000000	0.7736421714
2.7400000000	0.8174377280
2.7450000000	0.8553826892
2.7500000000	0.8838054041
2.7550000000	0.9001838945
2.7600000000	0.9026240305
2.7650000000	0.8906385938
2.7700000000	0.8653191936
2.7750000000	0.8291151122
2.7800000000	0.7852747115
2.7850000000	0.7372536936
2.7900000000	0.6881391973
2.7950000000	0.6404028487
2.8000000000	0.5957880238
2.8050000000	0.5504215004
2.8100000000	0.5112593170
2.8150000000	0.4782121407
2.8200000000	0.4507605185
2.8250000000	0.4282140634
2.8300000000	0.4098802144
2.8350000000	0.3951687259
2.8400000000	0.3834521282
2.8450000000	0.3747726858
2.8500000000	0.3686705567
2.8550000000	0.3649744031
2.8600000000	0.3635630122
2.8650000000	0.3643406217
2.8700000000	0.3672219822
2.8750000000	0.3721198562
2.8800000000	0.3789333179
2.8850000000	0.3875368788
2.8900000000	0.3977760352
2.8950000000	0.4094620857
2.9000000000	0.4223712109
2.9050000000	0.4393287554
2.9100000000	0.4567386796
2.9150000000	0.4739295881
2.9200000000	0.4900941219
2.9250000000	0.5042961693
2.9300000000	0.5156559141
2.9350000000	0.5230020397
2.9400000000	0.5257478335
2.9450000000	0.5235928582
2.9500000000	0.5167139727
2.9550000000	0.5057387400
2.9600000000	0.4916229944
2.9650000000	0.4754755994
2.9700000000	0.4583846705
2.9750000000	0.4412943224
2.9800000000	0.4249367643
2.9850000000	0.4098227900
2.9900000000	0.3962667330
2.9950000000	0.3844287088
3.0000000000	0.3743603416
