# energy (eV)    P(omega), $W$ = 300 nm, $h$ = 300 nm, $s$ = 20 nm, $d/W = 5$, $E_{\rm e}$ = 200 keV
0.2000000000	0.0748524180
0.2050000000	0.0759277003
0.2100000000	0.0769384397
0.2150000000	0.0778866544
0.2200000000	0.0787740845
0.2250000000	0.0796021686
0.2300000000	0.0803719636
0.2350000000	0.0810841298
0.2400000000	0.0817388559
0.2450000000	0.0823356977
0.2500000000	0.0828736684
0.2550000000	0.0833508712
0.2600000000	0.0837645347
0.2650000000	0.0841107952
0.2700000000	0.0843843567
0.2750000000	0.0845782859
0.2800000000	0.0846835960
0.2850000000	0.0846887962
0.2900000000	0.0845791236
0.2950000000	0.0843359633
0.3000000000	0.0839353435
0.3050000000	0.0833469803
0.3100000000	0.0825319947
0.3150000000	0.0869785569
0.3200000000	0.0922602303
0.3250000000	0.0989368824
0.3300000000	0.1078713775
0.3350000000	0.1189961654
0.3400000000	0.1335657664
0.3450000000	0.1512528938
0.3500000000	0.1744004014
0.3550000000	0.2050441295
0.3600000000	0.2450854254
0.3650000000	0.3009335652
0.3700000000	0.3746455195
0.3750000000	0.4772596171
0.3800000000	0.6257753333
0.3850000000	0.8573330611
0.3900000000	1.2234204169
0.3950000000	1.8457192922
0.4000000000	3.0328384382
0.4050000000	5.6961056431
0.4100000000	12.9683755491
0.4150000000	41.6533406125
0.4200000000	26.5134334164
0.4250000000	-50.0489627055
0.4300000000	13.9470012417
0.4350000000	8.7023361858
0.4400000000	5.3277923502
0.4450000000	3.5100436931
0.4500000000	2.4629261064
0.4550000000	1.8181480150
0.4600000000	1.3979685328
0.4650000000	1.1114931755
0.4700000000	0.9089250343
0.4750000000	0.7623761302
0.4800000000	0.6536992667
0.4850000000	0.5719219272
0.4900000000	0.5095134960
0.4950000000	0.4614164479
0.5000000000	0.4241748305
0.5050000000	0.3952500147
0.5100000000	0.3730106529
0.5150000000	0.3562563652
0.5200000000	0.3437250217
0.5250000000	0.3348544766
0.5300000000	0.3290363673
0.5350000000	0.3258270065
0.5400000000	0.3248998376
0.5450000000	0.3259822321
0.5500000000	0.3289929768
0.5550000000	0.3337799937
0.5600000000	0.3402691827
0.5650000000	0.3484292479
0.5700000000	0.3582337019
0.5750000000	0.3697526995
0.5800000000	0.3831002806
0.5850000000	0.3983513757
0.5900000000	0.4156485554
0.5950000000	0.4351686237
0.6000000000	0.4571365157
0.6050000000	0.4818746659
0.6100000000	0.5096936720
0.6150000000	0.5410150706
0.6200000000	0.5764015167
0.6250000000	0.6163917320
0.6300000000	0.6617819662
0.6350000000	0.7135647052
0.6400000000	0.7727730503
0.6450000000	0.8408974829
0.6500000000	0.9198983655
0.6550000000	1.0118168234
0.6600000000	1.1197887606
0.6650000000	1.2478410633
0.6700000000	1.4007079269
0.6750000000	1.5856056936
0.6800000000	1.8122504655
0.6850000000	2.0933609335
0.6900000000	2.4486522045
0.6950000000	2.9056883572
0.7000000000	3.5082807541
0.7050000000	4.3234034362
0.7100000000	5.4645710924
0.7150000000	7.1338783718
0.7200000000	9.7076449085
0.7250000000	13.9815089996
0.7300000000	21.8291976144
0.7350000000	38.6274186595
0.7400000000	84.7153724232
0.7450000000	281.2465070477
0.7500000000	871.9470300114
0.7550000000	219.5217813239
0.7600000000	72.7558934847
0.7650000000	34.8873800238
0.7700000000	20.3051480610
0.7750000000	13.2631126249
0.7800000000	9.3413164150
0.7850000000	6.9434513283
0.7900000000	5.3688174136
0.7950000000	4.2824374770
0.8000000000	3.5012121040
0.8050000000	2.9191769150
0.8100000000	2.4751912714
0.8150000000	2.1230985770
0.8200000000	1.8451305902
0.8250000000	1.6212512811
0.8300000000	1.4377978422
0.8350000000	1.2869322366
0.8400000000	1.1604333094
0.8450000000	1.0542612985
0.8500000000	0.9645079475
0.8550000000	0.8870329346
0.8600000000	0.8208939200
0.8650000000	0.7644132660
0.8700000000	0.7144929438
0.8750000000	0.6720507476
0.8800000000	0.6360701366
0.8850000000	0.6038081437
0.8900000000	0.5779970596
0.8950000000	0.5545141356
0.9000000000	0.5359778990
0.9050000000	0.5233534885
0.9100000000	0.5117913670
0.9150000000	0.5049511916
0.9200000000	0.5045448900
0.9250000000	0.5043309510
0.9300000000	0.4972784165
0.9350000000	0.4751973148
0.9400000000	0.3505507812
0.9450000000	-0.2174447563
0.9500000000	-3.2179775968
0.9550000000	-18.4480375753
0.9600000000	4.3574067977
0.9650000000	7.6586154261
0.9700000000	3.3991764180
0.9750000000	1.7852926236
0.9800000000	1.1191367095
0.9850000000	0.8074874773
0.9900000000	0.6278307776
0.9950000000	0.5188548315
1.0000000000	0.4492604411
1.0050000000	0.4051582112
1.0100000000	0.3709297113
1.0150000000	0.3459089919
1.0200000000	0.3290636667
1.0250000000	0.3148876233
1.0300000000	0.3040944057
1.0350000000	0.2959001472
1.0400000000	0.2906661446
1.0450000000	0.2862655806
1.0500000000	0.2833042113
1.0550000000	0.2816124426
1.0600000000	0.2815814946
1.0650000000	0.2821227782
1.0700000000	0.2836758385
1.0750000000	0.2862458278
1.0800000000	0.2901208508
1.0850000000	0.2950472033
1.0900000000	0.3023901254
1.0950000000	0.3111224077
1.1000000000	0.3215505792
1.1050000000	0.3335407864
1.1100000000	0.3474846529
1.1150000000	0.3636912034
1.1200000000	0.3825396064
1.1250000000	0.4044626812
1.1300000000	0.4301144448
1.1350000000	0.4602847379
1.1400000000	0.4958877829
1.1450000000	0.5385259041
1.1500000000	0.5899966784
1.1550000000	0.6528728617
1.1600000000	0.7307835641
1.1650000000	0.8284516424
1.1700000000	0.9546535392
1.1750000000	1.1211021785
1.1800000000	1.3471331181
1.1850000000	1.6645104213
1.1900000000	2.1331875163
1.1950000000	2.8680751274
1.2000000000	4.1135527249
1.2050000000	6.4659664596
1.2100000000	11.6395857201
1.2150000000	25.6255858682
1.2200000000	62.8491039655
1.2250000000	56.5215516302
1.2300000000	22.6129255737
1.2350000000	10.6616423000
1.2400000000	6.1371097747
1.2450000000	4.0636032589
1.2500000000	2.9742392856
1.2550000000	2.3506073202
1.2600000000	1.9768818350
1.2650000000	1.7494035494
1.2700000000	1.6223680740
1.2750000000	1.5662242625
1.2800000000	1.5676089906
1.2850000000	1.6216223674
1.2900000000	1.7297323064
1.2950000000	1.8980985905
1.3000000000	2.1460724600
1.3050000000	2.4988451194
1.3100000000	3.0019812814
1.3150000000	3.7339850286
1.3200000000	4.8354085054
1.3250000000	6.5746604330
1.3300000000	9.5375801957
1.3350000000	15.0843941679
1.3400000000	26.9386911690
1.3450000000	56.3736800173
1.3500000000	119.7574307234
1.3550000000	111.7634982601
1.3600000000	51.5591214435
1.3650000000	25.3366176462
1.3700000000	14.5302294344
1.3750000000	9.3433714185
1.3800000000	6.5151105314
1.3850000000	4.8116785746
1.3900000000	3.7143739843
1.3950000000	2.9662029318
1.4000000000	2.4349152428
1.4050000000	2.0458764046
1.4100000000	1.7543310538
1.4150000000	1.5343395252
1.4200000000	1.3689058226
1.4250000000	1.2581012154
1.4300000000	1.2175208898
1.4350000000	1.2400889077
1.4400000000	0.9551258967
1.4450000000	0.0823214034
1.4500000000	-1.3347104847
1.4550000000	-0.3742514153
1.4600000000	1.6161458427
1.4650000000	0.8749908086
1.4700000000	-0.8261985945
1.4750000000	-3.6160050804
1.4800000000	-1.6093518040
1.4850000000	2.6451468712
1.4900000000	2.1441660047
1.4950000000	1.3878591469
1.5000000000	0.9751358800
1.5050000000	0.7528986985
1.5100000000	0.6262300323
1.5150000000	0.5493040409
1.5200000000	0.4996110414
1.5250000000	0.4687351913
1.5300000000	0.4451494982
1.5350000000	0.4288919534
1.5400000000	0.4181829542
1.5450000000	0.4120676495
1.5500000000	0.4099295993
1.5550000000	0.4117844282
1.5600000000	0.4187301416
1.5650000000	0.4302029549
1.5700000000	0.4487797231
1.5750000000	0.4776035888
1.5800000000	0.5225762592
1.5850000000	0.5951857420
1.5900000000	0.7196355112
1.5950000000	0.9494859815
1.6000000000	1.3978724110
1.6050000000	2.1392613464
1.6100000000	2.4826162387
1.6150000000	1.8389436592
1.6200000000	1.2351086475
1.6250000000	0.9163686243
1.6300000000	0.7563301456
1.6350000000	0.6739377980
1.6400000000	0.6321772965
1.6450000000	0.6138452208
1.6500000000	0.6103266735
1.6550000000	0.6175859849
1.6600000000	0.6332146480
1.6650000000	0.6561128463
1.6700000000	0.6858624588
1.6750000000	0.7224660018
1.6800000000	0.7662507294
1.6850000000	0.8177242812
1.6900000000	0.8773355340
1.6950000000	0.9442378284
1.7000000000	1.0173086142
1.7050000000	1.0921952001
1.7100000000	1.1776475155
1.7150000000	1.3899993818
1.7200000000	1.7625621309
1.7250000000	2.1039265233
1.7300000000	2.4702841451
1.7350000000	2.8728334815
1.7400000000	3.2678228715
1.7450000000	3.7751612007
1.7500000000	4.5423870847
1.7550000000	5.6843266915
1.7600000000	7.3928817701
1.7650000000	10.0266348103
1.7700000000	14.2691486729
1.7750000000	21.4166805837
1.7800000000	33.5959315108
1.7850000000	51.5574752037
1.7900000000	64.0721024682
1.7950000000	54.5586245273
1.8000000000	36.3102817647
1.8050000000	22.9307697383
1.8100000000	15.1188010122
1.8150000000	10.5398995145
1.8200000000	7.7219814957
1.8250000000	5.8951162735
1.8300000000	4.6547383404
1.8350000000	3.7792281639
1.8400000000	3.1413780109
1.8450000000	2.6640211381
1.8500000000	2.2985254967
1.8550000000	2.0144607890
1.8600000000	1.7905991255
1.8650000000	1.6125136278
1.8700000000	1.4699435422
1.8750000000	1.3553558143
1.8800000000	1.2627750091
1.8850000000	1.1869210081
1.8900000000	1.1217094782
1.8950000000	1.0580611571
1.9000000000	0.9802980585
1.9050000000	0.8330909267
1.9100000000	0.6304934033
1.9150000000	0.5231651979
1.9200000000	1.2794761695
1.9250000000	3.3698896272
1.9300000000	5.0277306075
1.9350000000	4.9504079984
1.9400000000	3.8936379324
1.9450000000	2.8690678393
1.9500000000	2.1497015985
1.9550000000	1.6783500311
1.9600000000	1.3668659168
1.9650000000	1.1583845893
1.9700000000	1.0078772497
1.9750000000	0.8975496669
1.9800000000	0.8133191149
1.9850000000	0.7449682635
1.9900000000	0.6846788993
1.9950000000	0.6256276971
2.0000000000	0.5668198710
2.0050000000	0.5292500169
2.0100000000	0.5507765054
2.0150000000	0.6100759023
2.0200000000	0.6466409997
2.0250000000	0.6563570965
2.0300000000	0.6585486136
2.0350000000	0.6625326029
2.0400000000	0.6717711705
2.0450000000	0.6871471191
2.0500000000	0.7092332675
2.0550000000	0.7385498196
2.0600000000	0.7750971887
2.0650000000	0.8166614404
2.0700000000	0.8577520971
2.0750000000	0.8942544556
2.0800000000	0.9297989513
2.0850000000	0.9718937411
2.0900000000	1.0255715837
2.0950000000	1.0929516898
2.1000000000	1.1763134848
2.1050000000	1.2749019522
2.1100000000	1.3956459882
2.1150000000	1.5436106983
2.1200000000	1.7258994474
2.1250000000	1.9524758612
2.1300000000	2.2373847238
2.1350000000	2.6006777057
2.1400000000	3.0713087384
2.1450000000	3.6916087017
2.1500000000	4.5232552124
2.1550000000	5.6535388727
2.1600000000	7.1941779447
2.1650000000	9.2397838691
2.1700000000	11.7525094423
2.1750000000	14.2506876772
2.1800000000	15.7942617448
2.1850000000	15.8745063936
2.1900000000	15.1727553256
2.1950000000	14.6266995467
2.2000000000	14.3845714336
2.2050000000	13.7118026137
2.2100000000	12.2833964030
2.2150000000	10.5271394581
2.2200000000	8.9505115259
2.2250000000	7.6475146632
2.2300000000	6.5002445874
2.2350000000	5.4630241917
2.2400000000	4.5721342466
2.2450000000	3.8593166732
2.2500000000	3.3128779733
2.2550000000	2.9023807070
2.2600000000	2.5950154958
2.2650000000	2.3579062976
2.2700000000	2.1555156234
2.2750000000	1.9528330030
2.2800000000	1.7346340207
2.2850000000	1.5270151656
2.2900000000	1.3835529581
2.2950000000	1.3345715095
2.3000000000	1.3521173628
2.3050000000	1.3788904334
2.3100000000	1.3811519812
2.3150000000	1.3591765508
2.3200000000	1.3275690594
2.3250000000	1.3014145979
2.3300000000	1.2884319257
2.3350000000	1.2899474347
2.3400000000	1.3016388944
2.3450000000	1.3137235736
2.3500000000	1.3138830147
2.3550000000	1.2942581492
2.3600000000	1.2570731497
2.3650000000	1.2120470710
2.3700000000	1.1691979904
2.3750000000	1.1345090553
2.3800000000	1.1099235062
2.3850000000	1.0948909166
2.3900000000	1.0881570833
2.3950000000	1.0882694080
2.4000000000	1.0956237114
2.4050000000	1.1126417804
2.4100000000	1.1401355414
2.4150000000	1.1792288357
2.4200000000	1.2305971727
2.4250000000	1.2954224321
2.4300000000	1.3754281502
2.4350000000	1.4729263623
2.4400000000	1.5909005450
2.4450000000	1.7331601017
2.4500000000	1.9045111941
2.4550000000	2.1109947437
2.4600000000	2.3600328028
2.4650000000	2.6605303848
2.4700000000	3.0227006144
2.4750000000	3.4567739344
2.4800000000	3.9733161501
2.4850000000	4.5765100614
2.4900000000	5.2604602898
2.4950000000	6.0006910986
2.5000000000	6.7454396761
2.5050000000	7.4421188506
2.5100000000	7.9127718916
2.5150000000	8.0547595451
2.5200000000	7.8436239717
2.5250000000	7.3445404811
2.5300000000	6.6710511349
2.5350000000	5.9326611511
2.5400000000	5.2067324062
2.5450000000	4.5369740848
2.5500000000	3.9428223205
2.5550000000	3.4287013422
2.5600000000	2.9875422793
2.5650000000	2.6166390097
2.5700000000	2.3072593934
2.5750000000	2.0539370704
2.5800000000	1.8525888625
2.5850000000	1.6987760453
2.5900000000	1.5851980857
2.5950000000	1.5015910887
2.6000000000	1.4372681327
2.6050000000	1.3915548561
2.6100000000	1.3519729088
2.6150000000	1.3178948750
2.6200000000	1.2899940593
2.6250000000	1.2690163572
2.6300000000	1.2554598390
2.6350000000	1.2495786451
2.6400000000	1.2515203583
2.6450000000	1.2614223360
2.6500000000	1.2795534019
2.6550000000	1.3059888470
2.6600000000	1.3411343800
2.6650000000	1.3853998297
2.6700000000	1.4392886454
2.6750000000	1.5034109420
2.6800000000	1.5784429275
2.6850000000	1.6650763541
2.6900000000	1.7638778772
2.6950000000	1.8751761921
2.7000000000	1.9988587018
2.7050000000	2.1489925040
2.7100000000	2.3128436321
2.7150000000	2.4872218187
2.7200000000	2.6674868979
2.7250000000	2.8478094777
2.7300000000	3.0216116726
2.7350000000	3.1819461401
2.7400000000	3.3215873320
2.7450000000	3.4341211701
2.7500000000	3.5095984251
2.7550000000	3.5419958276
2.7600000000	3.5267430061
2.7650000000	3.4633082685
2.7700000000	3.3559430741
2.7750000000	3.2131656724
2.7800000000	3.0460790660
2.7850000000	2.8664620412
2.7900000000	2.6848830154
2.7950000000	2.5098168907
2.8000000000	2.3472562452
2.8050000000	2.1827829010
2.8100000000	2.0420151106
2.8150000000	1.9245752870
2.8200000000	1.8285729758
2.8250000000	1.7515165527
2.8300000000	1.6908961273
2.8350000000	1.6445637101
2.8400000000	1.6102580867
2.8450000000	1.5880579969
2.8500000000	1.5763201259
2.8550000000	1.5744183311
2.8600000000	1.5818850644
2.8650000000	1.5982991408
2.8700000000	1.6231894289
2.8750000000	1.6559582178
2.8800000000	1.6958219092
2.8850000000	1.7417614286
2.8900000000	1.7925517934
2.8950000000	1.8468075383
2.9000000000	1.9030716706
2.9050000000	1.9706848720
2.9100000000	2.0355481803
2.9150000000	2.0956212149
2.9200000000	2.1487625257
2.9250000000	2.1925422921
2.9300000000	2.2247231409
2.9350000000	2.2418257921
2.9400000000	2.2423484849
2.9450000000	2.2256514668
2.9500000000	2.1926981437
2.9550000000	2.1459931509
2.9600000000	2.0891517003
2.9650000000	2.0262701389
2.9700000000	1.9613096266
2.9750000000	1.8976553987
2.9800000000	1.8379013494
2.9850000000	1.7838172288
2.9900000000	1.7364674913
2.9950000000	1.6963518313
3.0000000000	1.6635754012
