# energy (eV)    P(omega), $W$ = 300 nm, $h$ = 300 nm, $s$ = 20 nm, $d/W = 5$, $E_{\rm e}$ = 200 keV
0.2000000000	0.0746370396
0.2050000000	0.0757092191
0.2100000000	0.0767170460
0.2150000000	0.0776625324
0.2200000000	0.0785474131
0.2250000000	0.0793731225
0.2300000000	0.0801407141
0.2350000000	0.0808508462
0.2400000000	0.0815037070
0.2450000000	0.0820988533
0.2500000000	0.0826353010
0.2550000000	0.0831111588
0.2600000000	0.0835236631
0.2650000000	0.0838689614
0.2700000000	0.0841417729
0.2750000000	0.0843351842
0.2800000000	0.0844402346
0.2850000000	0.0844454663
0.2900000000	0.0843361592
0.2950000000	0.0840937521
0.3000000000	0.0836943424
0.3050000000	0.0831077338
0.3100000000	0.0822951597
0.3150000000	0.0867288688
0.3200000000	0.0919952753
0.3250000000	0.0986526250
0.3300000000	0.1075612852
0.3350000000	0.1186539064
0.3400000000	0.1331813807
0.3450000000	0.1508173768
0.3500000000	0.1738979738
0.3550000000	0.2044531316
0.3600000000	0.2443787141
0.3650000000	0.3000654777
0.3700000000	0.3735644825
0.3750000000	0.4758821827
0.3800000000	0.6239689833
0.3850000000	0.8548580583
0.3900000000	1.2198884632
0.3950000000	1.8403909533
0.4000000000	3.0240837540
0.4050000000	5.6796651648
0.4100000000	12.9309516587
0.4150000000	41.5331620604
0.4200000000	26.4369280955
0.4250000000	-49.9046234668
0.4300000000	13.9067945901
0.4350000000	8.6772555767
0.4400000000	5.3124419581
0.4450000000	3.4999338302
0.4500000000	2.4558346341
0.4550000000	1.8129149216
0.4600000000	1.3939463329
0.4650000000	1.1082964628
0.4700000000	0.9063119724
0.4750000000	0.7601852842
0.4800000000	0.6518215108
0.4850000000	0.5702797653
0.4900000000	0.5080511360
0.4950000000	0.4600926732
0.5000000000	0.4229583846
0.5050000000	0.3941169562
0.5100000000	0.3719417422
0.5150000000	0.3552358236
0.5200000000	0.3427407044
0.5250000000	0.3338958614
0.5300000000	0.3280946842
0.5350000000	0.3248947652
0.5400000000	0.3239704894
0.5450000000	0.3250500144
0.5500000000	0.3280523643
0.5550000000	0.3328259003
0.5600000000	0.3392967390
0.5650000000	0.3474336767
0.5700000000	0.3572103056
0.5750000000	0.3686965827
0.5800000000	0.3820062249
0.5850000000	0.3972139519
0.5900000000	0.4144619298
0.5950000000	0.4339264611
0.6000000000	0.4558318418
0.6050000000	0.4804995888
0.6100000000	0.5082394174
0.6150000000	0.5394716648
0.6200000000	0.5747573858
0.6250000000	0.6146337693
0.6300000000	0.6598948000
0.6350000000	0.7115301397
0.6400000000	0.7705699510
0.6450000000	0.8385004746
0.6500000000	0.9172764959
0.6550000000	1.0089333335
0.6600000000	1.1165979687
0.6650000000	1.2442858348
0.6700000000	1.3967176576
0.6750000000	1.5810892524
0.6800000000	1.8070890829
0.6850000000	2.0873996624
0.6900000000	2.4416800193
0.6950000000	2.8974158341
0.7000000000	3.4982938587
0.7050000000	4.3110976524
0.7100000000	5.4490190702
0.7150000000	7.1135780095
0.7200000000	9.6800239058
0.7250000000	13.9417324802
0.7300000000	21.7671024622
0.7350000000	38.5175527911
0.7400000000	84.4744503622
0.7450000000	280.4467678142
0.7500000000	869.4679059969
0.7550000000	218.8977123362
0.7600000000	72.5490842347
0.7650000000	34.7882245213
0.7700000000	20.2474446955
0.7750000000	13.2254260322
0.7800000000	9.3147767208
0.7850000000	6.9237266736
0.7900000000	5.3535678028
0.7950000000	4.2702751334
0.8000000000	3.4912697173
0.8050000000	2.9108883650
0.8100000000	2.4681642249
0.8150000000	2.1170718724
0.8200000000	1.8398935882
0.8250000000	1.6166502875
0.8300000000	1.4337179842
0.8350000000	1.2832809278
0.8400000000	1.1571413169
0.8450000000	1.0512708743
0.8500000000	0.9617724514
0.8550000000	0.8845174828
0.8600000000	0.8185663136
0.8650000000	0.7622460788
0.8700000000	0.7124675359
0.8750000000	0.6701458887
0.8800000000	0.6342674858
0.8850000000	0.6020971364
0.8900000000	0.5763593983
0.8950000000	0.5529432036
0.9000000000	0.5344596700
0.9050000000	0.5218712102
0.9100000000	0.5103420179
0.9150000000	0.5035213948
0.9200000000	0.5031164298
0.9250000000	0.5029032713
0.9300000000	0.4958708394
0.9350000000	0.4738522948
0.9400000000	0.3495582121
0.9450000000	-0.2168318672
0.9500000000	-3.2088848588
0.9550000000	-18.3959074377
0.9600000000	4.3450947476
0.9650000000	7.6369778744
0.9700000000	3.3895735749
0.9750000000	1.7802492507
0.9800000000	1.1159751952
0.9850000000	0.8052063278
0.9900000000	0.6260571009
0.9950000000	0.5173889657
1.0000000000	0.4479911473
1.0050000000	0.4040134942
1.0100000000	0.3698816686
1.0150000000	0.3449316138
1.0200000000	0.3281338688
1.0250000000	0.3139978547
1.0300000000	0.3032351081
1.0350000000	0.2950639756
1.0400000000	0.2898447395
1.0450000000	0.2854565762
1.0500000000	0.2825035363
1.0550000000	0.2808165040
1.0600000000	0.2807855987
1.0650000000	0.2813252947
1.0700000000	0.2828738989
1.0750000000	0.2854365488
1.0800000000	0.2893005376
1.0850000000	0.2942128628
1.0900000000	0.3015348978
1.0950000000	0.3102423449
1.1000000000	0.3206408656
1.1050000000	0.3325969711
1.1100000000	0.3465011757
1.1150000000	0.3626616238
1.1200000000	0.3814564082
1.1250000000	0.4033170998
1.1300000000	0.4288958566
1.1350000000	0.4589802669
1.1400000000	0.4944819506
1.1450000000	0.5369986478
1.1500000000	0.5883228130
1.1550000000	0.6510198616
1.1600000000	0.7287085486
1.1650000000	0.8260982606
1.1700000000	0.9519403845
1.1750000000	1.1179144244
1.1800000000	1.3433007643
1.1850000000	1.6597728214
1.1900000000	2.1271129680
1.1950000000	2.8599039971
1.2000000000	4.1018280742
1.2050000000	6.4475297809
1.2100000000	11.6063873038
1.2150000000	25.5524831637
1.2200000000	62.6698063268
1.2250000000	56.3603298316
1.2300000000	22.5484488732
1.2350000000	10.6312618468
1.2400000000	6.1196379896
1.2450000000	4.0520484371
1.2500000000	2.9657944929
1.2550000000	2.3439445759
1.2600000000	1.9712889209
1.2650000000	1.7444640383
1.2700000000	1.6177964411
1.2750000000	1.5618194797
1.2800000000	1.5632084757
1.2850000000	1.6170779673
1.2900000000	1.7248923279
1.2950000000	1.8927946097
1.3000000000	2.1400823998
1.3050000000	2.4918771399
1.3100000000	2.9936170182
1.3150000000	3.7235880436
1.3200000000	4.8219517846
1.3250000000	6.5563711921
1.3300000000	9.5110574687
1.3350000000	15.0424569945
1.3400000000	26.8638110255
1.3450000000	56.2170019803
1.3500000000	119.4246218581
1.3550000000	111.4529226684
1.3600000000	51.4158503424
1.3650000000	25.2662136758
1.3700000000	14.4898534595
1.3750000000	9.3174080858
1.3800000000	6.4970059918
1.3850000000	4.7983073627
1.3900000000	3.7040519719
1.3950000000	2.9579600440
1.4000000000	2.4281489639
1.4050000000	2.0401916291
1.4100000000	1.7494571528
1.4150000000	1.5300781825
1.4200000000	1.3651063886
1.4250000000	1.2546139214
1.4300000000	1.2141553791
1.4350000000	1.2366771560
1.4400000000	0.9525178175
1.4450000000	0.0821540805
1.4500000000	-1.3308914716
1.4550000000	-0.3731585816
1.4600000000	1.6116008261
1.4650000000	0.8725136360
1.4700000000	-0.8239369917
1.4750000000	-3.6059959486
1.4800000000	-1.6049008288
1.4850000000	2.6378039082
1.4900000000	2.1382142049
1.4950000000	1.3840055519
1.5000000000	0.9724274243
1.5050000000	0.7508070702
1.5100000000	0.6244900501
1.5150000000	0.5477777180
1.5200000000	0.4982228278
1.5250000000	0.4674328582
1.5300000000	0.4439128630
1.5350000000	0.4277007025
1.5400000000	0.4170217221
1.5450000000	0.4109237387
1.5500000000	0.4087920327
1.5550000000	0.4106422210
1.5600000000	0.4175692988
1.5650000000	0.4290111269
1.5700000000	0.4475375120
1.5750000000	0.4762830634
1.5800000000	0.5211334546
1.5850000000	0.5935454803
1.5900000000	0.7176568555
1.5950000000	0.9468824926
1.6000000000	1.3940503820
1.6050000000	2.1334251660
1.6100000000	2.4758481253
1.6150000000	1.8339245484
1.6200000000	1.2317293700
1.6250000000	0.9138543671
1.6300000000	0.7542496715
1.6350000000	0.6720800916
1.6400000000	0.6304318817
1.6450000000	0.6121483340
1.6500000000	0.6086379265
1.6550000000	0.6158759344
1.6600000000	0.6314603591
1.6650000000	0.6542943358
1.6700000000	0.6839608365
1.6750000000	0.7204623172
1.6800000000	0.7641250724
1.6850000000	0.8154552730
1.6900000000	0.8749004481
1.6950000000	0.9416160581
1.7000000000	1.0144822563
1.7050000000	1.0891574385
1.7100000000	1.1743675208
1.7150000000	1.3861322454
1.7200000000	1.7576720534
1.7250000000	2.0980909078
1.7300000000	2.4634276221
1.7350000000	2.8648565486
1.7400000000	3.2587511829
1.7450000000	3.7646850379
1.7500000000	4.5297849489
1.7550000000	5.6685585495
1.7600000000	7.3723757804
1.7650000000	9.9988249825
1.7700000000	14.2295736843
1.7750000000	21.3572848326
1.7800000000	33.5027629185
1.7850000000	51.4145028294
1.7900000000	63.8944362467
1.7950000000	54.4073480469
1.8000000000	36.2096103840
1.8050000000	22.8671987658
1.8100000000	15.0768911731
1.8150000000	10.5106857564
1.8200000000	7.7005809779
1.8250000000	5.8787811069
1.8300000000	4.6418424461
1.8350000000	3.7687599825
1.8400000000	3.1326787040
1.8450000000	2.6566458516
1.8500000000	2.2921642381
1.8550000000	2.0088879645
1.8600000000	1.7856480423
1.8650000000	1.6080576513
1.8700000000	1.4658845681
1.8750000000	1.3516167418
1.8800000000	1.2592954739
1.8850000000	1.1836555348
1.8900000000	1.1186298418
1.8950000000	1.0551649037
1.9000000000	0.9776271701
1.9050000000	0.8308432705
1.9100000000	0.6288305071
1.9150000000	0.5218360034
1.9200000000	1.2761062039
1.9250000000	3.3607997264
1.9300000000	5.0141030536
1.9350000000	4.9369780081
1.9400000000	3.8830669529
1.9450000000	2.8612702484
1.9500000000	2.1438518721
1.9550000000	1.6737770249
1.9600000000	1.3631368563
1.9650000000	1.1552203065
1.9700000000	1.0051209780
1.9750000000	0.8950924876
1.9800000000	0.8110902346
1.9850000000	0.7429245400
1.9900000000	0.6827983294
1.9950000000	0.6239067099
2.0000000000	0.5652576023
2.0050000000	0.5277889329
2.0100000000	0.5492571555
2.0150000000	0.6083963249
2.0200000000	0.6448623022
2.0250000000	0.6545514460
2.0300000000	0.6567360353
2.0350000000	0.6607080080
2.0400000000	0.6699200486
2.0450000000	0.6852524815
2.0500000000	0.7072764572
2.0550000000	0.7365106470
2.0600000000	0.7729554573
2.0650000000	0.8144033455
2.0700000000	0.8553796854
2.0750000000	0.8917817116
2.0800000000	0.9272295224
2.0850000000	0.9692097854
2.0900000000	1.0227409354
2.0950000000	1.0899362540
2.1000000000	1.1730689431
2.1050000000	1.2713861573
2.1100000000	1.3917977330
2.1150000000	1.5393548639
2.1200000000	1.7211413705
2.1250000000	1.9470934457
2.1300000000	2.2312171898
2.1350000000	2.5935090311
2.1400000000	3.0628431393
2.1450000000	3.6814337743
2.1500000000	4.5107886401
2.1550000000	5.6379578801
2.1600000000	7.1743520107
2.1650000000	9.2143218848
2.1700000000	11.7201243967
2.1750000000	14.2114188961
2.1800000000	15.7507367613
2.1850000000	15.8307523229
2.1900000000	15.1309219394
2.1950000000	14.5863555675
2.2000000000	14.3448833381
2.2050000000	13.6739728265
2.2100000000	12.2495263268
2.2150000000	10.4981437035
2.2200000000	8.9258946621
2.2250000000	7.6265123764
2.2300000000	6.4824121455
2.2350000000	5.4480457808
2.2400000000	4.5596016294
2.2450000000	3.8487396357
2.2500000000	3.3038007334
2.2550000000	2.8944316589
2.2600000000	2.5879130682
2.2650000000	2.3514587255
2.2700000000	2.1496277390
2.2750000000	1.9475043407
2.2800000000	1.7299046967
2.2850000000	1.5228535053
2.2900000000	1.3797810928
2.2950000000	1.3309295050
2.3000000000	1.3484229871
2.3050000000	1.3751191559
2.3100000000	1.3773723039
2.3150000000	1.3554560868
2.3200000000	1.3239351275
2.3250000000	1.2978529173
2.3300000000	1.2849068941
2.3350000000	1.2864196658
2.3400000000	1.2980806147
2.3450000000	1.3101334348
2.3500000000	1.3102929658
2.3550000000	1.2907213798
2.3600000000	1.2536368369
2.3650000000	1.2087321250
2.3700000000	1.1659982558
2.3750000000	1.1314022408
2.3800000000	1.1068821433
2.3850000000	1.0918891434
2.3900000000	1.0851725392
2.3950000000	1.0852837443
2.4000000000	1.0926174480
2.4050000000	1.1095886864
2.4100000000	1.1370070677
2.4150000000	1.1759932525
2.4200000000	1.2272208243
2.4250000000	1.2918683941
2.4300000000	1.3716547717
2.4350000000	1.4688856564
2.4400000000	1.5865363504
2.4450000000	1.7284058207
2.4500000000	1.8992870550
2.4550000000	2.1052044147
2.4600000000	2.3535596025
2.4650000000	2.6532332101
2.4700000000	3.0144103489
2.4750000000	3.4472933813
2.4800000000	3.9624190767
2.4850000000	4.5639586877
2.4900000000	5.2460329253
2.4950000000	5.9842331917
2.5000000000	6.7269388671
2.5050000000	7.4217075205
2.5100000000	7.8910712413
2.5150000000	8.0326724097
2.5200000000	7.8221195411
2.5250000000	7.3244079665
2.5300000000	6.6527674803
2.5350000000	5.9164028678
2.5400000000	5.1924643486
2.5450000000	4.5245418348
2.5500000000	3.9320186001
2.5550000000	3.4193069288
2.5600000000	2.9793573521
2.5650000000	2.6094710490
2.5700000000	2.3009397309
2.5750000000	2.0483119552
2.5800000000	1.8475156923
2.5850000000	1.6941243772
2.5900000000	1.5808575180
2.5950000000	1.4974794173
2.6000000000	1.4333325169
2.6050000000	1.3877443615
2.6100000000	1.3482708403
2.6150000000	1.3142862507
2.6200000000	1.2864620346
2.6250000000	1.2655420379
2.6300000000	1.2520229658
2.6350000000	1.2461582622
2.6400000000	1.2480951115
2.6450000000	1.2579704916
2.6500000000	1.2760524929
2.6550000000	1.3024162043
2.6600000000	1.3374662262
2.6650000000	1.3816112729
2.6700000000	1.4353534250
2.6750000000	1.4993011323
2.6800000000	1.5741287600
2.6850000000	1.6605261682
2.6900000000	1.7590584535
2.6950000000	1.8700533908
2.7000000000	1.9933986571
2.7050000000	2.1431229425
2.7100000000	2.3065268820
2.7150000000	2.4804288002
2.7200000000	2.6602010693
2.7250000000	2.8400301065
2.7300000000	3.0133559469
2.7350000000	3.1732502778
2.7400000000	3.3125074544
2.7450000000	3.4247311680
2.7500000000	3.4999996860
2.7550000000	3.5323064597
2.7600000000	3.5170938003
2.7650000000	3.4538315559
2.7700000000	3.3467595538
2.7750000000	3.2043726723
2.7800000000	3.0377434371
2.7850000000	2.8586182987
2.7900000000	2.6775366689
2.7950000000	2.5029501893
2.8000000000	2.3408349921
2.8050000000	2.1768123875
2.8100000000	2.0364304476
2.8150000000	1.9193126235
2.8200000000	1.8235736406
2.8250000000	1.7467287065
2.8300000000	1.6862748113
2.8350000000	1.6400698492
2.8400000000	1.6058588064
2.8450000000	1.5837202005
2.8500000000	1.5720152217
2.8550000000	1.5701194418
2.8600000000	1.5775665907
2.8650000000	1.5939366315
2.8700000000	1.6187597120
2.8750000000	1.6514397377
2.8800000000	1.6911952303
2.8850000000	1.7370098707
2.8900000000	1.7876619856
2.8950000000	1.8417698606
2.9000000000	1.8978804529
2.9050000000	1.9653087826
2.9100000000	2.0299944545
2.9150000000	2.0899027068
2.9200000000	2.1428980079
2.9250000000	2.1865572648
2.9300000000	2.2186493005
2.9350000000	2.2357044236
2.9400000000	2.2362250326
2.9450000000	2.2195731577
2.9500000000	2.1867095899
2.9550000000	2.1401321161
2.9600000000	2.0834460496
2.9650000000	2.0207365187
2.9700000000	1.9559538277
2.9750000000	1.8924739322
2.9800000000	1.8328836136
2.9850000000	1.7789477672
2.9900000000	1.7317279245
2.9950000000	1.6917224033
3.0000000000	1.6590360622
