# energy (eV)    P(omega), $W$ = 300 nm, $h$ = 300 nm, $s$ = 20 nm, $d/W = 5$, $E_{\rm e}$ = 200 keV
0.2000000000	0.1303643658
0.2050000000	0.1323175166
0.2100000000	0.1341434096
0.2150000000	0.1358461949
0.2200000000	0.1374294209
0.2250000000	0.1388960984
0.2300000000	0.1402485313
0.2350000000	0.1414882469
0.2400000000	0.1426158303
0.2450000000	0.1436308572
0.2500000000	0.1445316607
0.2550000000	0.1453150470
0.2600000000	0.1459762187
0.2650000000	0.1465082058
0.2700000000	0.1469015649
0.2750000000	0.1471437781
0.2800000000	0.1472185949
0.2850000000	0.1471051170
0.2900000000	0.1467765790
0.2950000000	0.1461990144
0.3000000000	0.1453290361
0.3050000000	0.1441113560
0.3100000000	0.1424751910
0.3150000000	0.1505785356
0.3200000000	0.1602023221
0.3250000000	0.1723747351
0.3300000000	0.1886766618
0.3350000000	0.2089682647
0.3400000000	0.2355404624
0.3450000000	0.2677692117
0.3500000000	0.3099290458
0.3550000000	0.3657125683
0.3600000000	0.4385460656
0.3650000000	0.5400807142
0.3700000000	0.6739550492
0.3750000000	0.8601718563
0.3800000000	1.1294841918
0.3850000000	1.5491107078
0.3900000000	2.2120038438
0.3950000000	3.3379677302
0.4000000000	5.4843891340
0.4050000000	10.2964751113
0.4100000000	23.4264528630
0.4150000000	75.1784463281
0.4200000000	47.9000648071
0.4250000000	-90.1537388510
0.4300000000	25.0678752239
0.4350000000	15.6205345478
0.4400000000	9.5483412735
0.4450000000	6.2798417386
0.4500000000	4.3982970626
0.4550000000	3.2404350377
0.4600000000	2.4863430791
0.4650000000	1.9724833532
0.4700000000	1.6093017441
0.4750000000	1.3466434616
0.4800000000	1.1519049389
0.4850000000	1.0053686479
0.4900000000	0.8935119994
0.4950000000	0.8072573864
0.5000000000	0.7403999435
0.5050000000	0.6883873474
0.5100000000	0.6482881042
0.5150000000	0.6179438994
0.5200000000	0.5950994178
0.5250000000	0.5787379565
0.5300000000	0.5677687072
0.5350000000	0.5613937696
0.5400000000	0.5590248772
0.5450000000	0.5601706320
0.5500000000	0.5646751797
0.5550000000	0.5722614183
0.5600000000	0.5827875422
0.5650000000	0.5961897086
0.5700000000	0.6124096451
0.5750000000	0.6315605866
0.5800000000	0.6538266624
0.5850000000	0.6793278715
0.5900000000	0.7082971298
0.5950000000	0.7410275492
0.6000000000	0.7778924980
0.6050000000	0.8194334053
0.6100000000	0.8661666360
0.6150000000	0.9187978278
0.6200000000	0.9782682975
0.6250000000	1.0454804998
0.6300000000	1.1217684260
0.6350000000	1.2087947090
0.6400000000	1.3082892376
0.6450000000	1.4227491712
0.6500000000	1.5554577509
0.6550000000	1.7098326295
0.6600000000	1.8911268577
0.6650000000	2.1060803013
0.6700000000	2.3626168842
0.6750000000	2.6728196711
0.6800000000	3.0529383783
0.6850000000	3.5242591887
0.6900000000	4.1197509051
0.6950000000	4.8855224519
0.7000000000	5.8948181962
0.7050000000	7.2596085527
0.7100000000	9.1696132439
0.7150000000	11.9625538807
0.7200000000	16.2671609689
0.7250000000	23.4124711077
0.7300000000	36.5276689884
0.7350000000	64.5901837110
0.7400000000	141.5518254573
0.7450000000	469.5888450408
0.7500000000	1454.7680358319
0.7550000000	365.9732905127
0.7600000000	121.2002052749
0.7650000000	58.0714339225
0.7700000000	33.7718058244
0.7750000000	22.0416046378
0.7800000000	15.5113951638
0.7850000000	11.5201654777
0.7900000000	8.9001481523
0.7950000000	7.0931928416
0.8000000000	5.7942472432
0.8050000000	4.8268287150
0.8100000000	4.0891229365
0.8150000000	3.5043364022
0.8200000000	3.0428090687
0.8250000000	2.6711950672
0.8300000000	2.3667866541
0.8350000000	2.1165079006
0.8400000000	1.9067025462
0.8450000000	1.7306493626
0.8500000000	1.5818341266
0.8550000000	1.4534135048
0.8600000000	1.3437852958
0.8650000000	1.2501442908
0.8700000000	1.1674051523
0.8750000000	1.0970234097
0.8800000000	1.0373025766
0.8850000000	0.9837596246
0.8900000000	0.9408080974
0.8950000000	0.9017354461
0.9000000000	0.8707678633
0.9050000000	0.8494391697
0.9100000000	0.8298933207
0.9150000000	0.8180357976
0.9200000000	0.8166053613
0.9250000000	0.8155437854
0.9300000000	0.8035780865
0.9350000000	0.7676798219
0.9400000000	0.5677081387
0.9450000000	-0.3412037353
0.9500000000	-5.1378610623
0.9550000000	-29.4670930192
0.9600000000	6.9531807889
0.9650000000	12.2141553555
0.9700000000	5.4174180749
0.9750000000	2.8440134804
0.9800000000	1.7823866114
0.9850000000	1.2858621849
0.9900000000	0.9997765820
0.9950000000	0.8263014757
1.0000000000	0.7155371572
1.0050000000	0.6453149867
1.0100000000	0.5908756577
1.0150000000	0.5511042553
1.0200000000	0.5243158428
1.0250000000	0.5018310686
1.0300000000	0.4847497843
1.0350000000	0.4718279825
1.0400000000	0.4636127955
1.0450000000	0.4567820217
1.0500000000	0.4522762716
1.0550000000	0.4498287130
1.0600000000	0.4500422287
1.0650000000	0.4512387804
1.0700000000	0.4541025083
1.0750000000	0.4586452868
1.0800000000	0.4653160690
1.0850000000	0.4737816537
1.0900000000	0.4862694341
1.0950000000	0.5010993227
1.1000000000	0.5187688382
1.1050000000	0.5391336324
1.1100000000	0.5628368646
1.1150000000	0.5904115352
1.1200000000	0.6224893942
1.1250000000	0.6598965343
1.1300000000	0.7037391338
1.1350000000	0.7553944053
1.1400000000	0.8164305644
1.1450000000	0.8897111951
1.1500000000	0.9783495163
1.1550000000	1.0868465571
1.1600000000	1.2215524199
1.1650000000	1.3907065464
1.1700000000	1.6097445829
1.1750000000	1.8991568050
1.1800000000	2.2928175591
1.1850000000	2.8464071264
1.1900000000	3.6648635836
1.1950000000	4.9496771164
1.2000000000	7.1289032815
1.2050000000	11.2470599341
1.2100000000	20.3061645467
1.2150000000	44.7927658984
1.2200000000	109.9302316705
1.2250000000	98.7649454405
1.2300000000	39.3963433137
1.2350000000	18.4772066056
1.2400000000	10.5535581627
1.2450000000	6.9154092904
1.2500000000	4.9961213552
1.2550000000	3.8884408571
1.2600000000	3.2143881316
1.2650000000	2.7921499117
1.2700000000	2.5403465304
1.2750000000	2.4062138719
1.2800000000	2.3646323828
1.2850000000	2.4046290951
1.2900000000	2.5253133404
1.2950000000	2.7329602688
1.3000000000	3.0532113034
1.3050000000	3.5189492464
1.3100000000	4.1914844842
1.3150000000	5.1768995123
1.3200000000	6.6659048617
1.3250000000	9.0219908399
1.3300000000	13.0412472820
1.3350000000	20.5693990944
1.3400000000	36.6592607733
1.3450000000	76.6026109812
1.3500000000	162.5687923171
1.3550000000	151.6186484467
1.3600000000	69.9186052052
1.3650000000	34.3535795255
1.3700000000	19.7014038773
1.3750000000	12.6698161671
1.3800000000	8.8358141556
1.3850000000	6.5262524574
1.3900000000	5.0377111828
1.3950000000	4.0221257466
1.4000000000	3.2997198105
1.4050000000	2.7691315513
1.4100000000	2.3689702173
1.4150000000	2.0625617920
1.4200000000	1.8240342380
1.4250000000	1.6465151236
1.4300000000	1.5335236281
1.4350000000	1.4587360760
1.4400000000	1.0025387234
1.4450000000	-0.2610064808
1.4500000000	-2.4599169793
1.4550000000	-0.8221912199
1.4600000000	2.5011547231
1.4650000000	1.4491884073
1.4700000000	-0.9234683591
1.4750000000	-4.6764727237
1.4800000000	-2.0630581804
1.4850000000	3.5356004759
1.4900000000	2.8621771157
1.4950000000	1.8570276200
1.5000000000	1.3074940870
1.5050000000	1.0100018261
1.5100000000	0.8397098459
1.5150000000	0.7353012824
1.5200000000	0.6669168817
1.5250000000	0.6235151719
1.5300000000	0.5893156262
1.5350000000	0.5644759089
1.5400000000	0.5464869925
1.5450000000	0.5338531025
1.5500000000	0.5255409304
1.5550000000	0.5211208189
1.5600000000	0.5214865602
1.5650000000	0.5248420397
1.5700000000	0.5331141194
1.5750000000	0.5478222471
1.5800000000	0.5719908428
1.5850000000	0.6115746312
1.5900000000	0.6791701521
1.5950000000	0.8026234990
1.6000000000	1.0406150731
1.6050000000	1.4312021335
1.6100000000	1.6132378610
1.6150000000	1.2838593984
1.6200000000	0.9784803139
1.6250000000	0.8232275435
1.6300000000	0.7519337848
1.6350000000	0.7224987407
1.6400000000	0.7158530372
1.6450000000	0.7232735358
1.6500000000	0.7405139635
1.6550000000	0.7658274653
1.6600000000	0.7983236248
1.6650000000	0.8378794186
1.6700000000	0.8848208600
1.6750000000	0.9398233266
1.6800000000	1.0038760031
1.6850000000	1.0782995969
1.6900000000	1.1646296800
1.6950000000	1.2637568572
1.7000000000	1.3778646821
1.7050000000	1.5098846777
1.7100000000	1.6698910411
1.7150000000	1.9388492214
1.7200000000	2.3451211389
1.7250000000	2.7843010990
1.7300000000	3.3065129505
1.7350000000	3.8714953476
1.7400000000	4.3930302487
1.7450000000	5.0503076375
1.7500000000	6.0579178390
1.7550000000	7.5692485306
1.7600000000	9.8367467073
1.7650000000	13.3349278601
1.7700000000	18.9701070616
1.7750000000	28.4613871768
1.7800000000	44.6266547655
1.7850000000	68.4479085063
1.7900000000	85.0058293887
1.7950000000	72.3262750452
1.8000000000	48.0887034815
1.8050000000	30.3337660569
1.8100000000	19.9719652860
1.8150000000	13.9001710633
1.8200000000	10.1637924209
1.8250000000	7.7410601769
1.8300000000	6.0952137399
1.8350000000	4.9322554270
1.8400000000	4.0834405567
1.8450000000	3.4462772039
1.8500000000	2.9561056564
1.8550000000	2.5723856089
1.8600000000	2.2666023802
1.8650000000	2.0191563534
1.8700000000	1.8157664530
1.8750000000	1.6454787270
1.8800000000	1.4989699519
1.8850000000	1.3671510334
1.8900000000	1.2387736347
1.8950000000	1.0967984960
1.9000000000	0.9123536187
1.9050000000	0.5912183293
1.9100000000	0.1300683430
1.9150000000	-0.3137937630
1.9200000000	0.2231458204
1.9250000000	2.3698339179
1.9300000000	4.0846721910
1.9350000000	4.1229760302
1.9400000000	3.3096786713
1.9450000000	2.5083664738
1.9500000000	1.9404221276
1.9550000000	1.5647529217
1.9600000000	1.3144115392
1.9650000000	1.1475997301
1.9700000000	1.0248045233
1.9750000000	0.9347607878
1.9800000000	0.8664185102
1.9850000000	0.8118533554
1.9900000000	0.7651666093
1.9950000000	0.7213580468
2.0000000000	0.6795289045
2.0050000000	0.6546565707
2.0100000000	0.6713761602
2.0150000000	0.7149785850
2.0200000000	0.7444401343
2.0250000000	0.7572484985
2.0300000000	0.7670175047
2.0350000000	0.7800463532
2.0400000000	0.7993991045
2.0450000000	0.8263766589
2.0500000000	0.8623016620
2.0550000000	0.9084893538
2.0600000000	0.9650146655
2.0650000000	1.0273641109
2.0700000000	1.0843030923
2.0750000000	1.1270578411
2.0800000000	1.1621500894
2.0850000000	1.2037533959
2.0900000000	1.2608824682
2.0950000000	1.3366610092
2.1000000000	1.4334796128
2.1050000000	1.5498771955
2.1100000000	1.6939637682
2.1150000000	1.8715516702
2.1200000000	2.0910012773
2.1250000000	2.3641753706
2.1300000000	2.7078829201
2.1350000000	3.1461738462
2.1400000000	3.7137832190
2.1450000000	4.4614831196
2.1500000000	5.4632096443
2.1550000000	6.8235375329
2.1600000000	8.6762629302
2.1650000000	11.1347701403
2.1700000000	14.1558313036
2.1750000000	17.1682856418
2.1800000000	19.0600970684
2.1850000000	19.2372896617
2.1900000000	18.5188560575
2.1950000000	18.0091320761
2.2000000000	17.8309857107
2.2050000000	16.9930697604
2.2100000000	15.0711956904
2.2150000000	12.6530682957
2.2200000000	10.4536506000
2.2250000000	8.6714758982
2.2300000000	7.2084133030
2.2350000000	5.9839778068
2.2400000000	4.9786371442
2.2450000000	4.1848043596
2.2500000000	3.5696282553
2.2550000000	3.0935187341
2.2600000000	2.7198288545
2.2650000000	2.4155264852
2.2700000000	2.1493437944
2.2750000000	1.8948568091
2.2800000000	1.6459294443
2.2850000000	1.4329553766
2.2900000000	1.3077026747
2.2950000000	1.2933752798
2.3000000000	1.3500095404
2.3050000000	1.4096907582
2.3100000000	1.4307844917
2.3150000000	1.4146015468
2.3200000000	1.3791443554
2.3250000000	1.3429151579
2.3300000000	1.3157363425
2.3350000000	1.3004755339
2.3400000000	1.2949749851
2.3450000000	1.2929573765
2.3500000000	1.2863369788
2.3550000000	1.2699484268
2.3600000000	1.2452207633
2.3650000000	1.2184545387
2.3700000000	1.1960535439
2.3750000000	1.1815769778
2.3800000000	1.1755960354
2.3850000000	1.1766804579
2.3900000000	1.1830032624
2.3950000000	1.1928138072
2.4000000000	1.2069840236
2.4050000000	1.2292146875
2.4100000000	1.2610796822
2.4150000000	1.3047510657
2.4200000000	1.3617260842
2.4250000000	1.4336102458
2.4300000000	1.5223735617
2.4350000000	1.6305416660
2.4400000000	1.7613650952
2.4450000000	1.9190119923
2.4500000000	2.1087652067
2.4550000000	2.3372898146
2.4600000000	2.6127823187
2.4650000000	2.9451229574
2.4700000000	3.3456823466
2.4750000000	3.8259250575
2.4800000000	4.3979509225
2.4850000000	5.0667863636
2.4900000000	5.8261671026
2.4950000000	6.6483942483
2.5000000000	7.4736646123
2.5050000000	8.2385566075
2.5100000000	8.7400932212
2.5150000000	8.8644148925
2.5200000000	8.5924881628
2.5250000000	8.0086494948
2.5300000000	7.2469073983
2.5350000000	6.4288346634
2.5400000000	5.6346628274
2.5450000000	4.9062592329
2.5500000000	4.2604829486
2.5550000000	3.7002295226
2.5600000000	3.2175071638
2.5650000000	2.8105582873
2.5700000000	2.4707423038
2.5750000000	2.1928382304
2.5800000000	1.9728545550
2.5850000000	1.8060815353
2.5900000000	1.6842840175
2.5950000000	1.5956425225
2.6000000000	1.5278022498
2.6050000000	1.4793954241
2.6100000000	1.4364783879
2.6150000000	1.3984753385
2.6200000000	1.3662782836
2.6250000000	1.3408015708
2.6300000000	1.3226315185
2.6350000000	1.3120488927
2.6400000000	1.3092018531
2.6450000000	1.3142407797
2.6500000000	1.3274746348
2.6550000000	1.3489726320
2.6600000000	1.3792066720
2.6650000000	1.4186255981
2.6700000000	1.4677583188
2.6750000000	1.5272230345
2.6800000000	1.5976805779
2.6850000000	1.6798078877
2.6900000000	1.7742036563
2.6950000000	1.8813261021
2.7000000000	2.0013440214
2.7050000000	2.1483005784
2.7100000000	2.3110232260
2.7150000000	2.4875261018
2.7200000000	2.6744724830
2.7250000000	2.8671172255
2.7300000000	3.0593179466
2.7350000000	3.2435561487
2.7400000000	3.4108878900
2.7450000000	3.5523881862
2.7500000000	3.6548041996
2.7550000000	3.7093635938
2.7600000000	3.7094415298
2.7650000000	3.6535792394
2.7700000000	3.5462261517
2.7750000000	3.3969893076
2.7800000000	3.2185480429
2.7850000000	3.0243882095
2.7900000000	2.8265914624
2.7950000000	2.6348416000
2.8000000000	2.4559905297
2.8050000000	2.2743252003
2.8100000000	2.1179423868
2.8150000000	1.9864918941
2.8200000000	1.8779199450
2.8250000000	1.7894963104
2.8300000000	1.7184672962
2.8350000000	1.6624886685
2.8400000000	1.6190670779
2.8450000000	1.5883538625
2.8500000000	1.5685175528
2.8550000000	1.5588654480
2.8600000000	1.5588868071
2.8650000000	1.5681486386
2.8700000000	1.5862283602
2.8750000000	1.6126434539
2.8800000000	1.6468049631
2.8850000000	1.6879660984
2.8900000000	1.7352352111
2.8950000000	1.7875564426
2.9000000000	1.8437674692
2.9050000000	1.9148496484
2.9100000000	1.9858906281
2.9150000000	2.0543539026
2.9200000000	2.1173269981
2.9250000000	2.1714494408
2.9300000000	2.2135904421
2.9350000000	2.2393599747
2.9400000000	2.2466654871
2.9450000000	2.2344848783
2.9500000000	2.2036536231
2.9550000000	2.1567934449
2.9600000000	2.0978039840
2.9650000000	2.0311750832
2.9700000000	1.9612978074
2.9750000000	1.8919587320
2.9800000000	1.8260858478
2.9850000000	1.7657026262
2.9900000000	1.7120556702
2.9950000000	1.6657497784
3.0000000000	1.6269601513
