# energy (eV)    P(omega), $W$ = 300 nm, $h$ = 300 nm, $s$ = 20 nm, $d/W = 5$, $E_{\rm e}$ = 200 keV
0.2000000000	0.1183375452
0.2050000000	0.1200375619
0.2100000000	0.1216355123
0.2150000000	0.1231345886
0.2200000000	0.1245375428
0.2250000000	0.1258466507
0.2300000000	0.1270635842
0.2350000000	0.1281893880
0.2400000000	0.1292243615
0.2450000000	0.1301678030
0.2500000000	0.1310181531
0.2550000000	0.1317724135
0.2600000000	0.1324262032
0.2650000000	0.1329734139
0.2700000000	0.1334056729
0.2750000000	0.1337120189
0.2800000000	0.1338782439
0.2850000000	0.1338861808
0.2900000000	0.1337124893
0.2950000000	0.1333277389
0.3000000000	0.1326940297
0.3050000000	0.1317634820
0.3100000000	0.1304746278
0.3150000000	0.1375047612
0.3200000000	0.1458552275
0.3250000000	0.1564112110
0.3300000000	0.1705369424
0.3350000000	0.1881255886
0.3400000000	0.2111605918
0.3450000000	0.2391244453
0.3500000000	0.2757212805
0.3550000000	0.3241697864
0.3600000000	0.3874759682
0.3650000000	0.4757730202
0.3700000000	0.5923128530
0.3750000000	0.7545471602
0.3800000000	0.9893521497
0.3850000000	1.3554469298
0.3900000000	1.9342331591
0.3950000000	2.9180895212
0.4000000000	4.7949253281
0.4050000000	9.0055449532
0.4100000000	20.5029676910
0.4150000000	65.8536762229
0.4200000000	41.9176285467
0.4250000000	-79.1267213805
0.4300000000	22.0499192255
0.4350000000	13.7581720980
0.4400000000	8.4230759801
0.4450000000	5.5492513116
0.4500000000	3.8937817310
0.4550000000	2.8744033974
0.4600000000	2.2101108540
0.4650000000	1.7572015220
0.4700000000	1.4369474322
0.4750000000	1.2052582360
0.4800000000	1.0334436289
0.4850000000	0.9041563038
0.4900000000	0.8054905448
0.4950000000	0.7294505367
0.5000000000	0.6705725085
0.5050000000	0.6248429609
0.5100000000	0.5896827715
0.5150000000	0.5631941651
0.5200000000	0.5433817663
0.5250000000	0.5293568234
0.5300000000	0.5201575354
0.5350000000	0.5150824402
0.5400000000	0.5136152568
0.5450000000	0.5153249633
0.5500000000	0.5200831449
0.5550000000	0.5276493636
0.5600000000	0.5379064518
0.5650000000	0.5508049165
0.5700000000	0.5663028630
0.5750000000	0.5845111786
0.5800000000	0.6056101205
0.5850000000	0.6297181226
0.5900000000	0.6570605436
0.5950000000	0.6879168596
0.6000000000	0.7226426293
0.6050000000	0.7617475415
0.6100000000	0.8057225675
0.6150000000	0.8552340482
0.6200000000	0.9111713972
0.6250000000	0.9743861981
0.6300000000	1.0461371187
0.6350000000	1.1279930319
0.6400000000	1.2215870065
0.6450000000	1.3292751193
0.6500000000	1.4541562077
0.6550000000	1.5994567734
0.6600000000	1.7701338966
0.6650000000	1.9725530441
0.6700000000	2.2141977898
0.6750000000	2.5064753274
0.6800000000	2.8647443358
0.6850000000	3.3091098115
0.6900000000	3.8707362951
0.6950000000	4.5931955033
0.7000000000	5.5457419385
0.7050000000	6.8342442889
0.7100000000	8.6381399111
0.7150000000	11.2768881537
0.7200000000	15.3453527145
0.7250000000	22.1012306507
0.7300000000	34.5063958588
0.7350000000	61.0600185311
0.7400000000	133.9130456212
0.7450000000	444.5772290769
0.7500000000	1378.3185268633
0.7550000000	347.0056311744
0.7600000000	115.0075881031
0.7650000000	55.1475324201
0.7700000000	32.0969155049
0.7750000000	20.9653445690
0.7800000000	14.7660399264
0.7850000000	10.9756628203
0.7900000000	8.4865935034
0.7950000000	6.7693224554
0.8000000000	5.5344184930
0.8050000000	4.6143803924
0.8100000000	3.9125612099
0.8150000000	3.3559999009
0.8200000000	2.9166095364
0.8250000000	2.5627185622
0.8300000000	2.2727298317
0.8350000000	2.0342534657
0.8400000000	1.8342941127
0.8450000000	1.6664659797
0.8500000000	1.5245911671
0.8550000000	1.4021250134
0.8600000000	1.2975778923
0.8650000000	1.2082978814
0.8700000000	1.1293879520
0.8750000000	1.0622987746
0.8800000000	1.0054234728
0.8850000000	0.9544262765
0.8900000000	0.9136259986
0.8950000000	0.8765059115
0.9000000000	0.8472050005
0.9050000000	0.8272487827
0.9100000000	0.8089717717
0.9150000000	0.7981586151
0.9200000000	0.7975152437
0.9250000000	0.7971760034
0.9300000000	0.7860274928
0.9350000000	0.7511244666
0.9400000000	0.5541030914
0.9450000000	-0.3436900009
0.9500000000	-5.0864266885
0.9550000000	-29.1595114700
0.9600000000	6.8874390686
0.9650000000	12.1054082387
0.9700000000	5.3728229826
0.9750000000	2.8218769710
0.9800000000	1.7689347190
0.9850000000	1.2763345385
0.9900000000	0.9923650866
0.9950000000	0.8201153054
1.0000000000	0.7101128966
1.0050000000	0.6404038996
1.0100000000	0.5863016204
1.0150000000	0.5467533718
1.0200000000	0.5201272851
1.0250000000	0.4977203934
1.0300000000	0.4806604906
1.0350000000	0.4677085849
1.0400000000	0.4594357124
1.0450000000	0.4524802632
1.0500000000	0.4477996764
1.0550000000	0.4451258901
1.0600000000	0.4450772495
1.0650000000	0.4459331772
1.0700000000	0.4483884076
1.0750000000	0.4524510851
1.0800000000	0.4585765826
1.0850000000	0.4663639784
1.0900000000	0.4779712677
1.0950000000	0.4917747574
1.1000000000	0.5082589643
1.1050000000	0.5272123988
1.1100000000	0.5492540892
1.1150000000	0.5748725334
1.1200000000	0.6046670818
1.1250000000	0.6393220191
1.1300000000	0.6798711699
1.1350000000	0.7275631074
1.1400000000	0.7838429957
1.1450000000	0.8512438654
1.1500000000	0.9326072832
1.1550000000	1.0320002599
1.1600000000	1.1551596908
1.1650000000	1.3095514340
1.1700000000	1.5090493714
1.1750000000	1.7721692848
1.1800000000	2.1294768411
1.1850000000	2.6311847442
1.1900000000	3.3720672962
1.1950000000	4.5337756805
1.2000000000	6.5026249853
1.2050000000	10.2213191018
1.2100000000	18.3997737646
1.2150000000	40.5088260909
1.2200000000	99.3516596367
1.2250000000	89.3489354041
1.2300000000	35.7462295436
1.2350000000	16.8536714534
1.2400000000	9.7012990619
1.2450000000	6.4234966773
1.2500000000	4.7014196139
1.2550000000	3.7155660576
1.2600000000	3.1247594051
1.2650000000	2.7651349706
1.2700000000	2.5642838981
1.2750000000	2.4754906429
1.2800000000	2.4776288230
1.2850000000	2.5629499210
1.2900000000	2.7337704097
1.2950000000	2.9998224472
1.3000000000	3.3916868204
1.3050000000	3.9491727050
1.3100000000	4.7442872484
1.3150000000	5.9010930848
1.3200000000	7.6417103563
1.3250000000	10.3903153982
1.3300000000	15.0727347794
1.3350000000	23.8385889577
1.3400000000	42.5724145693
1.3450000000	89.0897093295
1.3500000000	189.2575434280
1.3550000000	176.6242955652
1.3600000000	81.4808984394
1.3650000000	40.0404443056
1.3700000000	22.9626889951
1.3750000000	14.7656970070
1.3800000000	10.2960874451
1.3850000000	7.6040879791
1.3900000000	5.8699743192
1.3950000000	4.6876095136
1.4000000000	3.8479930256
1.4050000000	3.2331769003
1.4100000000	2.7724317895
1.4150000000	2.4247627839
1.4200000000	2.1633077178
1.4250000000	1.9881725162
1.4300000000	1.9239857920
1.4350000000	1.9595485853
1.4400000000	1.5091370942
1.4450000000	0.1297146903
1.4500000000	-2.1099779476
1.4550000000	-0.5917719546
1.4600000000	2.5543936038
1.4650000000	1.3830656585
1.4700000000	-1.3054620929
1.4750000000	-5.7142732213
1.4800000000	-2.5431913775
1.4850000000	4.1801836067
1.4900000000	3.3884698252
1.4950000000	2.1932695778
1.5000000000	1.5410375317
1.5050000000	1.1898318583
1.5100000000	0.9896544782
1.5150000000	0.8680859209
1.5200000000	0.7895539494
1.5250000000	0.7407590788
1.5300000000	0.7034846551
1.5350000000	0.6777908719
1.5400000000	0.6608653342
1.5450000000	0.6511989562
1.5500000000	0.6478175030
1.5550000000	0.6507454361
1.5600000000	0.6617177099
1.5650000000	0.6798428452
1.5700000000	0.7091924178
1.5750000000	0.7547323579
1.5800000000	0.8257869940
1.5850000000	0.9405066770
1.5900000000	1.1371314097
1.5950000000	1.5002832560
1.6000000000	2.2087082915
1.6050000000	3.3800565711
1.6100000000	3.9225307147
1.6150000000	2.9055666060
1.6200000000	1.9515491261
1.6250000000	1.4479656720
1.6300000000	1.1951213029
1.6350000000	1.0649534441
1.6400000000	0.9989819599
1.6450000000	0.9700266774
1.6500000000	0.9644767807
1.6550000000	0.9759562898
1.6600000000	1.0006601364
1.6650000000	1.0368509110
1.6700000000	1.0838682879
1.6750000000	1.1417165856
1.6800000000	1.2109132962
1.6850000000	1.2922610353
1.6900000000	1.3864698128
1.6950000000	1.4922030883
1.7000000000	1.6076894752
1.7050000000	1.7260565992
1.7100000000	1.8611304518
1.7150000000	2.1967001576
1.7200000000	2.7853982793
1.7250000000	3.3248507434
1.7300000000	3.9038381903
1.7350000000	4.5400142159
1.7400000000	5.1642139644
1.7450000000	5.9659477374
1.7500000000	7.1783878951
1.7550000000	8.9829954005
1.7600000000	11.6830311807
1.7650000000	15.8451631648
1.7700000000	22.5496269992
1.7750000000	33.8449010705
1.7800000000	53.0918131013
1.7850000000	81.4764820937
1.7900000000	101.2533348492
1.7950000000	86.2190969962
1.8000000000	57.3811610829
1.8050000000	36.2374768420
1.8100000000	23.8922039695
1.8150000000	16.6561571881
1.8200000000	12.2029965645
1.8250000000	9.3159983275
1.8300000000	7.3558264750
1.8350000000	5.9722550695
1.8400000000	4.9642574383
1.8450000000	4.2098866977
1.8500000000	3.6322894139
1.8550000000	3.1833763816
1.8600000000	2.8296008645
1.8650000000	2.5481636836
1.8700000000	2.3228492498
1.8750000000	2.1417523287
1.8800000000	1.9954288724
1.8850000000	1.8755331367
1.8900000000	1.7724476475
1.8950000000	1.6718206756
1.9000000000	1.5488701988
1.9050000000	1.3161437378
1.9100000000	0.9958337643
1.9150000000	0.8259957150
1.9200000000	2.0208416067
1.9250000000	5.3238470151
1.9300000000	7.9433649688
1.9350000000	7.8212777579
1.9400000000	6.1517091223
1.9450000000	4.5330031458
1.9500000000	3.3964811262
1.9550000000	2.6517932395
1.9600000000	2.1596782251
1.9650000000	1.8302982903
1.9700000000	1.5925097424
1.9750000000	1.4182016982
1.9800000000	1.2851249948
1.9850000000	1.1771374335
1.9900000000	1.0818872648
1.9950000000	0.9885946360
2.0000000000	0.8956878096
2.0050000000	0.8363348814
2.0100000000	0.8703442919
2.0150000000	0.9640288584
2.0200000000	1.0217984974
2.0250000000	1.0371529349
2.0300000000	1.0406215372
2.0350000000	1.0469235287
2.0400000000	1.0615289631
2.0450000000	1.0858331195
2.0500000000	1.1207417252
2.0550000000	1.1670774221
2.0600000000	1.2248408988
2.0650000000	1.2905319019
2.0700000000	1.3554699227
2.0750000000	1.4131492065
2.0800000000	1.4693086174
2.0850000000	1.5358174759
2.0900000000	1.6206313536
2.0950000000	1.7270995711
2.1000000000	1.8588237076
2.1050000000	2.0146101276
2.1100000000	2.2054076282
2.1150000000	2.4392197834
2.1200000000	2.7272711074
2.1250000000	3.0853059309
2.1300000000	3.5355176384
2.1350000000	4.1095917007
2.1400000000	4.8532808289
2.1450000000	5.8334758943
2.1500000000	7.1476392674
2.1550000000	8.9337066217
2.1600000000	11.3682139340
2.1650000000	14.6006649601
2.1700000000	18.5712549974
2.1750000000	22.5188622961
2.1800000000	24.9580277937
2.1850000000	25.0848806549
2.1900000000	23.9760600406
2.1950000000	23.1132825471
2.2000000000	22.7307449440
2.2050000000	21.6676116083
2.2100000000	19.4103027760
2.2150000000	16.6348551874
2.2200000000	14.1432592142
2.2250000000	12.0841184777
2.2300000000	10.2711546542
2.2350000000	8.6321698130
2.2400000000	7.2244471515
2.2450000000	6.0981105621
2.2500000000	5.2346681302
2.2550000000	4.5860208453
2.2600000000	4.1003258406
2.2650000000	3.7256375101
2.2700000000	3.4058080777
2.2750000000	3.0855253652
2.2800000000	2.7407404849
2.2850000000	2.4126902133
2.2900000000	2.1860267990
2.2950000000	2.1086588037
2.3000000000	2.1364100491
2.3050000000	2.1787364357
2.3100000000	2.1823237648
2.3150000000	2.1476066984
2.3200000000	2.0976641604
2.3250000000	2.0563337339
2.3300000000	2.0358128919
2.3350000000	2.0381984113
2.3400000000	2.0566622232
2.3450000000	2.0757491003
2.3500000000	2.0759976116
2.3550000000	2.0449915483
2.3600000000	1.9862447959
2.3650000000	1.9151120614
2.3700000000	1.8474204125
2.3750000000	1.7926221446
2.3800000000	1.7537868274
2.3850000000	1.7300441144
2.3900000000	1.7194118385
2.3950000000	1.7195945574
2.4000000000	1.7312180034
2.4050000000	1.7581095633
2.4100000000	1.8015527464
2.4150000000	1.8633239711
2.4200000000	1.9444910879
2.4250000000	2.0469217753
2.4300000000	2.1733394150
2.4350000000	2.3273972544
2.4400000000	2.5138094777
2.4450000000	2.7385953034
2.4500000000	3.0093489695
2.4550000000	3.3356157709
2.4600000000	3.7291233567
2.4650000000	4.2039426536
2.4700000000	4.7762115758
2.4750000000	5.4620955267
2.4800000000	6.2782900387
2.4850000000	7.2314048737
2.4900000000	8.3121251454
2.4950000000	9.4817763098
2.5000000000	10.6585657864
2.5050000000	11.7593965931
2.5100000000	12.5030721422
2.5150000000	12.7274099457
2.5200000000	12.3937684763
2.5250000000	11.6051399436
2.5300000000	10.5409392028
2.5350000000	9.3741975652
2.5400000000	8.2271522869
2.5450000000	7.1688649817
2.5500000000	6.2300441007
2.5550000000	5.4176792216
2.5600000000	4.7206006271
2.5650000000	4.1345331078
2.5700000000	3.6456795133
2.5750000000	3.2454028512
2.5800000000	2.9272515556
2.5850000000	2.6842120308
2.5900000000	2.5047484872
2.5950000000	2.3726425018
2.6000000000	2.2710071845
2.6050000000	2.1987766037
2.6100000000	2.1362334493
2.6150000000	2.0823863806
2.6200000000	2.0382993978
2.6250000000	2.0051511276
2.6300000000	1.9837285725
2.6350000000	1.9744333026
2.6400000000	1.9774984747
2.6450000000	1.9931411473
2.6500000000	2.0217860679
2.6550000000	2.0635521804
2.6600000000	2.1190805245
2.6650000000	2.1890186200
2.6700000000	2.2741619012
2.6750000000	2.3754743699
2.6800000000	2.4940244369
2.6850000000	2.6309051138
2.6900000000	2.7870118077
2.6950000000	2.9628640101
2.7000000000	3.1582840246
2.7050000000	3.3954983729
2.7100000000	3.6543879793
2.7150000000	3.9299128604
2.7200000000	4.2147422191
2.7250000000	4.4996660877
2.7300000000	4.7742914192
2.7350000000	5.0276407716
2.7400000000	5.2482964059
2.7450000000	5.4261222121
2.7500000000	5.5453959387
2.7550000000	5.5965988497
2.7600000000	5.5725082955
2.7650000000	5.4722836161
2.7700000000	5.3026424248
2.7750000000	5.0770445848
2.7800000000	4.8130342688
2.7850000000	4.5292235049
2.7900000000	4.2423117306
2.7950000000	3.9656903689
2.8000000000	3.7088284463
2.8050000000	3.4489439428
2.8100000000	3.2265161195
2.8150000000	3.0409483341
2.8200000000	2.8892534852
2.8250000000	2.7674945356
2.8300000000	2.6717055907
2.8350000000	2.5984926299
2.8400000000	2.5442826837
2.8450000000	2.5092002101
2.8500000000	2.4906485946
2.8550000000	2.4876384799
2.8600000000	2.4994311109
2.8650000000	2.5253610116
2.8700000000	2.5646838220
2.8750000000	2.6164552322
2.8800000000	2.6794372542
2.8850000000	2.7520198851
2.8900000000	2.8322678316
2.8950000000	2.9179922116
2.9000000000	3.0068911037
2.9050000000	3.1137241333
2.9100000000	3.2162139676
2.9150000000	3.3111364229
2.9200000000	3.3951074769
2.9250000000	3.4642873276
2.9300000000	3.5151402888
2.9350000000	3.5421684051
2.9400000000	3.5429984644
2.9450000000	3.5166194056
2.9500000000	3.4645533464
2.9550000000	3.3907577664
2.9600000000	3.3009450070
2.9650000000	3.2015876667
2.9700000000	3.0989447788
2.9750000000	2.9983653751
2.9800000000	2.9039480953
2.9850000000	2.8184893584
2.9900000000	2.7436711439
2.9950000000	2.6802830661
3.0000000000	2.6284913107
