# energy (eV)    P(omega), $W$ = 300 nm, $h$ = 300 nm, $s$ = 20 nm, $d/W = 5$, $E_{\rm e}$ = 200 keV
0.2000000000	0.0788953498
0.2050000000	0.0800286043
0.2100000000	0.0810938862
0.2150000000	0.0820933199
0.2200000000	0.0830287368
0.2250000000	0.0839016509
0.2300000000	0.0847131737
0.2350000000	0.0854639993
0.2400000000	0.0861543249
0.2450000000	0.0867836809
0.2500000000	0.0873510256
0.2550000000	0.0878543591
0.2600000000	0.0882907594
0.2650000000	0.0886561540
0.2700000000	0.0889449608
0.2750000000	0.0891498723
0.2800000000	0.0892614172
0.2850000000	0.0892674854
0.2900000000	0.0891525188
0.2950000000	0.0888968992
0.3000000000	0.0884753643
0.3050000000	0.0878559987
0.3100000000	0.0869978293
0.3150000000	0.0916838338
0.3200000000	0.0972499194
0.3250000000	0.1042860629
0.3300000000	0.1137015530
0.3350000000	0.1254252734
0.3400000000	0.1407792731
0.3450000000	0.1594187605
0.3500000000	0.1838127141
0.3550000000	0.2161066606
0.3600000000	0.2583044877
0.3650000000	0.3171606894
0.3700000000	0.3948434436
0.3750000000	0.5029858880
0.3800000000	0.6595037521
0.3850000000	0.9035391267
0.3900000000	1.2893555356
0.3950000000	1.9451947572
0.4000000000	3.1963029682
0.4050000000	6.0031417883
0.4100000000	13.6674871302
0.4150000000	43.8991298618
0.4200000000	27.9428301225
0.4250000000	-52.7481993220
0.4300000000	14.6993903107
0.4350000000	9.1718785327
0.4400000000	5.6153160107
0.4450000000	3.6995101979
0.4500000000	2.5959012282
0.4550000000	1.9163347151
0.4600000000	1.4734829692
0.4650000000	1.1715486744
0.4700000000	0.9580487477
0.4750000000	0.8035908214
0.4800000000	0.6890486539
0.4850000000	0.6028577727
0.4900000000	0.5370812481
0.4950000000	0.4863886638
0.5000000000	0.4471375959
0.5050000000	0.4166524222
0.5100000000	0.3932137809
0.5150000000	0.3755565357
0.5200000000	0.3623504161
0.5250000000	0.3530029731
0.5300000000	0.3468730088
0.5350000000	0.3434929046
0.5400000000	0.3425184915
0.5450000000	0.3436624364
0.5500000000	0.3468391836
0.5550000000	0.3518884630
0.5600000000	0.3587322117
0.5650000000	0.3673374754
0.5700000000	0.3776763772
0.5750000000	0.3898229090
0.5800000000	0.4038973403
0.5850000000	0.4199787047
0.5900000000	0.4382173509
0.5950000000	0.4587997189
0.6000000000	0.4819629986
0.6050000000	0.5080471697
0.6100000000	0.5373797454
0.6150000000	0.5704052060
0.6200000000	0.6077168323
0.6250000000	0.6498826631
0.6300000000	0.6977422859
0.6350000000	0.7523421939
0.6400000000	0.8147717192
0.6450000000	0.8866024553
0.6500000000	0.9699014525
0.6550000000	1.0668209237
0.6600000000	1.1806674233
0.6650000000	1.3156870349
0.6700000000	1.4768715911
0.6750000000	1.6718302080
0.6800000000	1.9108078125
0.6850000000	2.2072153655
0.6900000000	2.5818410562
0.6950000000	3.0637493374
0.7000000000	3.6991363031
0.7050000000	4.5586216298
0.7100000000	5.7618991992
0.7150000000	7.5220647445
0.7200000000	10.2359235412
0.7250000000	14.7424271808
0.7300000000	23.0173069600
0.7350000000	40.7299817657
0.7400000000	89.3269576803
0.7450000000	296.5577344394
0.7500000000	919.4201558698
0.7550000000	231.4745971014
0.7600000000	76.7177219914
0.7650000000	36.7872802504
0.7700000000	21.4110169323
0.7750000000	13.9855130774
0.7800000000	9.8501499204
0.7850000000	7.3217007064
0.7900000000	5.6613112359
0.7950000000	4.5157641123
0.8000000000	3.6919895325
0.8050000000	3.0782527843
0.8100000000	2.6100838188
0.8150000000	2.2388122805
0.8200000000	1.9457025781
0.8250000000	1.7096275536
0.8300000000	1.5161802163
0.8350000000	1.3570958029
0.8400000000	1.2237052965
0.8450000000	1.1117489793
0.8500000000	1.0171057533
0.8550000000	0.9354096875
0.8600000000	0.8656672048
0.8650000000	0.8061093664
0.8700000000	0.7534691917
0.8750000000	0.7087146874
0.8800000000	0.6707739540
0.8850000000	0.6367544012
0.8900000000	0.6095375261
0.8950000000	0.5847756028
0.9000000000	0.5652301660
0.9050000000	0.5519191315
0.9100000000	0.5397282071
0.9150000000	0.5325169243
0.9200000000	0.5320907755
0.9250000000	0.5318673481
0.9300000000	0.5244314756
0.9350000000	0.5011453621
0.9400000000	0.3696880780
0.9450000000	-0.2293506557
0.9500000000	-3.3938902314
0.9550000000	-19.4564695089
0.9600000000	4.5956100522
0.9650000000	8.0773114317
0.9700000000	3.5850178899
0.9750000000	1.8829010800
0.9800000000	1.1803239186
0.9850000000	0.8516352838
0.9900000000	0.6621554672
0.9950000000	0.5472208863
1.0000000000	0.4738211477
1.0050000000	0.4273075612
1.0100000000	0.3912074167
1.0150000000	0.3648185005
1.0200000000	0.3470520907
1.0250000000	0.3321007744
1.0300000000	0.3207172113
1.0350000000	0.3120746637
1.0400000000	0.3065542598
1.0450000000	0.3019127205
1.0500000000	0.2987889894
1.0550000000	0.2970041943
1.0600000000	0.2969709987
1.0650000000	0.2975411494
1.0700000000	0.2991782661
1.0750000000	0.3018877812
1.0800000000	0.3059735772
1.0850000000	0.3111678970
1.0900000000	0.3189104963
1.0950000000	0.3281181277
1.1000000000	0.3391140605
1.1050000000	0.3517569560
1.1100000000	0.3664598124
1.1150000000	0.3835484583
1.1200000000	0.4034227368
1.1250000000	0.4265388091
1.1300000000	0.4535863104
1.1350000000	0.4853980001
1.1400000000	0.5229378397
1.1450000000	0.5678950378
1.1500000000	0.6221649032
1.1550000000	0.6884599488
1.1600000000	0.7706064230
1.1650000000	0.8735838002
1.1700000000	1.0066450997
1.1750000000	1.1821395123
1.1800000000	1.4204528825
1.1850000000	1.7550745681
1.1900000000	2.2492148615
1.1950000000	3.0240258814
1.2000000000	4.3371619056
1.2050000000	6.8173632170
1.2100000000	12.2720221697
1.2150000000	27.0177851204
1.2200000000	66.2635220203
1.2250000000	59.5925177347
1.2300000000	23.8418492587
1.2350000000	11.2413013711
1.2400000000	6.4709750725
1.2450000000	4.2848404714
1.2500000000	3.1363223768
1.2550000000	2.4788466338
1.2600000000	2.0848631099
1.2650000000	1.8450818499
1.2700000000	1.7112129068
1.2750000000	1.6521020881
1.2800000000	1.6536643134
1.2850000000	1.7107390960
1.2900000000	1.8248821624
1.2950000000	2.0025984151
1.3000000000	2.2643097247
1.3050000000	2.6366020430
1.3100000000	3.1675586020
1.3150000000	3.9400216479
1.3200000000	5.1023085290
1.3250000000	6.9376582385
1.3300000000	10.0642738908
1.3350000000	15.9175301597
1.3400000000	28.4267336050
1.3450000000	59.4879180419
1.3500000000	126.3735374181
1.3550000000	117.9381960013
1.3600000000	54.4077125272
1.3650000000	26.7364501303
1.3700000000	15.3330131938
1.3750000000	9.8595805948
1.3800000000	6.8750572719
1.3850000000	5.0775108088
1.3900000000	3.9195816724
1.3950000000	3.1300764528
1.4000000000	2.5694390974
1.4050000000	2.1589118267
1.4100000000	1.8512679665
1.4150000000	1.6191375831
1.4200000000	1.4445910809
1.4250000000	1.3277169983
1.4300000000	1.2850060859
1.4350000000	1.3090244889
1.4400000000	1.0084641584
1.4450000000	0.0876303099
1.4500000000	-1.4070862252
1.4550000000	-0.3942731600
1.4600000000	1.7047645211
1.4650000000	0.9227650346
1.4700000000	-0.8722698983
1.4750000000	-3.8162685830
1.4800000000	-1.6985282993
1.4850000000	2.7913782920
1.4900000000	2.2627069973
1.4950000000	1.4645728201
1.5000000000	1.0290256154
1.5050000000	0.7945010961
1.5100000000	0.6608298785
1.5150000000	0.5796524871
1.5200000000	0.5272142095
1.5250000000	0.4946334326
1.5300000000	0.4697464932
1.5350000000	0.4525931645
1.5400000000	0.4412955481
1.5450000000	0.4348462125
1.5500000000	0.4325947361
1.5550000000	0.4345580256
1.5600000000	0.4418952235
1.5650000000	0.4540123162
1.5700000000	0.4736298303
1.5750000000	0.5040668994
1.5800000000	0.5515555523
1.5850000000	0.6282267612
1.5900000000	0.7596386545
1.5950000000	1.0023496170
1.6000000000	1.4758284612
1.6050000000	2.2587148931
1.6100000000	2.6212996017
1.6150000000	1.9416040221
1.6200000000	1.3039639390
1.6250000000	0.9673726382
1.6300000000	0.7983647185
1.6350000000	0.7113481476
1.6400000000	0.6672366546
1.6450000000	0.6478636151
1.6500000000	0.6441315863
1.6550000000	0.6517788045
1.6600000000	0.6682615351
1.6650000000	0.6924179802
1.6700000000	0.7238061110
1.6750000000	0.7624279542
1.6800000000	0.8086282503
1.6850000000	0.8629419892
1.6900000000	0.9258416397
1.6950000000	0.9964309438
1.7000000000	1.0735202998
1.7050000000	1.1525043243
1.7100000000	1.2426201009
1.7150000000	1.4667404155
1.7200000000	1.8600370706
1.7250000000	2.2202985252
1.7300000000	2.6068620742
1.7350000000	3.0316301221
1.7400000000	3.4484776220
1.7450000000	3.9839117041
1.7500000000	4.7936003317
1.7550000000	5.9987204983
1.7600000000	7.8017942887
1.7650000000	10.5812438155
1.7700000000	15.0584496753
1.7750000000	22.6013824024
1.7800000000	35.4544050395
1.7850000000	54.4096446260
1.7900000000	67.6167085773
1.7950000000	57.5770449872
1.8000000000	38.3192149899
1.8050000000	24.1995220725
1.8100000000	15.9553688887
1.8150000000	11.1231426204
1.8200000000	8.1493238228
1.8250000000	6.2213876301
1.8300000000	4.9123869085
1.8350000000	3.9884415101
1.8400000000	3.3153061090
1.8450000000	2.8115450219
1.8500000000	2.4258358803
1.8550000000	2.1260651352
1.8600000000	1.8898309830
1.8650000000	1.7019090716
1.8700000000	1.5514719478
1.8750000000	1.4305712107
1.8800000000	1.3329028834
1.8850000000	1.2528977458
1.8900000000	1.1841394739
1.8950000000	1.1170537539
1.9000000000	1.0351069470
1.9050000000	0.8799387638
1.9100000000	0.6664122864
1.9150000000	0.5535850599
1.9200000000	1.3524228036
1.9250000000	3.5594145432
1.9300000000	5.3096937372
1.9350000000	5.2278887626
1.9400000000	4.1117884935
1.9450000000	3.0297141068
1.9500000000	2.2699808275
1.9550000000	1.7721845711
1.9600000000	1.4432279809
1.9650000000	1.2230509680
1.9700000000	1.0641037197
1.9750000000	0.9475894246
1.9800000000	0.8586350222
1.9850000000	0.7864496606
1.9900000000	0.7227760357
1.9950000000	0.6604074106
2.0000000000	0.5982933344
2.0050000000	0.5586086626
2.0100000000	0.5813433575
2.0150000000	0.6439744047
2.0200000000	0.6825899481
2.0250000000	0.6928434022
2.0300000000	0.6951457889
2.0350000000	0.6993383624
2.0400000000	0.7090769192
2.0450000000	0.7252927243
2.0500000000	0.7485892991
2.0550000000	0.7795145164
2.0600000000	0.8180687472
2.0650000000	0.8619187060
2.0700000000	0.9052779306
2.0750000000	0.9438106163
2.0800000000	0.9813446978
2.0850000000	1.0257954134
2.0900000000	1.0824693813
2.0950000000	1.1536023984
2.1000000000	1.2416011905
2.1050000000	1.3456699347
2.1100000000	1.4731227346
2.1150000000	1.6293065449
2.1200000000	1.8217195847
2.1250000000	2.0608790909
2.1300000000	2.3616100396
2.1350000000	2.7450778231
2.1400000000	3.2418446038
2.1450000000	3.8965924331
2.1500000000	4.7744247387
2.1550000000	5.9674807532
2.1600000000	7.5936842798
2.1650000000	9.7529025053
2.1700000000	12.4051841435
2.1750000000	15.0421015984
2.1800000000	16.6713655256
2.1850000000	16.7559713017
2.1900000000	16.0150919319
2.1950000000	15.4385273583
2.2000000000	15.1828172454
2.2050000000	14.4727412323
2.2100000000	12.9652951375
2.2150000000	11.1119262247
2.2200000000	9.4481564501
2.2250000000	8.0730887944
2.2300000000	6.8622065855
2.2350000000	5.7673330917
2.2400000000	4.8268557038
2.2450000000	4.0743458667
2.2500000000	3.4974874968
2.2550000000	3.0641564587
2.2600000000	2.7397167219
2.2650000000	2.4894569196
2.2700000000	2.2758498947
2.2750000000	2.0619194524
2.2800000000	1.8315791255
2.2850000000	1.6123761329
2.2900000000	1.4608797698
2.2950000000	1.4091162585
2.3000000000	1.4275878642
2.3050000000	1.4558099356
2.3100000000	1.4581707563
2.3150000000	1.4349584977
2.3200000000	1.4015885625
2.3250000000	1.3739834151
2.3300000000	1.3602898525
2.3350000000	1.3619063886
2.3400000000	1.3742672115
2.3450000000	1.3870399729
2.3500000000	1.3872144080
2.3550000000	1.3664900494
2.3600000000	1.3272159660
2.3650000000	1.2796570799
2.3700000000	1.2343942383
2.3750000000	1.1977470459
2.3800000000	1.1717687800
2.3850000000	1.1558795371
2.3900000000	1.1487560230
2.3950000000	1.1488650878
2.4000000000	1.1566240482
2.4050000000	1.1745882594
2.4100000000	1.2036137464
2.4150000000	1.2448857587
2.4200000000	1.2991165531
2.4250000000	1.3675535122
2.4300000000	1.4520161718
2.4350000000	1.5549453967
2.4400000000	1.6794909280
2.4450000000	1.8296744657
2.4500000000	2.0105699437
2.4550000000	2.2285548191
2.4600000000	2.4914645884
2.4650000000	2.8087002367
2.4700000000	3.1910436659
2.4750000000	3.6492948147
2.4800000000	4.1946072196
2.4850000000	4.8313956914
2.4900000000	5.5534354986
2.4950000000	6.3348878351
2.5000000000	7.1211097068
2.5050000000	7.8565913195
2.5100000000	8.3534740714
2.5150000000	8.5034041238
2.5200000000	8.2805529255
2.5250000000	7.7537109554
2.5300000000	7.0427334615
2.5350000000	6.2632231032
2.5400000000	5.4968564548
2.5450000000	4.7897842119
2.5500000000	4.1625302776
2.5550000000	3.6197675295
2.5600000000	3.1540335815
2.5650000000	2.7624701508
2.5700000000	2.4358576193
2.5750000000	2.1684242962
2.5800000000	1.9558590077
2.5850000000	1.7934756543
2.5900000000	1.6735673391
2.5950000000	1.5852991040
2.6000000000	1.5173894715
2.6050000000	1.4691271998
2.6100000000	1.4273391645
2.6150000000	1.3913629228
2.6200000000	1.3619090832
2.6250000000	1.3397650446
2.6300000000	1.3254566298
2.6350000000	1.3192521420
2.6400000000	1.3213074599
2.6450000000	1.3317675606
2.6500000000	1.3509162923
2.6550000000	1.3788331926
2.6600000000	1.4159466289
2.6650000000	1.4626893801
2.6700000000	1.5195930892
2.6750000000	1.5873019549
2.6800000000	1.6665299857
2.6850000000	1.7580075193
2.6900000000	1.8623327010
2.6950000000	1.9798523012
2.7000000000	2.1104470205
2.7050000000	2.2689695022
2.7100000000	2.4419726840
2.7150000000	2.6260867256
2.7200000000	2.8164107808
2.7250000000	3.0067886504
2.7300000000	3.1902746637
2.7350000000	3.3595342573
2.7400000000	3.5069404941
2.7450000000	3.6257241942
2.7500000000	3.7053845146
2.7550000000	3.7395651227
2.7600000000	3.7234428669
2.7650000000	3.6564574187
2.7700000000	3.5430973546
2.7750000000	3.3923552386
2.7800000000	3.2159521481
2.7850000000	3.0263225176
2.7900000000	2.8346231310
2.7950000000	2.6498007012
2.8000000000	2.4781814396
2.8050000000	2.3045434684
2.8100000000	2.1559328441
2.8150000000	2.0319509868
2.8200000000	1.9306020992
2.8250000000	1.8492557674
2.8300000000	1.7852622785
2.8350000000	1.7363539233
2.8400000000	1.7001435385
2.8450000000	1.6767141721
2.8500000000	1.6643309635
2.8550000000	1.6623328581
2.8600000000	1.6702262155
2.8650000000	1.6875662997
2.8700000000	1.7138555836
2.8750000000	1.7484627912
2.8800000000	1.7905603306
2.8850000000	1.8390718953
2.8900000000	1.8927036740
2.8950000000	1.9499924559
2.9000000000	2.0093995483
2.9050000000	2.0807853510
2.9100000000	2.1492644331
2.9150000000	2.2126830490
2.9200000000	2.2687810130
2.9250000000	2.3149939337
2.9300000000	2.3489605444
2.9350000000	2.3670083333
2.9400000000	2.3675523832
2.9450000000	2.3499176477
2.9500000000	2.3151215177
2.9550000000	2.2658083751
2.9600000000	2.2057949859
2.9650000000	2.1394060364
2.9700000000	2.0708234115
2.9750000000	2.0036209467
2.9800000000	1.9405370245
2.9850000000	1.8834399490
2.9900000000	1.8334534220
2.9950000000	1.7911048921
3.0000000000	1.7565053068
