# energy (eV)    P(omega), $W$ = 400 nm, $h$ = 300 nm, $s$ = 20 nm, $d/W = 5$, $E_{\rm e}$ = 200 keV
0.2000000000	0.0436463695
0.2050000000	0.0440434017
0.2100000000	0.0443229334
0.2150000000	0.0444802569
0.2200000000	0.0445087893
0.2250000000	0.0443995874
0.2300000000	0.0441408835
0.2350000000	0.0437173559
0.2400000000	0.0431092999
0.2450000000	0.0422913205
0.2500000000	0.0412309495
0.2550000000	0.0398864104
0.2600000000	0.0382038677
0.2650000000	0.0399667635
0.2700000000	0.0444448299
0.2750000000	0.0508528076
0.2800000000	0.0597809395
0.2850000000	0.0729433453
0.2900000000	0.0892525045
0.2950000000	0.1126330616
0.3000000000	0.1440632134
0.3050000000	0.1922381342
0.3100000000	0.2593443064
0.3150000000	0.3891917413
0.3200000000	0.5919881994
0.3250000000	0.7308312669
0.3300000000	0.9228960409
0.3350000000	1.1951754194
0.3400000000	1.6225990708
0.3450000000	2.3559209524
0.3500000000	3.8182284360
0.3550000000	7.2032885412
0.3600000000	17.7029690064
0.3650000000	0.0799903444
0.3700000000	8.2046997121
0.3750000000	10.7888638754
0.3800000000	5.0272386387
0.3850000000	2.8318890795
0.3900000000	1.8164062306
0.3950000000	1.2799835663
0.4000000000	0.9693952275
0.4050000000	0.7669133985
0.4100000000	0.6350932602
0.4150000000	0.5481505937
0.4200000000	0.4932010784
0.4250000000	0.4500452065
0.4300000000	0.3990504441
0.4350000000	0.3586910948
0.4400000000	0.3267713528
0.4450000000	0.3013913814
0.4500000000	0.2813540161
0.4550000000	0.2654649312
0.4600000000	0.2530701192
0.4650000000	0.2434778567
0.4700000000	0.2362302125
0.4750000000	0.2310067868
0.4800000000	0.2275279843
0.4850000000	0.2255486453
0.4900000000	0.2249237893
0.4950000000	0.2255418737
0.5000000000	0.2273075925
0.5050000000	0.2301784637
0.5100000000	0.2341196858
0.5150000000	0.2391105758
0.5200000000	0.2451614756
0.5250000000	0.2522808667
0.5300000000	0.2605732689
0.5350000000	0.2700851456
0.5400000000	0.2809001662
0.5450000000	0.2931280558
0.5500000000	0.3069240576
0.5550000000	0.3224579828
0.5600000000	0.3399365205
0.5650000000	0.3596254502
0.5700000000	0.3818916710
0.5750000000	0.4070071126
0.5800000000	0.4354805879
0.5850000000	0.4680073018
0.5900000000	0.5050561776
0.5950000000	0.5476139531
0.6000000000	0.5969842372
0.6050000000	0.6541440540
0.6100000000	0.7213331014
0.6150000000	0.8004086658
0.6200000000	0.8945590181
0.6250000000	1.0083582469
0.6300000000	1.1464711402
0.6350000000	1.3176632387
0.6400000000	1.5316052610
0.6450000000	1.8058461095
0.6500000000	2.1628026541
0.6550000000	2.6404468742
0.6600000000	3.3028936922
0.6650000000	4.2514390210
0.6700000000	5.6877619618
0.6750000000	7.9971507423
0.6800000000	12.0794274618
0.6850000000	20.2707735681
0.6900000000	40.6258144578
0.6950000000	114.0425700616
0.7000000000	553.1153535247
0.7050000000	268.9103207507
0.7100000000	69.0773712090
0.7150000000	29.3755701522
0.7200000000	16.0423668928
0.7250000000	10.0774702246
0.7300000000	6.9117498010
0.7350000000	5.0403359213
0.7400000000	3.8419510562
0.7450000000	3.0285351647
0.7500000000	2.4523268993
0.7550000000	2.0290036517
0.7600000000	1.7099355721
0.7650000000	1.4625029525
0.7700000000	1.2671803365
0.7750000000	1.1103728914
0.7800000000	0.9829459169
0.7850000000	0.8780228905
0.7900000000	0.7901217924
0.7950000000	0.7167082470
0.8000000000	0.6542869590
0.8050000000	0.6008079277
0.8100000000	0.5552812340
0.8150000000	0.5153790119
0.8200000000	0.4806398703
0.8250000000	0.4514876335
0.8300000000	0.4259697669
0.8350000000	0.4037856768
0.8400000000	0.3861192774
0.8450000000	0.3707043794
0.8500000000	0.3576341485
0.8550000000	0.3493723904
0.8600000000	0.3427545074
0.8650000000	0.3380159381
0.8700000000	0.3396648066
0.8750000000	0.3402419706
0.8800000000	0.3384101706
0.8850000000	0.3236958463
0.8900000000	0.2512004760
0.8950000000	-0.1121092952
0.9000000000	-2.0602719492
0.9050000000	-13.5375360100
0.9100000000	2.5778134281
0.9150000000	6.1063508989
0.9200000000	2.5348635607
0.9250000000	1.3187095978
0.9300000000	0.8049722917
0.9350000000	0.5595256405
0.9400000000	0.4271177188
0.9450000000	0.3537248017
0.9500000000	0.3016041167
0.9550000000	0.2667151449
0.9600000000	0.2451378324
0.9650000000	0.2273341837
0.9700000000	0.2146302099
0.9750000000	0.2059722674
0.9800000000	0.2007012804
0.9850000000	0.1997349105
0.9900000000	0.2016569963
0.9950000000	0.2094181354
1.0000000000	0.2279731774
1.0050000000	0.2712936907
1.0100000000	0.3848249921
1.0150000000	0.7739317991
1.0200000000	1.4862824277
1.0250000000	0.6756817311
1.0300000000	0.3460667615
1.0350000000	0.2478262770
1.0400000000	0.2091936290
1.0450000000	0.1910696242
1.0500000000	0.1819839763
1.0550000000	0.1772165978
1.0600000000	0.1750756636
1.0650000000	0.1746732197
1.0700000000	0.1755169703
1.0750000000	0.1774335427
1.0800000000	0.1800791836
1.0850000000	0.1836801456
1.0900000000	0.1888840395
1.0950000000	0.1949510168
1.1000000000	0.2019405144
1.1050000000	0.2098651073
1.1100000000	0.2188501968
1.1150000000	0.2290153322
1.1200000000	0.2405023993
1.1250000000	0.2534288158
1.1300000000	0.2681294585
1.1350000000	0.2848300567
1.1400000000	0.3038686482
1.1450000000	0.3256750866
1.1500000000	0.3505838789
1.1550000000	0.3796365582
1.1600000000	0.4134917352
1.1650000000	0.4530120619
1.1700000000	0.4983764220
1.1750000000	0.5443841045
1.1800000000	0.5879237195
1.1850000000	0.8171290797
1.1900000000	1.0140609382
1.1950000000	1.3901257517
1.2000000000	1.8932577372
1.2050000000	1.6607060544
1.2100000000	1.5893190355
1.2150000000	1.7693652145
1.2200000000	2.1161755418
1.2250000000	2.6487672745
1.2300000000	3.4586112406
1.2350000000	4.7396999764
1.2400000000	6.8976943516
1.2450000000	10.9611834166
1.2500000000	19.7615546899
1.2550000000	42.7775602918
1.2600000000	103.3256261925
1.2650000000	104.6645568382
1.2700000000	43.5383171365
1.2750000000	20.0973266901
1.2800000000	11.1302584249
1.2850000000	6.9993684957
1.2900000000	4.7974279401
1.2950000000	3.4964367458
1.3000000000	2.6677628511
1.3050000000	2.1098193370
1.3100000000	1.7163792261
1.3150000000	1.4320991871
1.3200000000	1.2213619568
1.3250000000	1.0627744282
1.3300000000	0.9433425188
1.3350000000	0.8550928897
1.3400000000	0.7938859549
1.3450000000	0.7585864107
1.3500000000	0.7543431929
1.3550000000	0.7928783903
1.3600000000	0.9040183687
1.3650000000	1.1636631839
1.3700000000	1.7837323023
1.3750000000	3.3265163221
1.3800000000	5.4336254874
1.3850000000	3.7958021075
1.3900000000	1.9343686281
1.3950000000	1.1223877562
1.4000000000	0.7350521028
1.4050000000	0.4969946041
1.4100000000	0.2815311977
1.4150000000	-0.0398985847
1.4200000000	-0.7595312093
1.4250000000	-2.6663670008
1.4300000000	-3.5851033290
1.4350000000	1.6424807390
1.4400000000	2.1009853754
1.4450000000	1.2596314477
1.4500000000	0.7837933107
1.4550000000	0.5403028986
1.4600000000	0.3989818728
1.4650000000	0.2872953412
1.4700000000	0.1678309950
1.4750000000	0.1972272575
1.4800000000	0.2891426491
1.4850000000	0.2625511370
1.4900000000	0.2324830178
1.4950000000	0.2130347071
1.5000000000	0.2002587320
1.5050000000	0.1918112517
1.5100000000	0.1860645584
1.5150000000	0.1829289384
1.5200000000	0.1806174949
1.5250000000	0.1797835473
1.5300000000	0.1805038850
1.5350000000	0.1831082322
1.5400000000	0.1884192139
1.5450000000	0.1982637647
1.5500000000	0.2167481540
1.5550000000	0.2520573403
1.5600000000	0.3050588489
1.5650000000	0.3135529837
1.5700000000	0.2657244800
1.5750000000	0.2321622661
1.5800000000	0.2176841785
1.5850000000	0.2131289137
1.5900000000	0.2137198244
1.5950000000	0.2173825324
1.6000000000	0.2232132893
1.6050000000	0.2309009710
1.6100000000	0.2402132580
1.6150000000	0.2511155595
1.6200000000	0.2637815463
1.6250000000	0.2783610383
1.6300000000	0.2951002662
1.6350000000	0.3143166713
1.6400000000	0.3364161744
1.6450000000	0.3619172161
1.6500000000	0.3914705610
1.6550000000	0.4259009121
1.6600000000	0.4662767557
1.6650000000	0.5139772802
1.6700000000	0.5703434852
1.6750000000	0.6386662086
1.6800000000	0.7218542780
1.6850000000	0.8244838144
1.6900000000	0.9530520556
1.6950000000	1.1170934599
1.7000000000	1.3309610530
1.7050000000	1.6259971571
1.7100000000	2.0376250510
1.7150000000	2.6359350236
1.7200000000	3.5477798783
1.7250000000	4.9943859188
1.7300000000	7.2174239784
1.7350000000	10.0703031995
1.7400000000	13.6767917673
1.7450000000	20.0055795980
1.7500000000	28.2209309586
1.7550000000	28.6749045210
1.7600000000	20.1172755777
1.7650000000	12.5311870391
1.7700000000	8.0329837480
1.7750000000	5.4751393013
1.7800000000	3.9635623897
1.7850000000	3.0337553188
1.7900000000	2.4571338168
1.7950000000	2.1271980435
1.8000000000	1.9940272683
1.8050000000	1.9518652695
1.8100000000	1.7365986311
1.8150000000	1.3456151681
1.8200000000	1.0332463667
1.8250000000	0.8721899063
1.8300000000	0.7593315715
1.8350000000	0.6590318656
1.8400000000	0.5772449318
1.8450000000	0.5123418367
1.8500000000	0.4600367042
1.8550000000	0.4168266716
1.8600000000	0.3770792552
1.8650000000	0.3434762909
1.8700000000	0.3095151430
1.8750000000	0.2605574325
1.8800000000	0.1489605306
1.8850000000	-0.0956245456
1.8900000000	-0.4246060546
1.8950000000	-0.4810524932
1.9000000000	0.0514771809
1.9050000000	0.5479841882
1.9100000000	0.6059201046
1.9150000000	0.5118900546
1.9200000000	0.4197319116
1.9250000000	0.3543361281
1.9300000000	0.3147321033
1.9350000000	0.2844959903
1.9400000000	0.2643819269
1.9450000000	0.2510672229
1.9500000000	0.2417604998
1.9550000000	0.2339732025
1.9600000000	0.2272495350
1.9650000000	0.2224751897
1.9700000000	0.2199255857
1.9750000000	0.2194310802
1.9800000000	0.2208541736
1.9850000000	0.2242361824
1.9900000000	0.2297991362
1.9950000000	0.2378207822
2.0000000000	0.2480925117
2.0050000000	0.2597452185
2.0100000000	0.2681040507
2.0150000000	0.2736791486
2.0200000000	0.2804016851
2.0250000000	0.2907782913
2.0300000000	0.3055466237
2.0350000000	0.3250759601
2.0400000000	0.3500368425
2.0450000000	0.3815927340
2.0500000000	0.4214145857
2.0550000000	0.4713593145
2.0600000000	0.5323275224
2.0650000000	0.6033606629
2.0700000000	0.6855257521
2.0750000000	0.7879885411
2.0800000000	0.9258815833
2.0850000000	1.1139592369
2.0900000000	1.3608022189
2.0950000000	1.6486759820
2.1000000000	1.9052521543
2.1050000000	2.0295801613
2.1100000000	1.9705399013
2.1150000000	1.8346788502
2.1200000000	1.7386516989
2.1250000000	1.7345568921
2.1300000000	1.8378511323
2.1350000000	2.0607853639
2.1400000000	2.4278975327
2.1450000000	2.9825989233
2.1500000000	3.7856795824
2.1550000000	4.8828022795
2.1600000000	6.1854913960
2.1650000000	7.2803787410
2.1700000000	7.5390847648
2.1750000000	6.7486995988
2.1800000000	5.4484026245
2.1850000000	4.2036984945
2.1900000000	3.2305243570
2.1950000000	2.5274354776
2.2000000000	2.0341609977
2.2050000000	1.6938432446
2.2100000000	1.4575938399
2.2150000000	1.2763883198
2.2200000000	1.1140159737
2.2250000000	0.9595729059
2.2300000000	0.8197350582
2.2350000000	0.6996648541
2.2400000000	0.5979696743
2.2450000000	0.5101598230
2.2500000000	0.4317663537
2.2550000000	0.3602898870
2.2600000000	0.2888120947
2.2650000000	0.2368137147
2.2700000000	0.2085681051
2.2750000000	0.2156785210
2.2800000000	0.2567028202
2.2850000000	0.3089426102
2.2900000000	0.3471809986
2.2950000000	0.3641286520
2.3000000000	0.3660669004
2.3050000000	0.3602187632
2.3100000000	0.3525153016
2.3150000000	0.3456895293
2.3200000000	0.3408219678
2.3250000000	0.3385060374
2.3300000000	0.3392218807
2.3350000000	0.3433672298
2.3400000000	0.3512818496
2.3450000000	0.3633095169
2.3500000000	0.3798144360
2.3550000000	0.4013426004
2.3600000000	0.4275405149
2.3650000000	0.4585711662
2.3700000000	0.4943482545
2.3750000000	0.5352601545
2.3800000000	0.5827836885
2.3850000000	0.6386712380
2.3900000000	0.7033103031
2.3950000000	0.7738226245
2.4000000000	0.8428088855
2.4050000000	0.9022598551
2.4100000000	0.9352121879
2.4150000000	0.9383621950
2.4200000000	0.9197660759
2.4250000000	0.8931617733
2.4300000000	0.8707420202
2.4350000000	0.8598669223
2.4400000000	0.8634735285
2.4450000000	0.8820364374
2.4500000000	0.9156150274
2.4550000000	0.9649575392
2.4600000000	1.0332272832
2.4650000000	1.1236670212
2.4700000000	1.2398878027
2.4750000000	1.3841449909
2.4800000000	1.5553004017
2.4850000000	1.7460512869
2.4900000000	1.9396927782
2.4950000000	2.1085040390
2.5000000000	2.2177965061
2.5050000000	2.2318471662
2.5100000000	2.1363921046
2.5150000000	1.9574859449
2.5200000000	1.7367593769
2.5250000000	1.5107860838
2.5300000000	1.3018599663
2.5350000000	1.1193481742
2.5400000000	0.9646297478
2.5450000000	0.8354091820
2.5500000000	0.7283599388
2.5550000000	0.6404931592
2.5600000000	0.5670215476
2.5650000000	0.5120369251
2.5700000000	0.4725289048
2.5750000000	0.4470885189
2.5800000000	0.4328919705
2.5850000000	0.4260772363
2.5900000000	0.4230198934
2.5950000000	0.4214630422
2.6000000000	0.4206789844
2.6050000000	0.4240333625
2.6100000000	0.4293480513
2.6150000000	0.4374368215
2.6200000000	0.4487320218
2.6250000000	0.4632602887
2.6300000000	0.4806115372
2.6350000000	0.4999154052
2.6400000000	0.5198420314
2.6450000000	0.5387050469
2.6500000000	0.5547184960
2.6550000000	0.5664180818
2.6600000000	0.5731236240
2.6650000000	0.5752346412
2.6700000000	0.5741458330
2.6750000000	0.5718959165
2.6800000000	0.5704603811
2.6850000000	0.5716849233
2.6900000000	0.5768548960
2.6950000000	0.5867602221
2.7000000000	0.6017796463
2.7050000000	0.6242619459
2.7100000000	0.6531957899
2.7150000000	0.6881134053
2.7200000000	0.7280478572
2.7250000000	0.7713577476
2.7300000000	0.8155650930
2.7350000000	0.8573290578
2.7400000000	0.8926757618
2.7450000000	0.9175703660
2.7500000000	0.9287607371
2.7550000000	0.9246083880
2.7600000000	0.9055319494
2.7650000000	0.8738560385
2.7700000000	0.8331378367
2.7750000000	0.7873184593
2.7800000000	0.7400117542
2.7850000000	0.6941087063
2.7900000000	0.6512853514
2.7950000000	0.6133757448
2.8000000000	0.5807593096
2.8050000000	0.5505504125
2.8100000000	0.5267327635
2.8150000000	0.5083686903
2.8200000000	0.4944395585
2.8250000000	0.4840106342
2.8300000000	0.4762874718
2.8350000000	0.4706111063
2.8400000000	0.4664247256
2.8450000000	0.4632555893
2.8500000000	0.4607240895
2.8550000000	0.4585782204
2.8600000000	0.4567326663
2.8650000000	0.4552814031
2.8700000000	0.4544738255
2.8750000000	0.4546529397
2.8800000000	0.4561794118
2.8850000000	0.4593630581
2.8900000000	0.4644151411
2.8950000000	0.4714195976
2.9000000000	0.4803188832
2.9050000000	0.4936304013
2.9100000000	0.5082280645
2.9150000000	0.5231372448
2.9200000000	0.5371262218
2.9250000000	0.5488718296
2.9300000000	0.5571455452
2.9350000000	0.5610288157
2.9400000000	0.5600908141
2.9450000000	0.5544707069
2.9500000000	0.5448256203
2.9550000000	0.5321631563
2.9600000000	0.5176290286
2.9650000000	0.5023084858
2.9700000000	0.4870940240
2.9750000000	0.4726275186
2.9800000000	0.4593041472
2.9850000000	0.4473150632
2.9900000000	0.4367047212
2.9950000000	0.4274265977
3.0000000000	0.4193886674
