# energy (eV)    P(omega), $W$ = 300 nm, $h$ = 300 nm, $s$ = 20 nm, $d/W = 5$, $E_{\rm e}$ = 200 keV
0.2000000000	0.0550105657
0.2050000000	0.0558482647
0.2100000000	0.0566267298
0.2150000000	0.0573479393
0.2200000000	0.0580136738
0.2250000000	0.0586254034
0.2300000000	0.0591843023
0.2350000000	0.0596911880
0.2400000000	0.0601464765
0.2450000000	0.0605501098
0.2500000000	0.0609014987
0.2550000000	0.0611993752
0.2600000000	0.0614417664
0.2650000000	0.0616257396
0.2700000000	0.0617473093
0.2750000000	0.0618011378
0.2800000000	0.0617802648
0.2850000000	0.0616757066
0.2900000000	0.0614759730
0.2950000000	0.0611664232
0.3000000000	0.0607283717
0.3050000000	0.0601380052
0.3100000000	0.0593648235
0.3150000000	0.0628610227
0.3200000000	0.0670130040
0.3250000000	0.0722680828
0.3300000000	0.0793123167
0.3350000000	0.0880779833
0.3400000000	0.0995563496
0.3450000000	0.1134661193
0.3500000000	0.1316548664
0.3550000000	0.1557093552
0.3600000000	0.1870928713
0.3650000000	0.2308222671
0.3700000000	0.2884242490
0.3750000000	0.3684868558
0.3800000000	0.4841923493
0.3850000000	0.6643657989
0.3900000000	0.9487733457
0.3950000000	1.4314970974
0.4000000000	2.3510826095
0.4050000000	4.4113147335
0.4100000000	10.0286148260
0.4150000000	32.1530509277
0.4200000000	20.4997785101
0.4250000000	-38.4791049000
0.4300000000	10.6790627427
0.4350000000	6.6460491334
0.4400000000	4.0566857984
0.4450000000	2.6639105393
0.4500000000	1.8626820118
0.4550000000	1.3699287561
0.4600000000	1.0491937656
0.4650000000	0.8307510394
0.4700000000	0.6764317264
0.4750000000	0.5648624862
0.4800000000	0.4821598228
0.4850000000	0.4199278855
0.4900000000	0.3724120279
0.4950000000	0.3357508260
0.5000000000	0.3073044085
0.5050000000	0.2851379602
0.5100000000	0.2680034920
0.5150000000	0.2549813020
0.5200000000	0.2451161735
0.5250000000	0.2379724489
0.5300000000	0.2330869588
0.5350000000	0.2301194962
0.5400000000	0.2288189053
0.5450000000	0.2289754766
0.5500000000	0.2305186825
0.5550000000	0.2333289903
0.5600000000	0.2373426957
0.5650000000	0.2425293497
0.5700000000	0.2488595849
0.5750000000	0.2563766547
0.5800000000	0.2651505548
0.5850000000	0.2752260330
0.5900000000	0.2866928990
0.5950000000	0.2996661538
0.6000000000	0.3142917462
0.6050000000	0.3307850261
0.6100000000	0.3493487151
0.6150000000	0.3702620323
0.6200000000	0.3938977360
0.6250000000	0.4206128104
0.6300000000	0.4509360024
0.6350000000	0.4855261103
0.6400000000	0.5250677404
0.6450000000	0.5705507597
0.6500000000	0.6232756253
0.6550000000	0.6845953073
0.6600000000	0.7565911609
0.6650000000	0.8419309339
0.6700000000	0.9437503954
0.6750000000	1.0668338655
0.6800000000	1.2176120745
0.6850000000	1.4045059699
0.6900000000	1.6405573706
0.6950000000	1.9440021883
0.7000000000	2.3438031795
0.7050000000	2.8842252870
0.7100000000	3.6402558148
0.7150000000	4.7453620803
0.7200000000	6.4479496486
0.7250000000	9.2730121849
0.7300000000	14.4563650366
0.7350000000	25.5426567409
0.7400000000	55.9341451952
0.7450000000	185.4130840427
0.7500000000	573.9536894926
0.7550000000	144.2753918278
0.7600000000	47.7424507828
0.7650000000	22.8571329963
0.7700000000	13.2822079739
0.7750000000	8.6619435019
0.7800000000	6.0908542436
0.7850000000	4.5200203271
0.7900000000	3.4892496498
0.7950000000	2.7786209338
0.8000000000	2.2679661360
0.8050000000	1.8877834930
0.8100000000	1.5979788919
0.8150000000	1.3683460563
0.8200000000	1.1871727912
0.8250000000	1.0413414590
0.8300000000	0.9219243939
0.8350000000	0.8237659352
0.8400000000	0.7415046126
0.8450000000	0.6724925285
0.8500000000	0.6141646932
0.8550000000	0.5638451380
0.8600000000	0.5208910213
0.8650000000	0.4841958441
0.8700000000	0.4517817883
0.8750000000	0.4241961667
0.8800000000	0.4007709879
0.8850000000	0.3797710526
0.8900000000	0.3628843780
0.8950000000	0.3475238185
0.9000000000	0.3353042104
0.9050000000	0.3268031370
0.9100000000	0.3190069395
0.9150000000	0.3141710496
0.9200000000	0.3133335587
0.9250000000	0.3126548405
0.9300000000	0.3078566892
0.9350000000	0.2940302185
0.9400000000	0.2180592856
0.9450000000	-0.1262895073
0.9500000000	-1.9415559091
0.9550000000	-11.1416987939
0.9600000000	2.6277994477
0.9650000000	4.6122645152
0.9700000000	2.0447411913
0.9750000000	1.0733046790
0.9800000000	0.6727623535
0.9850000000	0.4854777353
0.9900000000	0.3776197718
0.9950000000	0.3122368192
1.0000000000	0.2704950706
1.0050000000	0.2440194891
1.0100000000	0.2235144723
1.0150000000	0.2085404778
1.0200000000	0.1984482889
1.0250000000	0.1899963308
1.0300000000	0.1835865311
1.0350000000	0.1787511464
1.0400000000	0.1756869347
1.0450000000	0.1731630476
1.0500000000	0.1715259330
1.0550000000	0.1706758490
1.0600000000	0.1708330674
1.0650000000	0.1713836877
1.0700000000	0.1725796880
1.0750000000	0.1744263180
1.0800000000	0.1770899264
1.0850000000	0.1804677428
1.0900000000	0.1854183584
1.0950000000	0.1912900512
1.1000000000	0.1982736459
1.1050000000	0.2063360686
1.1100000000	0.2157245936
1.1150000000	0.2266525088
1.1200000000	0.2393647456
1.1250000000	0.2542156225
1.1300000000	0.2716396844
1.1350000000	0.2921915167
1.1400000000	0.3164938085
1.1450000000	0.3457202505
1.1500000000	0.3811167462
1.1550000000	0.4244983178
1.1600000000	0.4784258266
1.1650000000	0.5462132548
1.1700000000	0.6341096632
1.1750000000	0.7503745450
1.1800000000	0.9086748989
1.1850000000	1.1314846897
1.1900000000	1.4611105005
1.1950000000	1.9788885675
1.2000000000	2.8574603046
1.2050000000	4.5180520770
1.2100000000	8.1710210789
1.2150000000	18.0423102820
1.2200000000	44.2857088810
1.2250000000	39.7499916475
1.2300000000	15.8198939215
1.2350000000	7.3913249417
1.2400000000	4.1982700876
1.2450000000	2.7305406188
1.2500000000	1.9542367956
1.2550000000	1.5038756306
1.2600000000	1.2271355306
1.2650000000	1.0506819291
1.2700000000	0.9413981901
1.2750000000	0.8777590065
1.2800000000	0.8491794075
1.2850000000	0.8505919110
1.2900000000	0.8806972101
1.2950000000	0.9408215437
1.3000000000	1.0390402571
1.3050000000	1.1855713581
1.3100000000	1.4001113810
1.3150000000	1.7169046559
1.3200000000	2.1977685476
1.3250000000	2.9603413236
1.3300000000	4.2631017929
1.3350000000	6.7045131520
1.3400000000	11.9229342672
1.3450000000	24.8747598418
1.3500000000	52.7341490212
1.3550000000	49.1489467549
1.3600000000	22.6565800858
1.3650000000	11.1308709734
1.3700000000	6.3839793624
1.3750000000	4.1063605821
1.3800000000	2.8645578472
1.3850000000	2.1164233343
1.3900000000	1.6340268077
1.3950000000	1.3047316757
1.4000000000	1.0701593068
1.4050000000	0.8974355517
1.4100000000	0.7664728929
1.4150000000	0.6649687871
1.4200000000	0.5837684107
1.4250000000	0.5187311047
1.4300000000	0.4661173901
1.4350000000	0.4126215587
1.4400000000	0.2432524682
1.4450000000	-0.1953620705
1.4500000000	-0.9977520425
1.4550000000	-0.3623646848
1.4600000000	0.9103674125
1.4650000000	0.5539819115
1.4700000000	-0.2364017351
1.4750000000	-1.4446609966
1.4800000000	-0.6296977682
1.4850000000	1.1340617279
1.4900000000	0.9174668683
1.4950000000	0.5977928808
1.5000000000	0.4228161086
1.5050000000	0.3277630068
1.5100000000	0.2732699458
1.5150000000	0.2397291699
1.5200000000	0.2176670156
1.5250000000	0.2036244793
1.5300000000	0.1924681669
1.5350000000	0.1843030298
1.5400000000	0.1783234702
1.5450000000	0.1740374006
1.5500000000	0.1711221371
1.5550000000	0.1694145742
1.5600000000	0.1691892221
1.5650000000	0.1698166096
1.5700000000	0.1718706155
1.5750000000	0.1757422564
1.5800000000	0.1822247111
1.5850000000	0.1928801173
1.5900000000	0.2110030423
1.5950000000	0.2438331907
1.6000000000	0.3064573617
1.6050000000	0.4078393068
1.6100000000	0.4528108456
1.6150000000	0.3657013744
1.6200000000	0.2869365859
1.6250000000	0.2478724030
1.6300000000	0.2307933555
1.6350000000	0.2246798982
1.6400000000	0.2245974898
1.6450000000	0.2283140880
1.6500000000	0.2347757539
1.6550000000	0.2435420477
1.6600000000	0.2544421850
1.6650000000	0.2674957476
1.6700000000	0.2828508528
1.6750000000	0.3007653710
1.6800000000	0.3216054181
1.6850000000	0.3458583926
1.6900000000	0.3741496526
1.6950000000	0.4070734655
1.7000000000	0.4458839695
1.7050000000	0.4928677103
1.7100000000	0.5507360641
1.7150000000	0.6329001813
1.7200000000	0.7467578770
1.7250000000	0.8847740724
1.7300000000	1.0581053891
1.7350000000	1.2433300945
1.7400000000	1.4068558097
1.7450000000	1.6102040774
1.7500000000	1.9256863503
1.7550000000	2.4019244514
1.7600000000	3.1180460241
1.7650000000	4.2235065013
1.7700000000	6.0042216350
1.7750000000	9.0024987431
1.7800000000	14.1065078864
1.7850000000	21.6216433536
1.7900000000	26.8324742396
1.7950000000	22.8121285392
1.8000000000	15.1542562694
1.8050000000	9.5498266379
1.8100000000	6.2808144906
1.8150000000	4.3659552611
1.8200000000	3.1878927787
1.8250000000	2.4240764084
1.8300000000	1.9051166660
1.8350000000	1.5382527950
1.8400000000	1.2702556757
1.8450000000	1.0687692577
1.8500000000	0.9133738682
1.8550000000	0.7912587968
1.8600000000	0.6933650792
1.8650000000	0.6134326165
1.8700000000	0.5468398664
1.8750000000	0.4899633604
1.8800000000	0.4396170006
1.8850000000	0.3925695694
1.8900000000	0.3447147246
1.8950000000	0.2898085777
1.9000000000	0.2173430291
1.9050000000	0.0940017420
1.9100000000	-0.0850983052
1.9150000000	-0.2779850291
1.9200000000	-0.1917211436
1.9250000000	0.3718401346
1.9300000000	0.8245142294
1.9350000000	0.8612496321
1.9400000000	0.7099447055
1.9450000000	0.5570657563
1.9500000000	0.4471419121
1.9550000000	0.3733908043
1.9600000000	0.3236319289
1.9650000000	0.2906889066
1.9700000000	0.2657421054
1.9750000000	0.2474331858
1.9800000000	0.2336428221
1.9850000000	0.2228738797
1.9900000000	0.2140594977
1.9950000000	0.2063354627
2.0000000000	0.1994933473
2.0050000000	0.1960068876
2.0100000000	0.1992049763
2.0150000000	0.2068515547
2.0200000000	0.2128703456
2.0250000000	0.2169736461
2.0300000000	0.2213544633
2.0350000000	0.2269588912
2.0400000000	0.2345088305
2.0450000000	0.2444741801
2.0500000000	0.2574198165
2.0550000000	0.2739186161
2.0600000000	0.2939978666
2.0650000000	0.3157500242
2.0700000000	0.3344428055
2.0750000000	0.3463176991
2.0800000000	0.3539405982
2.0850000000	0.3630422833
2.0900000000	0.3771704634
2.0950000000	0.3974094981
2.1000000000	0.4243426695
2.1050000000	0.4573539181
2.1100000000	0.4987464328
2.1150000000	0.5501191171
2.1200000000	0.6138449644
2.1250000000	0.6933351781
2.1300000000	0.7934536213
2.1350000000	0.9211765250
2.1400000000	1.0865877769
2.1450000000	1.3044268247
2.1500000000	1.5961500979
2.1550000000	1.9920844147
2.1600000000	2.5310044052
2.1650000000	3.2457005202
2.1700000000	4.1237519826
2.1750000000	5.0000554475
2.1800000000	5.5541138113
2.1850000000	5.6164864766
2.1900000000	5.4257518071
2.1950000000	5.2991229483
2.2000000000	5.2626551551
2.2050000000	5.0095560475
2.2100000000	4.4112067318
2.2150000000	3.6511716054
2.2200000000	2.9557634792
2.2250000000	2.3987824004
2.2300000000	1.9603910543
2.2350000000	1.6121889656
2.2400000000	1.3359287346
2.2450000000	1.1203021932
2.2500000000	0.9521392095
2.2550000000	0.8194607061
2.2600000000	0.7122675134
2.2650000000	0.6222400804
2.2700000000	0.5423880306
2.2750000000	0.4678049805
2.2800000000	0.3988378397
2.2850000000	0.3441448551
2.2900000000	0.3165512595
2.2950000000	0.3204776360
2.3000000000	0.3432725794
2.3050000000	0.3655496895
2.3100000000	0.3751651820
2.3150000000	0.3727355453
2.3200000000	0.3635776794
2.3250000000	0.3531194333
2.3300000000	0.3442939985
2.3350000000	0.3381179784
2.3400000000	0.3343807767
2.3450000000	0.3319941825
2.3500000000	0.3295053360
2.3550000000	0.3259851624
2.3600000000	0.3216913333
2.3650000000	0.3177507380
2.3700000000	0.3152805403
2.3750000000	0.3148266848
2.3800000000	0.3162965899
2.3850000000	0.3191301876
2.3900000000	0.3227035431
2.3950000000	0.3264830266
2.4000000000	0.3307871413
2.4050000000	0.3368024508
2.4100000000	0.3451321363
2.4150000000	0.3565410432
2.4200000000	0.3715493792
2.4250000000	0.3906304166
2.4300000000	0.4143150200
2.4350000000	0.4432686088
2.4400000000	0.4783473389
2.4450000000	0.5206557686
2.4500000000	0.5715996713
2.4550000000	0.6329575388
2.4600000000	0.7069255179
2.4650000000	0.7961608853
2.4700000000	0.9037416891
2.4750000000	1.0328011209
2.4800000000	1.1867282147
2.4850000000	1.3670468992
2.4900000000	1.5722647114
2.4950000000	1.7949589763
2.5000000000	2.0186396187
2.5050000000	2.2253742193
2.5100000000	2.3589304903
2.5150000000	2.3881704192
2.5200000000	2.3090676685
2.5250000000	2.1463718248
2.5300000000	1.9377363669
2.5350000000	1.7161888456
2.5400000000	1.5026487912
2.5450000000	1.3074555754
2.5500000000	1.1344727627
2.5550000000	0.9841912494
2.5600000000	0.8544306750
2.5650000000	0.7449065707
2.5700000000	0.6534335864
2.5750000000	0.5787181695
2.5800000000	0.5197500711
2.5850000000	0.4752777647
2.5900000000	0.4430419356
2.5950000000	0.4197718456
2.6000000000	0.4020465368
2.6050000000	0.3894045884
2.6100000000	0.3780533457
2.6150000000	0.3678532101
2.6200000000	0.3590590694
2.6250000000	0.3519215205
2.6300000000	0.3465918793
2.6350000000	0.3431357517
2.6400000000	0.3415875574
2.6450000000	0.3419861787
2.6500000000	0.3444151065
2.6550000000	0.3488883912
2.6600000000	0.3555233916
2.6650000000	0.3644237834
2.6700000000	0.3757117236
2.6750000000	0.3895321479
2.6800000000	0.4060463653
2.6850000000	0.4254305504
2.6900000000	0.4478549462
2.6950000000	0.4734738568
2.7000000000	0.5023941669
2.7050000000	0.5380982491
2.7100000000	0.5781152937
2.7150000000	0.6221705389
2.7200000000	0.6696701690
2.7250000000	0.7196250030
2.7300000000	0.7705802873
2.7350000000	0.8205541000
2.7400000000	0.8670052016
2.7450000000	0.9072509305
2.7500000000	0.9373970121
2.7550000000	0.9547685535
2.7600000000	0.9573565798
2.7650000000	0.9446443331
2.7700000000	0.9177896139
2.7750000000	0.8793902180
2.7800000000	0.8328914736
2.7850000000	0.7819586225
2.7900000000	0.7298659928
2.7950000000	0.6792350804
2.8000000000	0.6319149723
2.8050000000	0.5837975860
2.8100000000	0.5422607515
2.8150000000	0.5072097191
2.8200000000	0.4780935386
2.8250000000	0.4541799607
2.8300000000	0.4347344303
2.8350000000	0.4191309117
2.8400000000	0.4067038880
2.8450000000	0.3974981863
2.8500000000	0.3910260817
2.8550000000	0.3871058469
2.8600000000	0.3856089189
2.8650000000	0.3864337286
2.8700000000	0.3894898562
2.8750000000	0.3946847738
2.8800000000	0.4019114341
2.8850000000	0.4110367376
2.8900000000	0.4218968099
2.8950000000	0.4342915053
2.9000000000	0.4479834308
2.9050000000	0.4659692475
2.9100000000	0.4844348606
2.9150000000	0.5026681649
2.9200000000	0.5198128482
2.9250000000	0.5348760392
2.9300000000	0.5469245757
2.9350000000	0.5547161190
2.9400000000	0.5576283821
2.9450000000	0.5553427116
2.9500000000	0.5480466912
2.9550000000	0.5364059380
2.9600000000	0.5214342453
2.9650000000	0.5043077146
2.9700000000	0.4861804411
2.9750000000	0.4680537877
2.9800000000	0.4507043619
2.9850000000	0.4346739303
2.9900000000	0.4202958865
2.9950000000	0.4077400545
3.0000000000	0.3970611888
