# energy (eV)    P(omega), $W$ = 300 nm, $h$ = 300 nm, $s$ = 20 nm, $d/W = 5$, $E_{\rm e}$ = 200 keV
0.2000000000	0.1082087576
0.2050000000	0.1098566443
0.2100000000	0.1113880377
0.2150000000	0.1128068268
0.2200000000	0.1141165130
0.2250000000	0.1153199870
0.2300000000	0.1164195567
0.2350000000	0.1174168294
0.2400000000	0.1183126224
0.2450000000	0.1191068203
0.2500000000	0.1197982633
0.2550000000	0.1203844562
0.2600000000	0.1208615177
0.2650000000	0.1212236783
0.2700000000	0.1214630972
0.2750000000	0.1215692747
0.2800000000	0.1215285184
0.2850000000	0.1213231567
0.2900000000	0.1209305869
0.2950000000	0.1203220094
0.3000000000	0.1194606676
0.3050000000	0.1182997190
0.3100000000	0.1167791667
0.3150000000	0.1236564892
0.3200000000	0.1318237872
0.3250000000	0.1421609476
0.3300000000	0.1560174806
0.3350000000	0.1732602068
0.3400000000	0.1958390138
0.3450000000	0.2232006256
0.3500000000	0.2589793532
0.3550000000	0.3062965102
0.3600000000	0.3680305710
0.3650000000	0.4540501284
0.3700000000	0.5673585225
0.3750000000	0.7248493031
0.3800000000	0.9524534170
0.3850000000	1.3068728560
0.3900000000	1.8663323119
0.3950000000	2.8159021613
0.4000000000	4.6248292120
0.4050000000	8.6775414907
0.4100000000	19.7274321920
0.4150000000	63.2488787598
0.4200000000	40.3255179427
0.4250000000	-75.6933601116
0.4300000000	21.0071671581
0.4350000000	13.0737179352
0.4400000000	7.9800982166
0.4450000000	5.2403206457
0.4500000000	3.6641931815
0.4550000000	2.6948779143
0.4600000000	2.0639460235
0.4650000000	1.6342372389
0.4700000000	1.3306682580
0.4750000000	1.1111948425
0.4800000000	0.9485062257
0.4850000000	0.8260866050
0.4900000000	0.7326157741
0.4950000000	0.6604977617
0.5000000000	0.6045395568
0.5050000000	0.5609350995
0.5100000000	0.5272294153
0.5150000000	0.5016133263
0.5200000000	0.4822077645
0.5250000000	0.4681557405
0.5300000000	0.4585461293
0.5350000000	0.4527096988
0.5400000000	0.4501523906
0.5450000000	0.4504616789
0.5500000000	0.4534988406
0.5550000000	0.4590287458
0.5600000000	0.4669260865
0.5650000000	0.4771309828
0.5700000000	0.4895856771
0.5750000000	0.5043752773
0.5800000000	0.5216375045
0.5850000000	0.5414604096
0.5900000000	0.5640206919
0.5950000000	0.5895446162
0.6000000000	0.6183193300
0.6050000000	0.6507685168
0.6100000000	0.6872910205
0.6150000000	0.7284361870
0.6200000000	0.7749373872
0.6250000000	0.8274969612
0.6300000000	0.8871551806
0.6350000000	0.9552081752
0.6400000000	1.0330028583
0.6450000000	1.1224867142
0.6500000000	1.2262182879
0.6550000000	1.3468594472
0.6600000000	1.4885050962
0.6650000000	1.6564038167
0.6700000000	1.8567250118
0.6750000000	2.0988814552
0.6800000000	2.3955251137
0.6850000000	2.7632235930
0.6900000000	3.2276356892
0.6950000000	3.8246392347
0.7000000000	4.6112163382
0.7050000000	5.6744550779
0.7100000000	7.1618876156
0.7150000000	9.3361014088
0.7200000000	12.6858170232
0.7250000000	18.2439229735
0.7300000000	28.4418007131
0.7350000000	50.2533048489
0.7400000000	110.0464750213
0.7450000000	364.7876032662
0.7500000000	1129.2162065158
0.7550000000	283.8527223177
0.7600000000	93.9303739897
0.7650000000	44.9700771777
0.7700000000	26.1320020420
0.7750000000	17.0419104452
0.7800000000	11.9834441112
0.7850000000	8.8929192097
0.7900000000	6.8649362146
0.7950000000	5.4668135868
0.8000000000	4.4621279480
0.8050000000	3.7141387538
0.8100000000	3.1439632486
0.8150000000	2.6921722376
0.8200000000	2.3357227988
0.8250000000	2.0488067163
0.8300000000	1.8138592983
0.8350000000	1.6207370905
0.8400000000	1.4588916836
0.8450000000	1.3231134979
0.8500000000	1.2083560592
0.8550000000	1.1093545113
0.8600000000	1.0248441327
0.8650000000	0.9526479507
0.8700000000	0.8888746637
0.8750000000	0.8346011437
0.8800000000	0.7885131503
0.8850000000	0.7471967069
0.8900000000	0.7139730143
0.8950000000	0.6837518752
0.9000000000	0.6597105098
0.9050000000	0.6429853376
0.9100000000	0.6276469685
0.9150000000	0.6181330081
0.9200000000	0.6164859387
0.9250000000	0.6151512290
0.9300000000	0.6057113826
0.9350000000	0.5785079508
0.9400000000	0.4290331257
0.9450000000	-0.2484849693
0.9500000000	-3.8200896696
0.9550000000	-21.9217348955
0.9600000000	5.1703001059
0.9650000000	9.0748262957
0.9700000000	4.0231169913
0.9750000000	2.1117735975
0.9800000000	1.3236887993
0.9850000000	0.9551979199
0.9900000000	0.7429824643
0.9950000000	0.6143385156
1.0000000000	0.5322097295
1.0050000000	0.4801178710
1.0100000000	0.4397733410
1.0150000000	0.4103113573
1.0200000000	0.3904545795
1.0250000000	0.3738250084
1.0300000000	0.3612134751
1.0350000000	0.3516996739
1.0400000000	0.3456707495
1.0450000000	0.3407049191
1.0500000000	0.3374838483
1.0550000000	0.3358112897
1.0600000000	0.3361206540
1.0650000000	0.3372040306
1.0700000000	0.3395572128
1.0750000000	0.3431905328
1.0800000000	0.3484312930
1.0850000000	0.3550772599
1.0900000000	0.3648177411
1.0950000000	0.3763704650
1.1000000000	0.3901108893
1.1050000000	0.4059739216
1.1100000000	0.4244460857
1.1150000000	0.4459470312
1.1200000000	0.4709586747
1.1250000000	0.5001781210
1.1300000000	0.5344603523
1.1350000000	0.5748965283
1.1400000000	0.6227118075
1.1450000000	0.6802154184
1.1500000000	0.7498587109
1.1550000000	0.8352127667
1.1600000000	0.9413161209
1.1650000000	1.0746891028
1.1700000000	1.2476268020
1.1750000000	1.4763799264
1.1800000000	1.7878385292
1.1850000000	2.2262204926
1.1900000000	2.8747648270
1.1950000000	3.8935019849
1.2000000000	5.6221071921
1.2050000000	8.8893515267
1.2100000000	16.0766371908
1.2150000000	35.4985974364
1.2200000000	87.1330610057
1.2250000000	78.2090365934
1.2300000000	31.1260650800
1.2350000000	14.5426646046
1.2400000000	8.2602541404
1.2450000000	5.3724620249
1.2500000000	3.8450670826
1.2550000000	2.9589731055
1.2600000000	2.4144837787
1.2650000000	2.0673116570
1.2700000000	1.8522992557
1.2750000000	1.7270951961
1.2800000000	1.6708736654
1.2850000000	1.6736648338
1.2900000000	1.7329130779
1.2950000000	1.8512287272
1.3000000000	2.0445022335
1.3050000000	2.3328402899
1.3100000000	2.7550005161
1.3150000000	3.3783667121
1.3200000000	4.3245787498
1.3250000000	5.8251170495
1.3300000000	8.3885978034
1.3350000000	13.1926347364
1.3400000000	23.4610751558
1.3450000000	48.9467652962
1.3500000000	103.7665250479
1.3550000000	96.7118502103
1.3600000000	44.5820369425
1.3650000000	21.9025515585
1.3700000000	12.5619484488
1.3750000000	8.0802080553
1.3800000000	5.6366745074
1.3850000000	4.1645470766
1.3900000000	3.2153205418
1.3950000000	2.5673563328
1.4000000000	2.1057810744
1.4050000000	1.7659072789
1.4100000000	1.5082081554
1.4150000000	1.3084756840
1.4200000000	1.1486956654
1.4250000000	1.0207205449
1.4300000000	0.9171925648
1.4350000000	0.8119308628
1.4400000000	0.4786703417
1.4450000000	-0.3843712562
1.4500000000	-1.9631925663
1.4550000000	-0.7129843292
1.4600000000	1.7912892237
1.4650000000	1.0900303143
1.4700000000	-0.4652173786
1.4750000000	-2.8427500452
1.4800000000	-1.2391040016
1.4850000000	2.2315288556
1.4900000000	1.8053276583
1.4950000000	1.1762917752
1.5000000000	0.8319825770
1.5050000000	0.6449424586
1.5100000000	0.5377138935
1.5150000000	0.4717138903
1.5200000000	0.4283006992
1.5250000000	0.4006678526
1.5300000000	0.3787141618
1.5350000000	0.3626460747
1.5400000000	0.3508783205
1.5450000000	0.3424425040
1.5500000000	0.3367035355
1.5550000000	0.3333402675
1.5600000000	0.3328925680
1.5650000000	0.3341213382
1.5700000000	0.3381550618
1.5750000000	0.3457618638
1.5800000000	0.3585001758
1.5850000000	0.3794393761
1.5900000000	0.4150529112
1.5950000000	0.4795659612
1.6000000000	0.6026222294
1.6050000000	0.8018340823
1.6100000000	0.8902051448
1.6150000000	0.7190545079
1.6200000000	0.5643038191
1.6250000000	0.4875626975
1.6300000000	0.4540219694
1.6350000000	0.4420296284
1.6400000000	0.4418901356
1.6450000000	0.4492181099
1.6500000000	0.4619430311
1.6550000000	0.4791999937
1.6600000000	0.5006539713
1.6650000000	0.5263441129
1.6700000000	0.5565622672
1.6750000000	0.5918161342
1.6800000000	0.6328263272
1.6850000000	0.6805521259
1.6900000000	0.7362242754
1.6950000000	0.8010125261
1.7000000000	0.8773853915
1.7050000000	0.9698437931
1.7100000000	1.0837232487
1.7150000000	1.2454022584
1.7200000000	1.4694335802
1.7250000000	1.7410121240
1.7300000000	2.0820888762
1.7350000000	2.4465693269
1.7400000000	2.7683498536
1.7450000000	3.1684909042
1.7500000000	3.7892850642
1.7550000000	4.7264087438
1.7600000000	6.1355664691
1.7650000000	8.3108512997
1.7700000000	11.8148781124
1.7750000000	17.7147802738
1.7800000000	27.7582682867
1.7850000000	42.5462894151
1.7900000000	52.7999889206
1.7950000000	44.8889059577
1.8000000000	29.8200193635
1.8050000000	18.7918197831
1.8100000000	12.3591713902
1.8150000000	8.5911772429
1.8200000000	6.2730259038
1.8250000000	4.7700136701
1.8300000000	3.7488217710
1.8350000000	3.0269188644
1.8400000000	2.4995624783
1.8450000000	2.1030835180
1.8500000000	1.7973007793
1.8550000000	1.5570057834
1.8600000000	1.3643725428
1.8650000000	1.2070826046
1.8700000000	1.0760417689
1.8750000000	0.9641197802
1.8800000000	0.8650469701
1.8850000000	0.7724648011
1.8900000000	0.6782925594
1.8950000000	0.5702431073
1.9000000000	0.4276379351
1.9050000000	0.1849155704
1.9100000000	-0.1675353195
1.9150000000	-0.5471281444
1.9200000000	-0.3774344293
1.9250000000	0.7314557537
1.9300000000	1.6221622943
1.9350000000	1.6944669460
1.9400000000	1.3968013284
1.9450000000	1.0960342993
1.9500000000	0.8797732934
1.9550000000	0.7346763049
1.9600000000	0.6367806592
1.9650000000	0.5719687536
1.9700000000	0.5228878328
1.9750000000	0.4868664238
1.9800000000	0.4597350371
1.9850000000	0.4385482890
1.9900000000	0.4212073336
1.9950000000	0.4060120459
2.0000000000	0.3925523452
2.0050000000	0.3856946485
2.0100000000	0.3919867377
2.0150000000	0.4070299535
2.0200000000	0.4188716674
2.0250000000	0.4269460713
2.0300000000	0.4355672636
2.0350000000	0.4465962932
2.0400000000	0.4614535213
2.0450000000	0.4810635800
2.0500000000	0.5065380315
2.0550000000	0.5390041904
2.0600000000	0.5785157755
2.0650000000	0.6213192316
2.0700000000	0.6581025832
2.0750000000	0.6814699888
2.0800000000	0.6964704978
2.0850000000	0.7143809037
2.0900000000	0.7421822528
2.0950000000	0.7820083240
2.1000000000	0.8350068914
2.1050000000	0.8999657261
2.1100000000	0.9814169679
2.1150000000	1.0825068989
2.1200000000	1.2079050400
2.1250000000	1.3643238665
2.1300000000	1.5613343470
2.1350000000	1.8126641471
2.1400000000	2.1381560324
2.1450000000	2.5668138996
2.1500000000	3.1408591073
2.1550000000	3.9199679212
2.1600000000	4.9804400278
2.1650000000	6.3867997268
2.1700000000	8.1146063684
2.1750000000	9.8389755529
2.1800000000	10.9292443440
2.1850000000	11.0519938387
2.1900000000	10.6766914512
2.1950000000	10.4275374966
2.2000000000	10.3557956596
2.2050000000	9.8577534094
2.2100000000	8.6803129152
2.2150000000	7.1846971099
2.2200000000	5.8162524493
2.2250000000	4.7202117985
2.2300000000	3.8575451696
2.2350000000	3.1723637313
2.2400000000	2.6287530817
2.2450000000	2.2044557699
2.2500000000	1.8735537184
2.2550000000	1.6124743928
2.2600000000	1.4015419979
2.2650000000	1.2243862612
2.2700000000	1.0672529340
2.2750000000	0.9204890482
2.2800000000	0.7847785736
2.2850000000	0.6771589377
2.2900000000	0.6228660510
2.2950000000	0.6305972885
2.3000000000	0.6754568341
2.3050000000	0.7192966055
2.3100000000	0.7382201316
2.3150000000	0.7334406070
2.3200000000	0.7154205859
2.3250000000	0.6948409535
2.3300000000	0.6774736646
2.3350000000	0.6653193016
2.3400000000	0.6579637363
2.3450000000	0.6532660914
2.3500000000	0.6483680460
2.3550000000	0.6414417706
2.3600000000	0.6329942168
2.3650000000	0.6252424252
2.3700000000	0.6203842770
2.3750000000	0.6194937752
2.3800000000	0.6223885684
2.3850000000	0.6279664572
2.3900000000	0.6349996030
2.3950000000	0.6424379105
2.4000000000	0.6509081536
2.4050000000	0.6627453163
2.4100000000	0.6791363876
2.4150000000	0.7015865026
2.4200000000	0.7311193902
2.4250000000	0.7686663681
2.4300000000	0.8152720600
2.4350000000	0.8722458522
2.4400000000	0.9412724489
2.4450000000	1.0245253544
2.4500000000	1.1247707893
2.4550000000	1.2455083978
2.4600000000	1.3910596762
2.4650000000	1.5666535324
2.4700000000	1.7783468103
2.4750000000	2.0323049822
2.4800000000	2.3351969567
2.4850000000	2.6900215817
2.4900000000	3.0938421919
2.4950000000	3.5320528257
2.5000000000	3.9722046361
2.5050000000	4.3790103242
2.5100000000	4.6418170545
2.5150000000	4.6993522254
2.5200000000	4.5436936170
2.5250000000	4.2235438579
2.5300000000	3.8129970843
2.5350000000	3.3770438294
2.5400000000	2.9568483053
2.5450000000	2.5727552716
2.5500000000	2.2323668762
2.5550000000	1.9366489303
2.5600000000	1.6813109931
2.5650000000	1.4657934559
2.5700000000	1.2857961961
2.5750000000	1.1387739150
2.5800000000	1.0227387407
2.5850000000	0.9352279856
2.5900000000	0.8717958331
2.5950000000	0.8260061744
2.6000000000	0.7911272929
2.6050000000	0.7662511533
2.6100000000	0.7439146738
2.6150000000	0.7238431800
2.6200000000	0.7065382586
2.6250000000	0.6924930494
2.6300000000	0.6820053228
2.6350000000	0.6752041852
2.6400000000	0.6721573623
2.6450000000	0.6729413580
2.6500000000	0.6777204459
2.6550000000	0.6865222481
2.6600000000	0.6995776802
2.6650000000	0.7170907231
2.6700000000	0.7393017336
2.6750000000	0.7664958954
2.6800000000	0.7989906168
2.6850000000	0.8371325715
2.6900000000	0.8812567789
2.6950000000	0.9316669024
2.7000000000	0.9885733255
2.7050000000	1.0588283712
2.7100000000	1.1375704354
2.7150000000	1.2242590495
2.7200000000	1.3177259417
2.7250000000	1.4160248621
2.7300000000	1.5162932911
2.7350000000	1.6146313037
2.7400000000	1.7060382102
2.7450000000	1.7852349031
2.7500000000	1.8445580663
2.7550000000	1.8787438516
2.7600000000	1.8838388305
2.7650000000	1.8588260176
2.7700000000	1.8059836781
2.7750000000	1.7304236861
2.7800000000	1.6389257163
2.7850000000	1.5387021723
2.7900000000	1.4361962555
2.7950000000	1.3365665129
2.8000000000	1.2434515478
2.8050000000	1.1487676357
2.8100000000	1.0670326272
2.8150000000	0.9980600857
2.8200000000	0.9407658646
2.8250000000	0.8937090655
2.8300000000	0.8554442551
2.8350000000	0.8247395395
2.8400000000	0.8002853327
2.8450000000	0.7821698562
2.8500000000	0.7694333745
2.8550000000	0.7617182966
2.8600000000	0.7587716450
2.8650000000	0.7603935632
2.8700000000	0.7664061469
2.8750000000	0.7766273442
2.8800000000	0.7908465543
2.8850000000	0.8088019113
2.8900000000	0.8301710066
2.8950000000	0.8545600605
2.9000000000	0.8815019886
2.9050000000	0.9168936385
2.9100000000	0.9532298106
2.9150000000	0.9891092123
2.9200000000	1.0228467438
2.9250000000	1.0524885675
2.9300000000	1.0761983424
2.9350000000	1.0915313520
2.9400000000	1.0972630097
2.9450000000	1.0927662294
2.9500000000	1.0784101047
2.9550000000	1.0555043921
2.9600000000	1.0260440008
2.9650000000	0.9923432307
2.9700000000	0.9566730860
2.9750000000	0.9210040304
2.9800000000	0.8868642671
2.9850000000	0.8553198814
2.9900000000	0.8270269284
2.9950000000	0.8023195961
3.0000000000	0.7813056371
