# energy (eV)    P(omega), $W$ = 300 nm, $h$ = 300 nm, $s$ = 20 nm, $d/W = 5$, $E_{\rm e}$ = 200 keV
0.2000000000	0.2097218494
0.2050000000	0.2129337419
0.2100000000	0.2159258699
0.2150000000	0.2187053137
0.2200000000	0.2212785674
0.2250000000	0.2236508679
0.2300000000	0.2258263495
0.2350000000	0.2278078234
0.2400000000	0.2295966529
0.2450000000	0.2311923296
0.2500000000	0.2325923967
0.2550000000	0.2337917725
0.2600000000	0.2347827809
0.2650000000	0.2355540696
0.2700000000	0.2360902653
0.2750000000	0.2363709345
0.2800000000	0.2363693419
0.2850000000	0.2360511484
0.2900000000	0.2353724339
0.2950000000	0.2342772639
0.3000000000	0.2326943291
0.3050000000	0.2305326724
0.3100000000	0.2276758325
0.3150000000	0.2410192089
0.3200000000	0.2568645286
0.3250000000	0.2769135920
0.3300000000	0.3037787312
0.3350000000	0.3372110601
0.3400000000	0.3809886060
0.3450000000	0.4340535996
0.3500000000	0.5034503461
0.3550000000	0.5952396305
0.3600000000	0.7150231717
0.3650000000	0.8819527121
0.3700000000	1.1019039741
0.3750000000	1.4076925675
0.3800000000	1.8497140257
0.3850000000	2.5381514927
0.3900000000	3.6251241376
0.3950000000	5.4704713725
0.4000000000	8.9866059757
0.4050000000	16.8658137747
0.4100000000	38.3537906196
0.4150000000	123.0068217498
0.4200000000	78.4261198331
0.4250000000	-147.3084992687
0.4300000000	40.9026453017
0.4350000000	25.4652406902
0.4400000000	15.5501845474
0.4450000000	10.2158064540
0.4500000000	7.1464278973
0.4550000000	5.2583989977
0.4600000000	4.0292512068
0.4650000000	3.1919812012
0.4700000000	2.6004033793
0.4750000000	2.1726618202
0.4800000000	1.8555688603
0.4850000000	1.6169612017
0.4900000000	1.4347886188
0.4950000000	1.2942532114
0.5000000000	1.1852395139
0.5050000000	1.1003303345
0.5100000000	1.0347444453
0.5150000000	0.9849589990
0.5200000000	0.9473084646
0.5250000000	0.9201261839
0.5300000000	0.9016368716
0.5350000000	0.8905366513
0.5400000000	0.8858641165
0.5450000000	0.8868166277
0.5500000000	0.8931274663
0.5550000000	0.9043408625
0.5600000000	0.9202153178
0.5650000000	0.9406385334
0.5700000000	0.9655013335
0.5750000000	0.9949761195
0.5800000000	1.0293383869
0.5850000000	1.0687672251
0.5900000000	1.1136150195
0.5950000000	1.1643340911
0.6000000000	1.2214955926
0.6050000000	1.2859416635
0.6100000000	1.3584659081
0.6150000000	1.4401602197
0.6200000000	1.5324819132
0.6250000000	1.6368260992
0.6300000000	1.7552603916
0.6350000000	1.8903586905
0.6400000000	2.0447977912
0.6450000000	2.2224460365
0.6500000000	2.4283860142
0.6550000000	2.6679073007
0.6600000000	2.9491440248
0.6650000000	3.2825243141
0.6700000000	3.6803072042
0.6750000000	4.1611971317
0.6800000000	4.7503297788
0.6850000000	5.4806279795
0.6900000000	6.4030857832
0.6950000000	7.5890026128
0.7000000000	9.1516241340
0.7050000000	11.2640427804
0.7100000000	14.2194935224
0.7150000000	18.5399153382
0.7200000000	25.1967938939
0.7250000000	36.2433789820
0.7300000000	56.5132913619
0.7350000000	99.8711673294
0.7400000000	218.7422527058
0.7450000000	725.2318687187
0.7500000000	2245.3987432038
0.7550000000	564.5315499372
0.7600000000	186.8439418478
0.7650000000	89.4692149192
0.7700000000	51.9994723674
0.7750000000	33.9172236175
0.7800000000	23.8538526808
0.7850000000	17.7049792461
0.7900000000	13.6697637356
0.7950000000	10.8875820502
0.8000000000	8.8881495606
0.8050000000	7.3994397467
0.8100000000	6.2645361216
0.8150000000	5.3651802636
0.8200000000	4.6555612550
0.8250000000	4.0843240479
0.8300000000	3.6165219501
0.8350000000	3.2319698950
0.8400000000	2.9096778386
0.8450000000	2.6392794213
0.8500000000	2.4107337548
0.8550000000	2.2135541208
0.8600000000	2.0452328694
0.8650000000	1.9014390087
0.8700000000	1.7744136052
0.8750000000	1.6663181100
0.8800000000	1.5745366412
0.8850000000	1.4922553645
0.8900000000	1.4261191218
0.8950000000	1.3659592500
0.9000000000	1.3181331163
0.9050000000	1.2849208093
0.9100000000	1.2544670622
0.9150000000	1.2356530443
0.9200000000	1.2325712921
0.9250000000	1.2301053668
0.9300000000	1.2113945739
0.9350000000	1.1570703700
0.9400000000	0.8577349257
0.9450000000	-0.4998463775
0.9500000000	-7.6581272109
0.9550000000	-43.9435283418
0.9600000000	10.3644131434
0.9650000000	18.1949856294
0.9700000000	8.0669084916
0.9750000000	4.2344219046
0.9800000000	2.6540758437
0.9850000000	1.9151132325
0.9900000000	1.4895142359
0.9950000000	1.2315123510
1.0000000000	1.0668008076
1.0050000000	0.9623431304
1.0100000000	0.8814342635
1.0150000000	0.8223522462
1.0200000000	0.7825430114
1.0250000000	0.7491973271
1.0300000000	0.7239088694
1.0350000000	0.7048315521
1.0400000000	0.6927475758
1.0450000000	0.6827871292
1.0500000000	0.6763229363
1.0550000000	0.6729614129
1.0600000000	0.6735756701
1.0650000000	0.6757333949
1.0700000000	0.6804324495
1.0750000000	0.6876946017
1.0800000000	0.6981778901
1.0850000000	0.7114656394
1.0900000000	0.7309407747
1.0950000000	0.7540395919
1.1000000000	0.7815154899
1.1050000000	0.8132293716
1.1100000000	0.8501566508
1.1150000000	0.8931362485
1.1200000000	0.9431336195
1.1250000000	1.0015326039
1.1300000000	1.0700435364
1.1350000000	1.1508463719
1.1400000000	1.2463904316
1.1450000000	1.3612774039
1.1500000000	1.5004059255
1.1550000000	1.6709056906
1.1600000000	1.8828364366
1.1650000000	2.1492219235
1.1700000000	2.4945978962
1.1750000000	2.9514166767
1.1800000000	3.5733666554
1.1850000000	4.4487369433
1.1900000000	5.7437531441
1.1950000000	7.7779382800
1.2000000000	11.2296139515
1.2050000000	17.7538578746
1.2100000000	32.1066479185
1.2150000000	70.8949449326
1.2200000000	174.0301666247
1.2250000000	156.2346806951
1.2300000000	62.1976057079
1.2350000000	29.0723857134
1.2400000000	16.5227531270
1.2450000000	10.7544086051
1.2500000000	7.7039890283
1.2550000000	5.9350489813
1.2600000000	4.8489296693
1.2650000000	4.1574215799
1.2700000000	3.7304816638
1.2750000000	3.4835847538
1.2800000000	3.3752938487
1.2850000000	3.3859110463
1.2900000000	3.5106625515
1.2950000000	3.7551674164
1.3000000000	4.1519804887
1.3050000000	4.7423118344
1.3100000000	5.6053423419
1.3150000000	6.8786596597
1.3200000000	8.8105216574
1.3250000000	11.8734061374
1.3300000000	17.1051874766
1.3350000000	26.9091595808
1.3400000000	47.8645970336
1.3450000000	99.8760970790
1.3500000000	211.7595229520
1.3550000000	197.3765590947
1.3600000000	90.9895877063
1.3650000000	44.7022615334
1.3700000000	25.6381018433
1.3750000000	16.4906627080
1.3800000000	11.5032363484
1.3850000000	8.4985169344
1.3900000000	6.5611191839
1.3950000000	5.2386312962
1.4000000000	4.2966313636
1.4050000000	3.6030891579
1.4100000000	3.0773702499
1.4150000000	2.6701516943
1.4200000000	2.3448091161
1.4250000000	2.0850695611
1.4300000000	1.8768686764
1.4350000000	1.6678758424
1.4400000000	0.9944289901
1.4450000000	-0.7535256913
1.4500000000	-3.9439174905
1.4550000000	-1.4259085189
1.4600000000	3.6216297803
1.4650000000	2.1959883975
1.4700000000	-0.9709161354
1.4750000000	-5.8256761988
1.4800000000	-2.5427986184
1.4850000000	4.5565185110
1.4900000000	3.6861680688
1.4950000000	2.4004004369
1.5000000000	1.6966336920
1.5050000000	1.3143465879
1.5100000000	1.0951417210
1.5150000000	0.9601738548
1.5200000000	0.8713290467
1.5250000000	0.8146747959
1.5300000000	0.7695834421
1.5350000000	0.7364498866
1.5400000000	0.7120170387
1.5450000000	0.6942830426
1.5500000000	0.6819113839
1.5550000000	0.6741966427
1.5600000000	0.6721609754
1.5650000000	0.6731542181
1.5700000000	0.6792788346
1.5750000000	0.6917625974
1.5800000000	0.7131726619
1.5850000000	0.7485934142
1.5900000000	0.8087721518
1.5950000000	0.9173319274
1.6000000000	1.1234958111
1.6050000000	1.4565508579
1.6100000000	1.6056232438
1.6150000000	1.3241859133
1.6200000000	1.0706580291
1.6250000000	0.9472542600
1.6300000000	0.8961553788
1.6350000000	0.8814495022
1.6400000000	0.8871042974
1.6450000000	0.9059203156
1.6500000000	0.9345457609
1.6550000000	0.9716822843
1.6600000000	1.0169128745
1.6650000000	1.0704782027
1.6700000000	1.1330767718
1.6750000000	1.2058153912
1.6800000000	1.2902121396
1.6850000000	1.3882732055
1.6900000000	1.5025494111
1.6950000000	1.6354874892
1.7000000000	1.7922378866
1.7050000000	1.9822273361
1.7100000000	2.2165061384
1.7150000000	2.5478374467
1.7200000000	3.0050255108
1.7250000000	3.5598475720
1.7300000000	4.2572734521
1.7350000000	5.0029881298
1.7400000000	5.6621984472
1.7450000000	6.4821318731
1.7500000000	7.7535648639
1.7550000000	9.6724196138
1.7600000000	12.5575994733
1.7650000000	17.0113559010
1.7700000000	24.1857718091
1.7750000000	36.2660800266
1.7800000000	56.8315444382
1.7850000000	87.1142293684
1.7900000000	108.1160004688
1.7950000000	91.9225952137
1.8000000000	61.0685173137
1.8050000000	38.4860098550
1.8100000000	25.3132063164
1.8150000000	17.5967662560
1.8200000000	12.8492699811
1.8250000000	9.7710419719
1.8300000000	7.6795288946
1.8350000000	6.2009439217
1.8400000000	5.1207835701
1.8450000000	4.3086654351
1.8500000000	3.6822929883
1.8550000000	3.1900466188
1.8600000000	2.7954097204
1.8650000000	2.4731541870
1.8700000000	2.2046507748
1.8750000000	1.9752904798
1.8800000000	1.7722243806
1.8850000000	1.5824169275
1.8900000000	1.3892969938
1.8950000000	1.1676649209
1.9000000000	0.8751058230
1.9050000000	0.3771665750
1.9100000000	-0.3459832261
1.9150000000	-1.1253085794
1.9200000000	-0.7796040632
1.9250000000	1.4906176862
1.9300000000	3.3145911316
1.9350000000	3.4637680016
1.9400000000	2.8562941015
1.9450000000	2.2421761773
1.9500000000	1.8004935699
1.9550000000	1.5040929079
1.9600000000	1.3040829649
1.9650000000	1.1716743312
1.9700000000	1.0713752628
1.9750000000	0.9977647736
1.9800000000	0.9423263729
1.9850000000	0.8990447326
1.9900000000	0.8636344332
1.9950000000	0.8326256201
2.0000000000	0.8051831523
2.0050000000	0.7912522750
2.0100000000	0.8041742693
2.0150000000	0.8349529594
2.0200000000	0.8591832416
2.0250000000	0.8757202874
2.0300000000	0.8933795412
2.0350000000	0.9159540861
2.0400000000	0.9463402614
2.0450000000	0.9864162340
2.0500000000	1.0384370290
2.0550000000	1.1046918612
2.0600000000	1.1852969821
2.0650000000	1.2726627713
2.0700000000	1.3479435535
2.0750000000	1.3961766868
2.0800000000	1.4276047412
2.0850000000	1.4650872698
2.0900000000	1.5227927139
2.0950000000	1.6050753036
2.1000000000	1.7143179252
2.1050000000	1.8480747698
2.1100000000	2.0156688317
2.1150000000	2.2235866660
2.1200000000	2.4814409382
2.1250000000	2.8030382661
2.1300000000	3.2080593088
2.1350000000	3.7247311568
2.1400000000	4.3938420076
2.1450000000	5.2750228936
2.1500000000	6.4550746305
2.1550000000	8.0566834101
2.1600000000	10.2367380426
2.1650000000	13.1279468473
2.1700000000	16.6802348187
2.1750000000	20.2259894868
2.1800000000	22.4689624400
2.1850000000	22.7236771195
2.1900000000	21.9549859959
2.1950000000	21.4458667024
2.2000000000	21.3012863727
2.2050000000	20.2790237906
2.2100000000	17.8581786597
2.2150000000	14.7820493842
2.2200000000	11.9671276882
2.2250000000	9.7123838429
2.2300000000	7.9375883566
2.2350000000	6.5278138832
2.2400000000	5.4092434569
2.2450000000	4.5361217761
2.2500000000	3.8551443512
2.2550000000	3.3178089235
2.2600000000	2.8836372514
2.2650000000	2.5189472493
2.2700000000	2.1954667416
2.2750000000	1.8933711724
2.2800000000	1.6140948585
2.2850000000	1.3926814173
2.2900000000	1.2810212935
2.2950000000	1.2969957099
2.3000000000	1.3893824340
2.3050000000	1.4796759980
2.3100000000	1.5186754600
2.3150000000	1.5088572298
2.3200000000	1.4717444030
2.3250000000	1.4293176670
2.3300000000	1.3934594881
2.3350000000	1.3682942913
2.3400000000	1.3529876564
2.3450000000	1.3431676877
2.3500000000	1.3329925638
2.3550000000	1.3187293189
2.3600000000	1.3014169988
2.3650000000	1.2855937540
2.3700000000	1.2757574628
2.3750000000	1.2741044730
2.3800000000	1.2802503060
2.3850000000	1.2919223758
2.3900000000	1.3065929979
2.3950000000	1.3221006253
2.4000000000	1.3397324155
2.4050000000	1.3642991010
2.4100000000	1.3982322585
2.4150000000	1.4446309610
2.4200000000	1.5056090412
2.4250000000	1.5830896213
2.4300000000	1.6792289230
2.4350000000	1.7967284686
2.4400000000	1.9390640743
2.4450000000	2.1107184892
2.4500000000	2.3173965372
2.4550000000	2.5663150691
2.4600000000	2.8663839991
2.4650000000	3.2283897262
2.4700000000	3.6648128495
2.4750000000	4.1883736365
2.4800000000	4.8128212788
2.4850000000	5.5443323543
2.4900000000	6.3768523914
2.4950000000	7.2802717163
2.5000000000	8.1876841063
2.5050000000	9.0263282526
2.5100000000	9.5681070932
2.5150000000	9.6867173915
2.5200000000	9.3658570838
2.5250000000	8.7059543997
2.5300000000	7.8597656351
2.5350000000	6.9612533832
2.5400000000	6.0952355787
2.5450000000	5.3036117454
2.5500000000	4.6020384727
2.5550000000	3.9924990759
2.5600000000	3.4661620947
2.5650000000	3.0218814897
2.5700000000	2.6508082307
2.5750000000	2.3477073157
2.5800000000	2.1084877263
2.5850000000	1.9280778422
2.5900000000	1.7973139295
2.5950000000	1.7029237546
2.6000000000	1.6310233709
2.6050000000	1.5797355187
2.6100000000	1.5336731239
2.6150000000	1.4922734371
2.6200000000	1.4565765245
2.6250000000	1.4276061640
2.6300000000	1.4059835296
2.6350000000	1.3919781814
2.6400000000	1.3857316259
2.6450000000	1.3873983945
2.6500000000	1.3973130243
2.6550000000	1.4155257916
2.6600000000	1.4425092088
2.6650000000	1.4786804679
2.6700000000	1.5245332964
2.6750000000	1.5806552202
2.6800000000	1.6477011583
2.6850000000	1.7263878376
2.6900000000	1.8174090490
2.6950000000	1.9213940653
2.7000000000	2.0387819101
2.7050000000	2.1837064779
2.7100000000	2.3461558822
2.7150000000	2.5250270288
2.7200000000	2.7179228363
2.7250000000	2.9208413882
2.7300000000	3.1278790783
2.7350000000	3.3309933396
2.7400000000	3.5198586879
2.7450000000	3.6835580791
2.7500000000	3.8062643153
2.7550000000	3.8770856200
2.7600000000	3.8878442718
2.7650000000	3.8364277616
2.7700000000	3.7275336161
2.7750000000	3.5717049096
2.7800000000	3.3829396304
2.7850000000	3.1761315138
2.7900000000	2.9645823703
2.7950000000	2.7589505834
2.8000000000	2.5667486680
2.8050000000	2.3712866452
2.8100000000	2.2025433922
2.8150000000	2.0601378592
2.8200000000	1.9418335120
2.8250000000	1.8446578006
2.8300000000	1.7656285893
2.8350000000	1.7022045802
2.8400000000	1.6516835697
2.8450000000	1.6142497032
2.8500000000	1.5879224471
2.8550000000	1.5719639739
2.8600000000	1.5658521180
2.8650000000	1.5691748337
2.8700000000	1.5815645638
2.8750000000	1.6026472098
2.8800000000	1.6319905181
2.8850000000	1.6690556459
2.8900000000	1.7131807359
2.8950000000	1.7635563835
2.9000000000	1.8192216023
2.9050000000	1.8923667663
2.9100000000	1.9674907322
2.9150000000	2.0416965036
2.9200000000	2.1114980118
2.9250000000	2.1728522969
2.9300000000	2.2219587952
2.9350000000	2.2537607911
2.9400000000	2.2657217594
2.9450000000	2.2565402887
2.9500000000	2.2269763547
2.9550000000	2.1797313353
2.9600000000	2.1189269863
2.9650000000	2.0493446477
2.9700000000	1.9756778006
2.9750000000	1.9019994602
2.9800000000	1.8314698403
2.9850000000	1.7662945272
2.9900000000	1.7078299384
2.9950000000	1.6567696161
3.0000000000	1.6133373167
