# energy (eV)    P(omega), $W$ = 300 nm, $h$ = 300 nm, $s$ = 20 nm, $d/W = 5$, $E_{\rm e}$ = 200 keV
0.2000000000	0.4092468392
0.2050000000	0.4151234057
0.2100000000	0.4206477622
0.2150000000	0.4258309160
0.2200000000	0.4306823530
0.2250000000	0.4352099135
0.2300000000	0.4394193523
0.2350000000	0.4433142552
0.2400000000	0.4468956410
0.2450000000	0.4501610614
0.2500000000	0.4531051103
0.2550000000	0.4557174136
0.2600000000	0.4579828086
0.2650000000	0.4598801770
0.2700000000	0.4613805729
0.2750000000	0.4624460953
0.2800000000	0.4630276258
0.2850000000	0.4630623742
0.2900000000	0.4624696648
0.2950000000	0.4611477624
0.3000000000	0.4589656727
0.3050000000	0.4557579012
0.3100000000	0.4513119891
0.3150000000	0.4756105618
0.3200000000	0.5044726839
0.3250000000	0.5409573680
0.3300000000	0.5897794053
0.3350000000	0.6505704536
0.3400000000	0.7301856509
0.3450000000	0.8268378425
0.3500000000	0.9533294268
0.3550000000	1.1207860689
0.3600000000	1.3395996989
0.3650000000	1.6447953086
0.3700000000	2.0476185788
0.3750000000	2.6083940863
0.3800000000	3.4200269040
0.3850000000	4.6854939582
0.3900000000	6.6861927955
0.3950000000	10.0871503621
0.4000000000	16.5750082850
0.4050000000	31.1304867897
0.4100000000	70.8758814776
0.4150000000	227.6506827125
0.4200000000	144.9039582565
0.4250000000	-273.5444996395
0.4300000000	76.2302937301
0.4350000000	47.5654283320
0.4400000000	29.1214507573
0.4450000000	19.1862124119
0.4500000000	13.4629382365
0.4550000000	9.9387136527
0.4600000000	7.6420777629
0.4650000000	6.0762346841
0.4700000000	4.9690112811
0.4750000000	4.1679813916
0.4800000000	3.5739561787
0.4850000000	3.1269630369
0.4900000000	2.7858411340
0.4950000000	2.5229468704
0.5000000000	2.3193905945
0.5050000000	2.1612965148
0.5100000000	2.0397479757
0.5150000000	1.9481841177
0.5200000000	1.8797058659
0.5250000000	1.8312409660
0.5300000000	1.7994641139
0.5350000000	1.7819503059
0.5400000000	1.7769146842
0.5450000000	1.7828672725
0.5500000000	1.7993645270
0.5550000000	1.8255754019
0.5600000000	1.8610953634
0.5650000000	1.9057536691
0.5700000000	1.9594059338
0.5750000000	2.0224363451
0.5800000000	2.0954689868
0.5850000000	2.1789142325
0.5900000000	2.2735522282
0.5950000000	2.3803505273
0.6000000000	2.5005399885
0.6050000000	2.6358846796
0.6100000000	2.7880840666
0.6150000000	2.9594445377
0.6200000000	3.1530445994
0.6250000000	3.3718316400
0.6300000000	3.6201622657
0.6350000000	3.9034664879
0.6400000000	4.2273967502
0.6450000000	4.6001076623
0.6500000000	5.0323252164
0.6550000000	5.5352168397
0.6600000000	6.1259393781
0.6650000000	6.8265260377
0.6700000000	7.6628781586
0.6750000000	8.6744788248
0.6800000000	9.9144881868
0.6850000000	11.4524943324
0.6900000000	13.3963648996
0.6950000000	15.8969134466
0.7000000000	19.1938482654
0.7050000000	23.6536097339
0.7100000000	29.8972834122
0.7150000000	39.0306120555
0.7200000000	53.1125993800
0.7250000000	76.4965418132
0.7300000000	119.4344548334
0.7350000000	211.3448565504
0.7400000000	463.5134767949
0.7450000000	1538.8330359099
0.7500000000	4770.8825104582
0.7550000000	1201.1313444379
0.7600000000	398.0937557771
0.7650000000	190.8929496561
0.7700000000	111.1046108134
0.7750000000	72.5731193572
0.7800000000	51.1143548041
0.7850000000	37.9939709101
0.7900000000	29.3780159413
0.7950000000	23.4336213348
0.8000000000	19.1589363743
0.8050000000	15.9741594449
0.8100000000	13.5447505266
0.8150000000	11.6181531487
0.8200000000	10.0971485206
0.8250000000	8.8721056678
0.8300000000	7.8682642664
0.8350000000	7.0427387770
0.8400000000	6.3505433494
0.8450000000	5.7695737550
0.8500000000	5.2784465023
0.8550000000	4.8545039015
0.8600000000	4.4925916361
0.8650000000	4.1835309896
0.8700000000	3.9103670125
0.8750000000	3.6781248180
0.8800000000	3.4812422623
0.8850000000	3.3047074454
0.8900000000	3.1634759450
0.8950000000	3.0349833337
0.9000000000	2.9335627582
0.9050000000	2.8644980132
0.9100000000	2.8012452629
0.9150000000	2.7638365418
0.9200000000	2.7616433795
0.9250000000	2.7605010305
0.9300000000	2.7219209674
0.9350000000	2.6010663552
0.9400000000	1.9187401222
0.9450000000	-1.1906139524
0.9500000000	-17.6165025954
0.9550000000	-100.9915001677
0.9600000000	23.8543293665
0.9650000000	41.9268743272
0.9700000000	18.6088341017
0.9750000000	9.7736532270
0.9800000000	6.1267706096
0.9850000000	4.4206360389
0.9900000000	3.4370937253
0.9950000000	2.8404956845
1.0000000000	2.4594946908
1.0050000000	2.2180542120
1.0100000000	2.0306659209
1.0150000000	1.8936860701
1.0200000000	1.8014643538
1.0250000000	1.7238538210
1.0300000000	1.6647622134
1.0350000000	1.6198980875
1.0400000000	1.5912403907
1.0450000000	1.5671432969
1.0500000000	1.5509239571
1.0550000000	1.5416538856
1.0600000000	1.5414755732
1.0650000000	1.5444273549
1.0700000000	1.5529161438
1.0750000000	1.5669701139
1.0800000000	1.5881668744
1.0850000000	1.6151148605
1.0900000000	1.6552862238
1.0950000000	1.7030591746
1.1000000000	1.7601114897
1.1050000000	1.8257078259
1.1100000000	1.9019916023
1.1150000000	1.9906530481
1.1200000000	2.0937670284
1.1250000000	2.2136981616
1.1300000000	2.3540245504
1.1350000000	2.5190661333
1.1400000000	2.7138238623
1.1450000000	2.9470585445
1.1500000000	3.2286025168
1.1550000000	3.5725260348
1.1600000000	3.9986767663
1.1650000000	4.5328849265
1.1700000000	5.2231459351
1.1750000000	6.1335182637
1.1800000000	7.3697463276
1.1850000000	9.1055446547
1.1900000000	11.6687979624
1.1950000000	15.6879388458
1.2000000000	22.4994657725
1.2050000000	35.3647675439
1.2100000000	63.6591237990
1.2150000000	140.1482914582
1.2200000000	343.7244095686
1.2250000000	309.1226648776
1.2300000000	123.6769775579
1.2350000000	58.3153487119
1.2400000000	33.5707854130
1.2450000000	22.2310660561
1.2500000000	16.2737659404
1.2550000000	12.8636894995
1.2600000000	10.8204916798
1.2650000000	9.5772723978
1.2700000000	8.8835704222
1.2750000000	8.5778075471
1.2800000000	8.5869621589
1.2850000000	8.8843245409
1.2900000000	9.4780453695
1.2950000000	10.4019761012
1.3000000000	11.7622446996
1.3050000000	13.6970263665
1.3100000000	16.4561789631
1.3150000000	20.4701706621
1.3200000000	26.5096749176
1.3250000000	36.0464498228
1.3300000000	52.2927251925
1.3350000000	82.7068560329
1.3400000000	147.7059637271
1.3450000000	309.1032878989
1.3500000000	656.6493937208
1.3550000000	612.8208817079
1.3600000000	282.7096020259
1.3650000000	138.9262296954
1.3700000000	79.6724263212
1.3750000000	51.2317039847
1.3800000000	35.7236988932
1.3850000000	26.3834029667
1.3900000000	20.3666645132
1.3950000000	16.2643174461
1.4000000000	13.3512200467
1.4050000000	11.2181404631
1.4100000000	9.6197004655
1.4150000000	8.4137173610
1.4200000000	7.5070968963
1.4250000000	6.9004678258
1.4300000000	6.6799473611
1.4350000000	6.8073146710
1.4400000000	5.2472488336
1.4450000000	0.4643764084
1.4500000000	-7.2957023359
1.4550000000	-2.0410771882
1.4600000000	8.8507535578
1.4650000000	4.7885032685
1.4700000000	-4.5371669846
1.4750000000	-19.8353319469
1.4800000000	-8.8286400365
1.4850000000	14.5056865062
1.4900000000	11.7584923874
1.4950000000	7.6107809232
1.5000000000	5.3473728264
1.5050000000	4.1286605485
1.5100000000	3.4340548827
1.5150000000	3.0122535541
1.5200000000	2.7398076697
1.5250000000	2.5705583599
1.5300000000	2.4413055591
1.5350000000	2.3522537252
1.5400000000	2.2936478816
1.5450000000	2.2602590619
1.5500000000	2.2487134264
1.5550000000	2.2591115575
1.5600000000	2.2974935006
1.5650000000	2.3608018163
1.5700000000	2.4632173819
1.5750000000	2.6220647444
1.5800000000	2.8698677672
1.5850000000	3.2699338134
1.5900000000	3.9556404620
1.5950000000	5.2221425088
1.6000000000	7.6929033977
1.6050000000	11.7783208085
1.6100000000	13.6703754334
1.6150000000	10.1231450637
1.6200000000	6.7953115634
1.6250000000	5.0384818997
1.6300000000	4.1561615536
1.6350000000	3.7016782465
1.6400000000	3.4710515711
1.6450000000	3.3694710293
1.6500000000	3.3494542808
1.6550000000	3.3887505717
1.6600000000	3.4740754225
1.6650000000	3.5993531710
1.6700000000	3.7622610892
1.6750000000	3.9627918514
1.6800000000	4.2027211664
1.6850000000	4.4848116813
1.6900000000	4.8114934101
1.6950000000	5.1780548291
1.7000000000	5.5782152549
1.7050000000	5.9878085575
1.7100000000	6.4548748676
1.7150000000	7.6199108584
1.7200000000	9.6661393617
1.7250000000	11.5387405960
1.7300000000	13.5467178936
1.7350000000	15.7533599397
1.7400000000	17.9196795841
1.7450000000	20.7026057696
1.7500000000	24.9106407905
1.7550000000	31.1734880555
1.7600000000	40.5436648810
1.7650000000	54.9877813456
1.7700000000	78.2547164778
1.7750000000	117.4535391988
1.7800000000	184.2478124301
1.7850000000	282.7543853715
1.7900000000	351.3897762819
1.7950000000	299.2171799528
1.8000000000	199.1389720629
1.8050000000	125.7620217701
1.8100000000	82.9188488955
1.8150000000	57.8067218362
1.8200000000	42.3523717634
1.8250000000	32.3332780640
1.8300000000	25.5306920748
1.8350000000	20.7291871688
1.8400000000	17.2311188403
1.8450000000	14.6132856754
1.8500000000	12.6089800519
1.8550000000	11.0513193897
1.8600000000	9.8238955260
1.8650000000	8.8476033355
1.8700000000	8.0661919331
1.8750000000	7.4383814365
1.8800000000	6.9314479148
1.8850000000	6.5165047915
1.8900000000	6.1602917196
1.8950000000	5.8131850837
1.9000000000	5.3894780865
1.9050000000	4.5864367059
1.9100000000	3.4818833414
1.9150000000	2.9035322727
1.9200000000	7.0672635080
1.9250000000	18.5530798604
1.9300000000	27.6617033095
1.9350000000	27.2328494678
1.9400000000	21.4171460718
1.9450000000	15.7790818635
1.9500000000	11.8206923378
1.9550000000	9.2271495248
1.9600000000	7.5133252663
1.9650000000	6.3662090037
1.9700000000	5.5381616374
1.9750000000	4.9311719943
1.9800000000	4.4677464780
1.9850000000	4.0916582514
1.9900000000	3.7598776851
1.9950000000	3.4348447834
2.0000000000	3.1110897170
2.0050000000	2.9041934203
2.0100000000	3.0226576706
2.0150000000	3.3490740524
2.0200000000	3.5502604227
2.0250000000	3.6035506283
2.0300000000	3.6153362850
2.0350000000	3.6369221177
2.0400000000	3.6873481000
2.0450000000	3.7714511489
2.0500000000	3.8923538498
2.0550000000	4.0528878274
2.0600000000	4.2530531137
2.0650000000	4.4807610240
2.0700000000	4.7060339750
2.0750000000	4.9064190879
2.0800000000	5.1017691717
2.0850000000	5.3331167935
2.0900000000	5.6279844661
2.0950000000	5.9979838362
2.1000000000	6.4556378783
2.1050000000	6.9968216831
2.1100000000	7.6595725226
2.1150000000	8.4717000159
2.1200000000	9.4721976894
2.1250000000	10.7157552407
2.1300000000	12.2794624764
2.1350000000	14.2733751895
2.1400000000	16.8564138656
2.1450000000	20.2609183741
2.1500000000	24.8254193458
2.1550000000	31.0290322292
2.1600000000	39.4849486287
2.1650000000	50.7124706872
2.1700000000	64.5037850489
2.1750000000	78.2149497634
2.1800000000	86.6857624132
2.1850000000	87.1234252180
2.1900000000	83.2675115706
2.1950000000	80.2654072903
2.2000000000	78.9325821326
2.2050000000	75.2410095159
2.2100000000	67.4080477629
2.2150000000	57.7791454199
2.2200000000	49.1360487162
2.2250000000	41.9918030654
2.2300000000	35.6977799274
2.2350000000	30.0041575054
2.2400000000	25.1122123869
2.2450000000	21.1977197906
2.2500000000	18.1971407209
2.2550000000	15.9435187447
2.2600000000	14.2566828775
2.2650000000	12.9559682203
2.2700000000	11.8459301526
2.2750000000	10.7338726516
2.2800000000	9.5358166360
2.2850000000	8.3950286174
2.2900000000	7.6060045247
2.2950000000	7.3356379434
2.3000000000	7.4307228733
2.3050000000	7.5767289148
2.3100000000	7.5885169238
2.3150000000	7.4675596568
2.3200000000	7.2940025973
2.3250000000	7.1506295467
2.3300000000	7.0797878865
2.3350000000	7.0887127147
2.3400000000	7.1535745625
2.3450000000	7.2204878728
2.3500000000	7.2216061938
2.3550000000	7.1136440789
2.3600000000	6.9088520502
2.3650000000	6.6607647634
2.3700000000	6.4245652768
2.3750000000	6.2332198905
2.3800000000	6.0974563480
2.3850000000	6.0142794269
2.3900000000	5.9768151173
2.3950000000	5.9770909064
2.4000000000	6.0172651742
2.4050000000	6.1106032494
2.4100000000	6.2615406989
2.4150000000	6.4762179048
2.4200000000	6.7583180397
2.4250000000	7.1143211105
2.4300000000	7.5536914067
2.4350000000	8.0891271044
2.4400000000	8.7370133773
2.4450000000	9.5182744094
2.4500000000	10.4593044759
2.4550000000	11.5932812652
2.4600000000	12.9609653868
2.4650000000	14.6112612208
2.4700000000	16.6002566652
2.4750000000	18.9841301053
2.4800000000	21.8208952768
2.4850000000	25.1335114198
2.4900000000	28.8895954797
2.4950000000	32.9547543962
2.5000000000	37.0448028419
2.5050000000	40.8711179639
2.5100000000	43.4565892136
2.5150000000	44.2375325330
2.5200000000	43.0793488217
2.5250000000	40.3395466015
2.5300000000	36.6413951536
2.5350000000	32.5862734912
2.5400000000	28.5992351877
2.5450000000	24.9205501295
2.5500000000	21.6571236963
2.5550000000	18.8333228030
2.5600000000	16.4103327815
2.5650000000	14.3732498239
2.5700000000	12.6740808739
2.5750000000	11.2827779335
2.5800000000	10.1768969631
2.5850000000	9.3320546178
2.5900000000	8.7081620026
2.5950000000	8.2488673323
2.6000000000	7.8954978333
2.6050000000	7.6443708027
2.6100000000	7.4269614559
2.6150000000	7.2398203957
2.6200000000	7.0866401976
2.6250000000	6.9715135398
2.6300000000	6.8971754010
2.6350000000	6.8650204109
2.6400000000	6.8758610312
2.6450000000	6.9304501756
2.6500000000	7.0302641432
2.6550000000	7.1757166424
2.6600000000	7.3690346512
2.6650000000	7.6124684952
2.6700000000	7.9087838844
2.6750000000	8.2613321566
2.6800000000	8.6738311501
2.6850000000	9.1500828988
2.6900000000	9.6932012576
2.6950000000	10.3049874072
2.7000000000	10.9848143713
2.7050000000	11.8099882137
2.7100000000	12.7104754861
2.7150000000	13.6687032783
2.7200000000	14.6591253983
2.7250000000	15.6496684557
2.7300000000	16.6041681333
2.7350000000	17.4844654887
2.7400000000	18.2509103542
2.7450000000	18.8683422667
2.7500000000	19.2821978435
2.7550000000	19.4594718897
2.7600000000	19.3751181402
2.7650000000	19.0262474208
2.7700000000	18.4362165381
2.7750000000	17.6518004298
2.7800000000	16.7339623428
2.7850000000	15.7473729227
2.7900000000	14.7500598000
2.7950000000	13.7885549330
2.8000000000	12.8957613774
2.8050000000	11.9924883425
2.8100000000	11.2194354574
2.8150000000	10.5745272890
2.8200000000	10.0473795365
2.8250000000	9.6243076828
2.8300000000	9.2915275163
2.8350000000	9.0372403984
2.8400000000	8.8490279667
2.8450000000	8.7273208559
2.8500000000	8.6630945285
2.8550000000	8.6529099479
2.8600000000	8.6941994121
2.8650000000	8.7846493059
2.8700000000	8.9216685435
2.8750000000	9.1019687000
2.8800000000	9.3212366180
2.8850000000	9.5738628577
2.8900000000	9.8531036698
2.8950000000	10.1513335624
2.9000000000	10.4605355532
2.9050000000	10.8319850061
2.9100000000	11.1882287192
2.9150000000	11.5180712091
2.9200000000	11.8097698848
2.9250000000	12.0500050442
2.9300000000	12.2265110236
2.9350000000	12.3201993249
2.9400000000	12.3228374880
2.9450000000	12.2309220462
2.9500000000	12.0497526132
2.9550000000	11.7930892920
2.9600000000	11.4807895259
2.9650000000	11.1353516832
2.9700000000	10.7785292092
2.9750000000	10.4289115755
2.9800000000	10.1007427942
2.9850000000	9.8037390809
2.9900000000	9.5437444951
2.9950000000	9.3235012253
3.0000000000	9.1435846732
