# energy (eV)    P(omega), $W$ = 400 nm, $h$ = 300 nm, $s$ = 20 nm, $d/W = 5$, $E_{\rm e}$ = 200 keV
0.2000000000	0.0773660378
0.2050000000	0.0780699325
0.2100000000	0.0785658779
0.2150000000	0.0788455206
0.2200000000	0.0788971853
0.2250000000	0.0787050136
0.2300000000	0.0782481470
0.2350000000	0.0774994287
0.2400000000	0.0764239426
0.2450000000	0.0749766844
0.2500000000	0.0731001259
0.2550000000	0.0707202420
0.2600000000	0.0677416488
0.2650000000	0.0708645523
0.2700000000	0.0787962803
0.2750000000	0.0901465744
0.2800000000	0.1059611827
0.2850000000	0.1292765839
0.2900000000	0.1581672443
0.2950000000	0.1995854600
0.3000000000	0.2552651738
0.3050000000	0.3406106241
0.3100000000	0.4594978928
0.3150000000	0.6895413575
0.3200000000	1.0488348153
0.3250000000	1.2948472435
0.3300000000	1.6351682998
0.3350000000	2.1176315518
0.3400000000	2.8750112978
0.3450000000	4.1744483679
0.3500000000	6.7656700239
0.3550000000	12.7641157632
0.3600000000	31.3702040392
0.3650000000	0.1409074597
0.3700000000	14.5400210787
0.3750000000	19.1199825103
0.3800000000	8.9095410846
0.3850000000	5.0189962550
0.3900000000	3.2193558627
0.3950000000	2.2686954160
0.4000000000	1.7182592987
0.4050000000	1.3594099253
0.4100000000	1.1257911072
0.4150000000	0.9717086448
0.4200000000	0.8743300454
0.4250000000	0.7978524703
0.4300000000	0.7074738438
0.4350000000	0.6359444710
0.4400000000	0.5793730946
0.4450000000	0.5343928380
0.4500000000	0.4988821581
0.4550000000	0.4707243444
0.4600000000	0.4487604197
0.4650000000	0.4317644236
0.4700000000	0.4189247771
0.4750000000	0.4096736988
0.4800000000	0.4035156994
0.4850000000	0.4000162930
0.4900000000	0.3989185962
0.4950000000	0.4000249604
0.5000000000	0.4031665887
0.5050000000	0.4082682718
0.5100000000	0.4152684258
0.5150000000	0.4241305262
0.5200000000	0.4348730295
0.5250000000	0.4475111331
0.5300000000	0.4622303356
0.5350000000	0.4791132183
0.5400000000	0.4983083382
0.5450000000	0.5200104462
0.5500000000	0.5444951291
0.5550000000	0.5720637601
0.5600000000	0.6030832210
0.5650000000	0.6380251873
0.5700000000	0.6775408370
0.5750000000	0.7221128331
0.5800000000	0.7726441856
0.5850000000	0.8303686492
0.5900000000	0.8961186083
0.5950000000	0.9716452144
0.6000000000	1.0592619932
0.6050000000	1.1607031893
0.6100000000	1.2799435213
0.6150000000	1.4202795013
0.6200000000	1.5873696033
0.6250000000	1.7893316990
0.6300000000	2.0344453909
0.6350000000	2.3382673484
0.6400000000	2.7179618946
0.6450000000	3.2046747195
0.6500000000	3.8381925559
0.6550000000	4.6859094657
0.6600000000	5.8616188495
0.6650000000	7.5451074218
0.6700000000	10.0943257524
0.6750000000	14.1931100992
0.6800000000	21.4385285828
0.6850000000	35.9770230957
0.6900000000	72.1046429170
0.6950000000	202.4111158159
0.7000000000	981.7235418926
0.7050000000	477.2952130210
0.7100000000	122.6087495114
0.7150000000	52.1408360959
0.7200000000	28.4751555425
0.7250000000	17.8877252369
0.7300000000	12.2686702926
0.7350000000	8.9469461355
0.7400000000	6.8198210971
0.7450000000	5.3760034537
0.7500000000	4.3532237887
0.7550000000	3.6018128754
0.7600000000	3.0354542507
0.7650000000	2.5962486928
0.7700000000	2.2495388716
0.7750000000	1.9711943030
0.7800000000	1.7450009965
0.7850000000	1.5587529123
0.7900000000	1.4027194782
0.7950000000	1.2724024071
0.8000000000	1.1615973046
0.8050000000	1.0666653029
0.8100000000	0.9858495479
0.8150000000	0.9150175924
0.8200000000	0.8533506046
0.8250000000	0.8016015105
0.8300000000	0.7563039270
0.8350000000	0.7169243457
0.8400000000	0.6855652382
0.8450000000	0.6582029811
0.8500000000	0.6350031308
0.8550000000	0.6203409439
0.8600000000	0.6085972234
0.8650000000	0.6001901073
0.8700000000	0.6031252739
0.8750000000	0.6041568706
0.8800000000	0.6009096496
0.8850000000	0.5747827983
0.8900000000	0.4460365942
0.8950000000	-0.1991968328
0.9000000000	-3.6591611937
0.9050000000	-24.0431758736
0.9100000000	4.5783082810
0.9150000000	10.8452853123
0.9200000000	4.5020930921
0.9250000000	2.3421025745
0.9300000000	1.4296505225
0.9350000000	0.9937035434
0.9400000000	0.7585223330
0.9450000000	0.6281564710
0.9500000000	0.5355686993
0.9550000000	0.4735826889
0.9600000000	0.4352353485
0.9650000000	0.4035828065
0.9700000000	0.3809781069
0.9750000000	0.3655451633
0.9800000000	0.3561059293
0.9850000000	0.3542776822
0.9900000000	0.3575199517
0.9950000000	0.3710247467
1.0000000000	0.4034773659
1.0050000000	0.4793840855
1.0100000000	0.6784013207
1.0150000000	1.3606533997
1.0200000000	2.6098301318
1.0250000000	1.1884847552
1.0300000000	0.6104781416
1.0350000000	0.4382054506
1.0400000000	0.3704707809
1.0450000000	0.3387102022
1.0500000000	0.3228132925
1.0550000000	0.3144936799
1.0600000000	0.3107893083
1.0650000000	0.3101434829
1.0700000000	0.3116931285
1.0750000000	0.3151367210
1.0800000000	0.3198675177
1.0850000000	0.3262902258
1.0900000000	0.3355573156
1.0950000000	0.3463549730
1.1000000000	0.3587895866
1.1050000000	0.3728843419
1.1100000000	0.3888624004
1.1150000000	0.4069366345
1.1200000000	0.4273594195
1.1250000000	0.4503394910
1.1300000000	0.4764724329
1.1350000000	0.5061592284
1.1400000000	0.5400009787
1.1450000000	0.5787615969
1.1500000000	0.6230352558
1.1550000000	0.6746733257
1.1600000000	0.7348459184
1.1650000000	0.8050854753
1.1700000000	0.8857109224
1.1750000000	0.9674842870
1.1800000000	1.0449168517
1.1850000000	1.4523607423
1.1900000000	1.8022393169
1.1950000000	2.4702982915
1.2000000000	3.3641305479
1.2050000000	2.9512696395
1.2100000000	2.8247416102
1.2150000000	3.1449197317
1.2200000000	3.7614566189
1.2250000000	4.7082057140
1.2300000000	6.1477834588
1.2350000000	8.4250378120
1.2400000000	12.2610779618
1.2450000000	19.4843355608
1.2500000000	35.1279323728
1.2550000000	76.0415087199
1.2600000000	183.6732790710
1.2650000000	186.0547806403
1.2700000000	77.3955811826
1.2750000000	35.7261530901
1.2800000000	19.7859467154
1.2850000000	12.4426891231
1.2900000000	8.5284084300
1.2950000000	6.2156956674
1.3000000000	4.7425984427
1.3050000000	3.7507677996
1.3100000000	3.0513702158
1.3150000000	2.5460252061
1.3200000000	2.1714188858
1.3250000000	1.8895229508
1.3300000000	1.6772408330
1.3350000000	1.5204021516
1.3400000000	1.4116533745
1.3450000000	1.3489863281
1.3500000000	1.3415717597
1.3550000000	1.4102823447
1.3600000000	1.6082153583
1.3650000000	2.0704794753
1.3700000000	3.1743036547
1.3750000000	5.9205939093
1.3800000000	9.6714068998
1.3850000000	6.7560701653
1.3900000000	3.4426918802
1.3950000000	1.9973920612
1.4000000000	1.3079993964
1.4050000000	0.8843745079
1.4100000000	0.5010817165
1.4150000000	-0.0705333195
1.4200000000	-1.3500929846
1.4250000000	-4.7404408199
1.4300000000	-6.3740054967
1.4350000000	2.9204760284
1.4400000000	3.7356902138
1.4450000000	2.2397597618
1.4500000000	1.3937051726
1.4550000000	0.9607592463
1.4600000000	0.7094580150
1.4650000000	0.5108059681
1.4700000000	0.2982541209
1.4750000000	0.3506297419
1.4800000000	0.5142605294
1.4850000000	0.4669591494
1.4900000000	0.4134624232
1.4950000000	0.3788616663
1.5000000000	0.3561323009
1.5050000000	0.3411026070
1.5100000000	0.3308764627
1.5150000000	0.3252930221
1.5200000000	0.3211737165
1.5250000000	0.3196789133
1.5300000000	0.3209430452
1.5350000000	0.3255487417
1.5400000000	0.3349517301
1.5450000000	0.3523858683
1.5500000000	0.3851200059
1.5550000000	0.4476427100
1.5600000000	0.5414869312
1.5650000000	0.5565362898
1.5700000000	0.4718903026
1.5750000000	0.4125113178
1.5800000000	0.3869233240
1.5850000000	0.3789074273
1.5900000000	0.3800080740
1.5950000000	0.3865537332
1.6000000000	0.3969454336
1.6050000000	0.4106338973
1.6100000000	0.4272084800
1.6150000000	0.4466090182
1.6200000000	0.4691451124
1.6250000000	0.4950838791
1.6300000000	0.5248636561
1.6350000000	0.5590493693
1.6400000000	0.5983632755
1.6450000000	0.6437277530
1.6500000000	0.6963005884
1.6550000000	0.7575489485
1.6600000000	0.8293736873
1.6650000000	0.9142283891
1.6700000000	1.0144989657
1.6750000000	1.1360394611
1.6800000000	1.2840250528
1.6850000000	1.4665970398
1.6900000000	1.6953144717
1.6950000000	1.9871405730
1.7000000000	2.3676117459
1.7050000000	2.8924909706
1.7100000000	3.6248072294
1.7150000000	4.6892743898
1.7200000000	6.3116115696
1.7250000000	8.8854606500
1.7300000000	12.8407310918
1.7350000000	17.9158613001
1.7400000000	24.3300495154
1.7450000000	35.5861745694
1.7500000000	50.1984830123
1.7550000000	51.0058281839
1.7600000000	35.7840271240
1.7650000000	22.2902921784
1.7700000000	14.2890840562
1.7750000000	9.7392790883
1.7800000000	7.0505292314
1.7850000000	5.3966149318
1.7900000000	4.3709469545
1.7950000000	3.7840961377
1.8000000000	3.5472735749
1.8050000000	3.4723386784
1.8100000000	3.0893961763
1.8150000000	2.3938032511
1.8200000000	1.8380841699
1.8250000000	1.5515975094
1.8300000000	1.3508462683
1.8350000000	1.1724188722
1.8400000000	1.0269219470
1.8450000000	0.9114622524
1.8500000000	0.8184159394
1.8550000000	0.7415517153
1.8600000000	0.6708506268
1.8650000000	0.6110847038
1.8700000000	0.5506885828
1.8750000000	0.4636214999
1.8800000000	0.2651175525
1.8850000000	-0.1699928883
1.8900000000	-0.7552642768
1.8950000000	-0.8557108290
1.9000000000	0.0916184715
1.9050000000	0.9748775405
1.9100000000	1.0779376683
1.9150000000	0.9106540958
1.9200000000	0.7466986465
1.9250000000	0.6303499950
1.9300000000	0.5598800082
1.9350000000	0.5060681280
1.9400000000	0.4702530436
1.9450000000	0.4465248844
1.9500000000	0.4299355485
1.9550000000	0.4160874536
1.9600000000	0.4041641001
1.9650000000	0.3957102251
1.9700000000	0.3912024629
1.9750000000	0.3903395404
1.9800000000	0.3928795073
1.9850000000	0.3988973212
1.9900000000	0.4087880060
1.9950000000	0.4230448867
2.0000000000	0.4412979606
2.0050000000	0.4620105662
2.0100000000	0.4768842783
2.0150000000	0.4868288638
2.0200000000	0.4988217205
2.0250000000	0.5173116404
2.0300000000	0.5436097351
2.0350000000	0.5783748285
2.0400000000	0.6228020589
2.0450000000	0.6789631476
2.0500000000	0.7498322398
2.0550000000	0.8387135854
2.0600000000	0.9472093057
2.0650000000	1.0736144977
2.0700000000	1.2198293584
2.0750000000	1.4021653003
2.0800000000	1.6475516338
2.0850000000	1.9822449809
2.0900000000	2.4215146843
2.0950000000	2.9337998745
2.1000000000	3.3903840539
2.1050000000	3.6116151937
2.1100000000	3.5065192299
2.1150000000	3.2647071690
2.1200000000	3.0937752601
2.1250000000	3.0864348257
2.1300000000	3.2701874788
2.1350000000	3.6668282633
2.1400000000	4.3200153070
2.1450000000	5.3069897195
2.1500000000	6.7359170670
2.1550000000	8.6880495427
2.1600000000	11.0059658130
2.1650000000	12.9541538428
2.1700000000	13.4145169669
2.1750000000	12.0082045340
2.1800000000	9.6945796582
2.1850000000	7.4798602094
2.1900000000	5.7482756095
2.1950000000	4.4972602509
2.2000000000	3.6195765018
2.2050000000	3.0140577482
2.2100000000	2.5937120978
2.2150000000	2.2712996366
2.2200000000	1.9823808048
2.2250000000	1.7075555669
2.2300000000	1.4587120190
2.2350000000	1.2450431080
2.2400000000	1.0640733348
2.2450000000	0.9078136344
2.2500000000	0.7683109948
2.2550000000	0.6411166227
2.2600000000	0.5139180484
2.2650000000	0.4213792617
2.2700000000	0.3711058106
2.2750000000	0.3837477072
2.2800000000	0.4567400269
2.2850000000	0.5496905200
2.2900000000	0.6177243344
2.2950000000	0.6478689107
2.3000000000	0.6513020868
2.3050000000	0.6408781044
2.3100000000	0.6271567254
2.3150000000	0.6150062109
2.3200000000	0.6063509046
2.3250000000	0.6022438407
2.3300000000	0.6035345382
2.3350000000	0.6109270629
2.3400000000	0.6250242898
2.3450000000	0.6464375383
2.3500000000	0.6758151321
2.3550000000	0.7141291664
2.3600000000	0.7607512044
2.3650000000	0.8159721148
2.3700000000	0.8796391391
2.3750000000	0.9524439835
2.3800000000	1.0370146212
2.3850000000	1.1364688706
2.3900000000	1.2514956145
2.3950000000	1.3769725610
2.4000000000	1.4997324040
2.4050000000	1.6055223739
2.4100000000	1.6641571418
2.4150000000	1.6697580905
2.4200000000	1.6366622666
2.4250000000	1.5893164188
2.4300000000	1.5494177540
2.4350000000	1.5300643997
2.4400000000	1.5364844108
2.4450000000	1.5695243552
2.4500000000	1.6292919146
2.4550000000	1.7171188152
2.4600000000	1.8386334007
2.4650000000	1.9996046581
2.4700000000	2.2064575343
2.4750000000	2.4632047455
2.4800000000	2.7678205699
2.4850000000	3.1073086645
2.4900000000	3.4519402245
2.4950000000	3.7523818555
2.5000000000	3.9468987584
2.5050000000	3.9719153516
2.5100000000	3.8020453824
2.5150000000	3.4836569336
2.5200000000	3.0908392319
2.5250000000	2.6886817008
2.5300000000	2.3168608663
2.5350000000	1.9920475589
2.5400000000	1.7166961732
2.5450000000	1.4867219835
2.5500000000	1.2962046865
2.5550000000	1.1398251444
2.5600000000	1.0090634858
2.5650000000	0.9112021503
2.5700000000	0.8408836361
2.5750000000	0.7956006320
2.5800000000	0.7703279587
2.5850000000	0.7581927080
2.5900000000	0.7527449453
2.5950000000	0.7499683701
2.6000000000	0.7485680213
2.6050000000	0.7545331007
2.6100000000	0.7639867472
2.6150000000	0.7783763827
2.6200000000	0.7984709567
2.6250000000	0.8243177440
2.6300000000	0.8551872244
2.6350000000	0.8895311708
2.6400000000	0.9249840925
2.6450000000	0.9585462156
2.6500000000	0.9870405580
2.6550000000	1.0078621374
2.6600000000	1.0198008002
2.6650000000	1.0235670387
2.6700000000	1.0216419459
2.6750000000	1.0176524456
2.6800000000	1.0151131001
2.6850000000	1.0173078006
2.6900000000	1.0265234980
2.6950000000	1.0441658084
2.7000000000	1.0709087821
2.7050000000	1.1109339424
2.7100000000	1.1624401864
2.7150000000	1.2245951569
2.7200000000	1.2956781299
2.7250000000	1.3727678054
2.7300000000	1.4514540043
2.7350000000	1.5257909095
2.7400000000	1.5887054116
2.7450000000	1.6330163409
2.7500000000	1.6529353185
2.7550000000	1.6455462329
2.7600000000	1.6115937484
2.7650000000	1.5552153724
2.7700000000	1.4827421972
2.7750000000	1.4011889429
2.7800000000	1.3169872224
2.7850000000	1.2352829602
2.7900000000	1.1590592894
2.7950000000	1.0915806375
2.8000000000	1.0335225950
2.8050000000	0.9797484089
2.8100000000	0.9373498397
2.8150000000	0.9046583718
2.8200000000	0.8798613088
2.8250000000	0.8612952682
2.8300000000	0.8475464107
2.8350000000	0.8374419461
2.8400000000	0.8299908178
2.8450000000	0.8243515611
2.8500000000	0.8198484380
2.8550000000	0.8160328377
2.8600000000	0.8127527672
2.8650000000	0.8101752950
2.8700000000	0.8087440442
2.8750000000	0.8090692839
2.8800000000	0.8117926397
2.8850000000	0.8174653747
2.8900000000	0.8264632800
2.8950000000	0.8389356997
2.9000000000	0.8547800742
2.9050000000	0.8784775026
2.9100000000	0.9044631677
2.9150000000	0.9310023588
2.9200000000	0.9559027989
2.9250000000	0.9768094382
2.9300000000	0.9915356793
2.9350000000	0.9984466769
2.9400000000	0.9967756893
2.9450000000	0.9867705310
2.9500000000	0.9696009497
2.9550000000	0.9470605220
2.9600000000	0.9211886876
2.9650000000	0.8939172452
2.9700000000	0.8668348922
2.9750000000	0.8410842454
2.9800000000	0.8173687528
2.9850000000	0.7960286974
2.9900000000	0.7771432421
2.9950000000	0.7606295587
3.0000000000	0.7463237934
