# energy (eV)    P(omega), $W$ = 400 nm, $h$ = 300 nm, $s$ = 20 nm, $d/W = 5$, $E_{\rm e}$ = 200 keV
0.2000000000	0.0425639258
0.2050000000	0.0429511243
0.2100000000	0.0432237646
0.2150000000	0.0433772549
0.2200000000	0.0434051750
0.2250000000	0.0432988028
0.2300000000	0.0430466626
0.2350000000	0.0426338128
0.2400000000	0.0420410383
0.2450000000	0.0412435746
0.2500000000	0.0402097608
0.2550000000	0.0388988587
0.2600000000	0.0372583714
0.2650000000	0.0389773833
0.2700000000	0.0433438894
0.2750000000	0.0495922477
0.2800000000	0.0582980215
0.2850000000	0.0711326588
0.2900000000	0.0870357949
0.2950000000	0.1098343718
0.3000000000	0.1404823314
0.3050000000	0.1874584891
0.3100000000	0.2528951429
0.3150000000	0.3795123014
0.3200000000	0.5772645878
0.3250000000	0.7126563619
0.3300000000	0.8999474436
0.3350000000	1.1654602354
0.3400000000	1.5822625660
0.3450000000	2.2973630845
0.3500000000	3.7233383087
0.3550000000	7.0243015169
0.3600000000	17.2631573649
0.3650000000	0.0779309351
0.3700000000	8.0009526062
0.3750000000	10.5209805521
0.3800000000	4.9024391903
0.3850000000	2.7616032000
0.3900000000	1.7713338970
0.3950000000	1.2482291530
0.4000000000	0.9453515008
0.4050000000	0.7478961856
0.4100000000	0.6193484219
0.4150000000	0.5345642452
0.4200000000	0.4809793383
0.4250000000	0.4388952756
0.4300000000	0.3891661799
0.4350000000	0.3498085298
0.4400000000	0.3186810524
0.4450000000	0.2939310839
0.4500000000	0.2743911907
0.4550000000	0.2588966904
0.4600000000	0.2468098187
0.4650000000	0.2374560195
0.4700000000	0.2303887288
0.4750000000	0.2252955047
0.4800000000	0.2219036949
0.4850000000	0.2199742258
0.4900000000	0.2193657207
0.4950000000	0.2199694091
0.5000000000	0.2216923603
0.5050000000	0.2244931540
0.5100000000	0.2283378603
0.5150000000	0.2332063213
0.5200000000	0.2391086329
0.5250000000	0.2460530807
0.5300000000	0.2541416122
0.5350000000	0.2634195584
0.5400000000	0.2739685347
0.5450000000	0.2858955676
0.5500000000	0.2993520859
0.5550000000	0.3145037219
0.5600000000	0.3315520838
0.5650000000	0.3507564087
0.5700000000	0.3724745691
0.5750000000	0.3969718074
0.5800000000	0.4247444149
0.5850000000	0.4564704829
0.5900000000	0.4926074092
0.5950000000	0.5341176434
0.6000000000	0.5822727097
0.6050000000	0.6380256120
0.6100000000	0.7035609155
0.6150000000	0.7806902259
0.6200000000	0.8725233622
0.6250000000	0.9835218494
0.6300000000	1.1182357483
0.6350000000	1.2852148894
0.6400000000	1.4938921118
0.6450000000	1.7613845233
0.6500000000	2.1095575422
0.6550000000	2.5754489856
0.6600000000	3.2215964386
0.6650000000	4.1468040501
0.6700000000	5.5477895790
0.6750000000	7.8003636737
0.6800000000	11.7822141255
0.6850000000	19.7720575648
0.6900000000	39.6263984466
0.6950000000	111.2373128985
0.7000000000	539.5108268794
0.7050000000	262.2967301584
0.7100000000	67.3786262970
0.7150000000	28.6532306090
0.7200000000	15.6479217576
0.7250000000	9.8297091674
0.7300000000	6.7418342555
0.7350000000	4.9164367334
0.7400000000	3.7475178024
0.7450000000	2.9541013578
0.7500000000	2.3920597298
0.7550000000	1.9791438815
0.7600000000	1.6679197761
0.7650000000	1.4265698077
0.7700000000	1.2360486316
0.7750000000	1.0830957066
0.7800000000	0.9588009410
0.7850000000	0.8564568682
0.7900000000	0.7707162611
0.7950000000	0.6991070763
0.8000000000	0.6382199381
0.8050000000	0.5860552401
0.8100000000	0.5416474244
0.8150000000	0.5027258197
0.8200000000	0.4688403912
0.8250000000	0.4404045966
0.8300000000	0.4155138554
0.8350000000	0.3938749682
0.8400000000	0.3766428275
0.8450000000	0.3616068660
0.8500000000	0.3488579753
0.8550000000	0.3407995530
0.8600000000	0.3343446367
0.8650000000	0.3297228964
0.8700000000	0.3313319333
0.8750000000	0.3318955052
0.8800000000	0.3301090959
0.8850000000	0.3157557905
0.8900000000	0.2450371898
0.8950000000	-0.1093702637
0.9000000000	-2.0098008064
0.9050000000	-13.2058790478
0.9100000000	2.5146601601
0.9150000000	5.9567654213
0.9200000000	2.4727681305
0.9250000000	1.2864041317
0.9300000000	0.7852499095
0.9350000000	0.5458143705
0.9400000000	0.4166486081
0.9450000000	0.3450522373
0.9500000000	0.2942067520
0.9550000000	0.2601705999
0.9600000000	0.2391196817
0.9650000000	0.2217493254
0.9700000000	0.2093528768
0.9750000000	0.2009020828
0.9800000000	0.1957533512
0.9850000000	0.1948007521
0.9900000000	0.1966605828
0.9950000000	0.2042068727
1.0000000000	0.2222629268
1.0050000000	0.2644307717
1.0100000000	0.3749488189
1.0150000000	0.7537419924
1.0200000000	1.4472235190
1.0250000000	0.6581034148
1.0300000000	0.3372197004
1.0350000000	0.2415816101
1.0400000000	0.2039733230
1.0450000000	0.1863313298
1.0500000000	0.1774895154
1.0550000000	0.1728520022
1.0600000000	0.1707721993
1.0650000000	0.1703857124
1.0700000000	0.1712133053
1.0750000000	0.1730864201
1.0800000000	0.1756700591
1.0850000000	0.1791851867
1.0900000000	0.1842637471
1.0950000000	0.1901840371
1.1000000000	0.1970041115
1.1050000000	0.2047363105
1.1100000000	0.2135030029
1.1150000000	0.2234208568
1.1200000000	0.2346283151
1.1250000000	0.2472399373
1.1300000000	0.2615824653
1.1350000000	0.2778761064
1.1400000000	0.2964506795
1.1450000000	0.3177255493
1.1500000000	0.3420270375
1.1550000000	0.3703712964
1.1600000000	0.4034008491
1.1650000000	0.4419572853
1.1700000000	0.4862153541
1.1750000000	0.5311022784
1.1800000000	0.5735869992
1.1850000000	0.7972017694
1.1900000000	0.9893192705
1.1950000000	1.3561863249
1.2000000000	1.8470155203
1.2050000000	1.6201726959
1.2100000000	1.5505548494
1.2150000000	1.7262238831
1.2200000000	2.0645868272
1.2250000000	2.5842013977
1.2300000000	3.3743108910
1.2350000000	4.6241811696
1.2400000000	6.7295884540
1.2450000000	10.6940580422
1.2500000000	19.2799859102
1.2550000000	41.7351627871
1.2600000000	100.8079161967
1.2650000000	102.1143377323
1.2700000000	42.4775271967
1.2750000000	19.6076882126
1.2800000000	10.8591012692
1.2850000000	6.8288574698
1.2900000000	4.6805646218
1.2950000000	3.4112700804
1.3000000000	2.6027853799
1.3050000000	2.0584352128
1.3100000000	1.6745807702
1.3150000000	1.3972271388
1.3200000000	1.1916249163
1.3250000000	1.0369022848
1.3300000000	0.9203819190
1.3350000000	0.8342849815
1.3400000000	0.7745730932
1.3450000000	0.7401393135
1.3500000000	0.7360083663
1.3550000000	0.7736191776
1.3600000000	0.8820767639
1.3650000000	1.1354448650
1.3700000000	1.7405153987
1.3750000000	3.2459737059
1.3800000000	5.3021026112
1.3850000000	3.7039137847
1.3900000000	1.8875246950
1.3950000000	1.0951952801
1.4000000000	0.7172374351
1.4050000000	0.4849488462
1.4100000000	0.2747153698
1.4150000000	-0.0388999103
1.4200000000	-0.7410235850
1.4250000000	-2.6014557021
1.4300000000	-3.4978384600
1.4350000000	1.6025209290
1.4400000000	2.0498677685
1.4450000000	1.2289879761
1.4500000000	0.7647283119
1.4550000000	0.5271618506
1.4600000000	0.3892777327
1.4650000000	0.2803044204
1.4700000000	0.1637381821
1.4750000000	0.1924258863
1.4800000000	0.2821173223
1.4850000000	0.2561715146
1.4900000000	0.2268328251
1.4950000000	0.2078563812
1.5000000000	0.1953903955
1.5050000000	0.1871477854
1.5100000000	0.1815403194
1.5150000000	0.1784803775
1.5200000000	0.1762244353
1.5250000000	0.1754098178
1.5300000000	0.1761112754
1.5350000000	0.1786502124
1.5400000000	0.1838286660
1.5450000000	0.1934279219
1.5500000000	0.2114516735
1.5550000000	0.2458803891
1.5600000000	0.2975596928
1.5650000000	0.3058427071
1.5700000000	0.2592105501
1.5750000000	0.2264893882
1.5800000000	0.2123763312
1.5850000000	0.2079387854
1.5900000000	0.2085194251
1.5950000000	0.2120957313
1.6000000000	0.2177866001
1.6050000000	0.2252888002
1.6100000000	0.2343758647
1.6150000000	0.2450141549
1.6200000000	0.2573731811
1.6250000000	0.2715991776
1.6300000000	0.2879324261
1.6350000000	0.3066826837
1.6400000000	0.3282460349
1.6450000000	0.3531283499
1.6500000000	0.3819646136
1.6550000000	0.4155595252
1.6600000000	0.4549556529
1.6650000000	0.5014987290
1.6700000000	0.5564972427
1.6750000000	0.6231621754
1.6800000000	0.7043318184
1.6850000000	0.8044713102
1.6900000000	0.9299203033
1.6950000000	1.0899820671
1.7000000000	1.2986616038
1.7050000000	1.5865412538
1.7100000000	1.9881857225
1.7150000000	2.5719865933
1.7200000000	3.4617226464
1.7250000000	4.8732589875
1.7300000000	7.0424024717
1.7350000000	9.8260667252
1.7400000000	13.3449523149
1.7450000000	19.5200316745
1.7500000000	27.5359111549
1.7550000000	27.9788573657
1.7600000000	19.6289680717
1.7650000000	12.2270295020
1.7700000000	7.8380152988
1.7750000000	5.3422576927
1.7800000000	3.8673701672
1.7850000000	2.9601306524
1.7900000000	2.3975035665
1.7950000000	2.0755740703
1.8000000000	1.9456330145
1.8050000000	1.9044914932
1.8100000000	1.6944484639
1.8150000000	1.3129548500
1.8200000000	1.0081689092
1.8250000000	0.8510244813
1.8300000000	0.7409071046
1.8350000000	0.6430421519
1.8400000000	0.5632402792
1.8450000000	0.4999124542
1.8500000000	0.4488769219
1.8550000000	0.4067158907
1.8600000000	0.3679336488
1.8650000000	0.3351471160
1.8700000000	0.3020116349
1.8750000000	0.2542439600
1.8800000000	0.1453561640
1.8850000000	-0.0932960883
1.8900000000	-0.4142994888
1.8950000000	-0.4693791442
1.9000000000	0.0502310938
1.9050000000	0.5346934155
1.9100000000	0.5912234286
1.9150000000	0.4994736401
1.9200000000	0.4095502009
1.9250000000	0.3457397295
1.9300000000	0.3070950386
1.9350000000	0.2775904086
1.9400000000	0.2579614350
1.9450000000	0.2449661175
1.9500000000	0.2358823031
1.9550000000	0.2282843357
1.9600000000	0.2217269984
1.9650000000	0.2170718523
1.9700000000	0.2145864924
1.9750000000	0.2141054387
1.9800000000	0.2154947631
1.9850000000	0.2187949185
1.9900000000	0.2242225725
1.9950000000	0.2320486878
2.0000000000	0.2420697934
2.0050000000	0.2534385297
2.0100000000	0.2615947365
2.0150000000	0.2670363667
2.0200000000	0.2735981000
2.0250000000	0.2837250067
2.0300000000	0.2981367546
2.0350000000	0.3171937851
2.0400000000	0.3415505241
2.0450000000	0.3723423329
2.0500000000	0.4111997094
2.0550000000	0.4599345299
2.0600000000	0.5194254758
2.0650000000	0.5887372265
2.0700000000	0.6689109869
2.0750000000	0.7688904246
2.0800000000	0.9034414118
2.0850000000	1.0869607807
2.0900000000	1.3278212596
2.0950000000	1.6087181053
2.1000000000	1.8590758776
2.1050000000	1.9803906926
2.1100000000	1.9227814892
2.1150000000	1.7902135317
2.1200000000	1.6965142609
2.1250000000	1.6925195217
2.1300000000	1.7933114465
2.1350000000	2.0108442094
2.1400000000	2.3690612844
2.1450000000	2.9103221475
2.1500000000	3.6939438970
2.1550000000	4.7644829223
2.1600000000	6.0356078126
2.1650000000	7.1039673188
2.1700000000	7.3564079555
2.1750000000	6.5851777578
2.1800000000	5.3163903773
2.1850000000	4.1018479397
2.1900000000	3.1522558309
2.1950000000	2.4662047381
2.2000000000	1.9848845560
2.2050000000	1.6528154624
2.2100000000	1.4222932065
2.2150000000	1.2454800587
2.2200000000	1.0870416253
2.2250000000	0.9363384349
2.2300000000	0.7998858562
2.2350000000	0.6827221405
2.2400000000	0.5834887119
2.2450000000	0.4978046168
2.2500000000	0.4213090402
2.2550000000	0.3515629748
2.2600000000	0.2818154568
2.2650000000	0.2310752797
2.2700000000	0.2035124495
2.2750000000	0.2104494763
2.2800000000	0.2504792721
2.2850000000	0.3014530089
2.2900000000	0.3387642635
2.2950000000	0.3553000949
2.3000000000	0.3571897550
2.3050000000	0.3514814416
2.3100000000	0.3439631062
2.3150000000	0.3373020382
2.3200000000	0.3325527397
2.3250000000	0.3302939777
2.3300000000	0.3309937978
2.3350000000	0.3350399389
2.3400000000	0.3427637606
2.3450000000	0.3545006583
2.3500000000	0.3706060223
2.3550000000	0.3916126559
2.3600000000	0.4171756769
2.3650000000	0.4474542008
2.3700000000	0.4823640932
2.3750000000	0.5222843671
2.3800000000	0.5686560374
2.3850000000	0.6231889533
2.3900000000	0.6862611647
2.3950000000	0.7550641675
2.4000000000	0.8223780337
2.4050000000	0.8803877370
2.4100000000	0.9125412922
2.4150000000	0.9156151371
2.4200000000	0.8974702384
2.4250000000	0.8715114701
2.4300000000	0.8496359869
2.4350000000	0.8390255505
2.4400000000	0.8425461735
2.4450000000	0.8606611703
2.4500000000	0.8934287115
2.4550000000	0.9415789910
2.4600000000	1.0081986436
2.4650000000	1.0964517618
2.4700000000	1.2098618338
2.4750000000	1.3506295005
2.4800000000	1.5176440788
2.4850000000	1.7037795609
2.4900000000	1.8927354307
2.4950000000	2.0574618837
2.5000000000	2.1641099638
2.5050000000	2.1778213306
2.5100000000	2.0846772766
2.5150000000	1.9101017800
2.5200000000	1.6947179215
2.5250000000	1.4742141615
2.5300000000	1.2703448388
2.5350000000	1.0922503999
2.5400000000	0.9412765085
2.5450000000	0.8151832609
2.5500000000	0.7107246150
2.5550000000	0.6249840540
2.5600000000	0.5532901482
2.5650000000	0.4996356990
2.5700000000	0.4610831804
2.5750000000	0.4362577410
2.5800000000	0.4224039549
2.5850000000	0.4157533007
2.5900000000	0.4127691208
2.5950000000	0.4112491687
2.6000000000	0.4104833691
2.6050000000	0.4137558036
2.6100000000	0.4189410465
2.6150000000	0.4268330840
2.6200000000	0.4378537487
2.6250000000	0.4520290226
2.6300000000	0.4689587871
2.6350000000	0.4877938396
2.6400000000	0.5072366606
2.6450000000	0.5256418791
2.6500000000	0.5412669540
2.6550000000	0.5526831670
2.6600000000	0.5592268553
2.6650000000	0.5612878100
2.6700000000	0.5602268412
2.6750000000	0.5580331424
2.6800000000	0.5566342262
2.6850000000	0.5578309889
2.6900000000	0.5628775888
2.6950000000	0.5725447941
2.7000000000	0.5872021765
2.7050000000	0.6091418244
2.7100000000	0.6373767327
2.7150000000	0.6714504677
2.7200000000	0.7104195156
2.7250000000	0.7526822032
2.7300000000	0.7958205209
2.7350000000	0.8365744905
2.7400000000	0.8710663528
2.7450000000	0.8953589062
2.7500000000	0.9062786897
2.7550000000	0.9022268740
2.7600000000	0.8836119281
2.7650000000	0.8527022398
2.7700000000	0.8129689234
2.7750000000	0.7682577654
2.7800000000	0.7220951408
2.7850000000	0.6773021328
2.7900000000	0.6355142331
2.7950000000	0.5985211333
2.8000000000	0.5666931031
2.8050000000	0.5372142322
2.8100000000	0.5139719973
2.8150000000	0.4960514514
2.8200000000	0.4824586376
2.8250000000	0.4722814682
2.8300000000	0.4647447373
2.8350000000	0.4592054338
2.8400000000	0.4551202207
2.8450000000	0.4520277954
2.8500000000	0.4495577296
2.8550000000	0.4474641102
2.8600000000	0.4456636714
2.8650000000	0.4442480939
2.8700000000	0.4434607068
2.8750000000	0.4436361873
2.8800000000	0.4451264377
2.8850000000	0.4482337551
2.8900000000	0.4531642632
2.8950000000	0.4599998584
2.9000000000	0.4686843721
2.9050000000	0.4816743574
2.9100000000	0.4959192613
2.9150000000	0.5104680361
2.9200000000	0.5241187641
2.9250000000	0.5355802939
2.9300000000	0.5436538281
2.9350000000	0.5474430451
2.9400000000	0.5465275505
2.9450000000	0.5410431582
2.9500000000	0.5316311127
2.9550000000	0.5192746581
2.9600000000	0.5050918119
2.9650000000	0.4901415875
2.9700000000	0.4752949061
2.9750000000	0.4611781306
2.9800000000	0.4481768873
2.9850000000	0.4364777110
2.9900000000	0.4261239857
2.9950000000	0.4170703125
3.0000000000	0.4092268875
