# energy (eV)    P(omega), $W$ = 300 nm, $h$ = 300 nm, $s$ = 20 nm, $d/W = 5$, $E_{\rm e}$ = 200 keV
0.2000000000	0.1391648313
0.2050000000	0.1412501891
0.2100000000	0.1432000246
0.2150000000	0.1450187541
0.2200000000	0.1467101426
0.2250000000	0.1482773894
0.2300000000	0.1497229368
0.2350000000	0.1510484038
0.2400000000	0.1522543995
0.2450000000	0.1533404616
0.2500000000	0.1543047986
0.2550000000	0.1551439922
0.2600000000	0.1558529154
0.2650000000	0.1564241198
0.2700000000	0.1568475199
0.2750000000	0.1571097481
0.2800000000	0.1571934536
0.2850000000	0.1570763287
0.2900000000	0.1567297995
0.2950000000	0.1561176109
0.3000000000	0.1551934495
0.3050000000	0.1538983004
0.3100000000	0.1521566084
0.3150000000	0.1608058966
0.3200000000	0.1710780373
0.3250000000	0.1840702208
0.3300000000	0.2014695499
0.3350000000	0.2231272597
0.3400000000	0.2514883626
0.3450000000	0.2858875892
0.3500000000	0.3308871395
0.3550000000	0.3904287338
0.3600000000	0.4681703597
0.3650000000	0.5765486101
0.3700000000	0.7194497546
0.3750000000	0.9182264892
0.3800000000	1.2057086100
0.3850000000	1.6536532683
0.3900000000	2.3612948090
0.3950000000	3.5632893153
0.4000000000	5.8546874036
0.4050000000	10.9918863983
0.4100000000	25.0092100485
0.4150000000	80.2597305171
0.4200000000	51.1373477465
0.4250000000	-96.2523545220
0.4300000000	26.7647693711
0.4350000000	16.6784334777
0.4400000000	10.1953473515
0.4450000000	6.7056108240
0.4500000000	4.6966752119
0.4550000000	3.4604002412
0.4600000000	2.6552281129
0.4650000000	2.1065534981
0.4700000000	1.7187613962
0.4750000000	1.4383020688
0.4800000000	1.2303645183
0.4850000000	1.0738961894
0.4900000000	0.9544586763
0.4950000000	0.8623595055
0.5000000000	0.7909735471
0.5050000000	0.7354400441
0.5100000000	0.6926289564
0.5150000000	0.6602358905
0.5200000000	0.6358525073
0.5250000000	0.6183934167
0.5300000000	0.6066938525
0.5350000000	0.5999019218
0.5400000000	0.5973895662
0.5450000000	0.5986321150
0.5500000000	0.6034634215
0.5550000000	0.6115876878
0.5600000000	0.6228536939
0.5650000000	0.6371934602
0.5700000000	0.6545450241
0.5750000000	0.6750295873
0.5800000000	0.6988441913
0.5850000000	0.7261173656
0.5900000000	0.7570982995
0.5950000000	0.7921005233
0.6000000000	0.8315234232
0.6050000000	0.8759459595
0.6100000000	0.9259204409
0.6150000000	0.9822014978
0.6200000000	1.0457957721
0.6250000000	1.1176683919
0.6300000000	1.1992459161
0.6350000000	1.2923063499
0.6400000000	1.3986996906
0.6450000000	1.5210963542
0.6500000000	1.6630074323
0.6550000000	1.8280878546
0.6600000000	2.0219551216
0.6650000000	2.2518170756
0.6700000000	2.5261475901
0.6750000000	2.8578686961
0.6800000000	3.2643577674
0.6850000000	3.7683790147
0.6900000000	4.4051900852
0.6950000000	5.2241016163
0.7000000000	6.3034434341
0.7050000000	7.7629614248
0.7100000000	9.8055501729
0.7150000000	12.7923851220
0.7200000000	17.3958636516
0.7250000000	25.0373322037
0.7300000000	39.0633296859
0.7350000000	69.0749034757
0.7400000000	151.3824912002
0.7450000000	502.2087891963
0.7500000000	1555.8459865626
0.7550000000	391.4069332313
0.7600000000	129.6249830087
0.7650000000	62.1089356122
0.7700000000	36.1203523135
0.7750000000	23.5747440163
0.7800000000	16.5905470312
0.7850000000	12.3218121223
0.7900000000	9.5196083082
0.7950000000	7.5869907065
0.8000000000	6.1977021438
0.8050000000	5.1629918098
0.8100000000	4.3739673592
0.8150000000	3.7484949536
0.8200000000	3.2548546186
0.8250000000	2.8573812081
0.8300000000	2.5317881413
0.8350000000	2.2640904643
0.8400000000	2.0396817813
0.8450000000	1.8513738335
0.8500000000	1.6921993963
0.8550000000	1.5548385100
0.8600000000	1.4375781507
0.8650000000	1.3374181300
0.8700000000	1.2489185042
0.8750000000	1.1736371328
0.8800000000	1.1097595329
0.8850000000	1.0524897334
0.8900000000	1.0065502848
0.8950000000	0.9647595103
0.9000000000	0.9316395858
0.9050000000	0.9088321045
0.9100000000	0.8879313618
0.9150000000	0.8752565019
0.9200000000	0.8737384691
0.9250000000	0.8726145039
0.9300000000	0.8598209354
0.9350000000	0.8214141608
0.9400000000	0.6074206976
0.9450000000	-0.3652675338
0.9500000000	-5.4985882259
0.9550000000	-31.5357407722
0.9600000000	7.4413327095
0.9650000000	13.0718493859
0.9700000000	5.7978715514
0.9750000000	3.0437439929
0.9800000000	1.9075537141
0.9850000000	1.3761539915
0.9900000000	1.0699722438
0.9950000000	0.8843107678
1.0000000000	0.7657653990
1.0050000000	0.6906108938
1.0100000000	0.6323471837
1.0150000000	0.5897817922
1.0200000000	0.5611119351
1.0250000000	0.5370474187
1.0300000000	0.5187658577
1.0350000000	0.5049357802
1.0400000000	0.4961431514
1.0450000000	0.4888315728
1.0500000000	0.4840080631
1.0550000000	0.4813870322
1.0600000000	0.4816139609
1.0650000000	0.4828922738
1.0700000000	0.4859543951
1.0750000000	0.4908130640
1.0800000000	0.4979488630
1.0850000000	0.5070044242
1.0900000000	0.5203630538
1.0950000000	0.5362272920
1.1000000000	0.5551295511
1.1050000000	0.5769146518
1.1100000000	0.6022708833
1.1150000000	0.6317683325
1.1200000000	0.6660830165
1.1250000000	0.7060977733
1.1300000000	0.7529960867
1.1350000000	0.8082509589
1.1400000000	0.8735399883
1.1450000000	0.9519252321
1.1500000000	1.0467367553
1.1550000000	1.1627885844
1.1600000000	1.3068724365
1.1650000000	1.4878011372
1.1700000000	1.7220828884
1.1750000000	2.0316333491
1.1800000000	2.4526822637
1.1850000000	3.0447823683
1.1900000000	3.9201708448
1.1950000000	5.2943494008
1.2000000000	7.6251469546
1.2050000000	12.0297353322
1.2100000000	21.7189579846
1.2150000000	47.9089225169
1.2200000000	117.5783254408
1.2250000000	105.6379204924
1.2300000000	42.1391872306
1.2350000000	19.7645607482
1.2400000000	11.2895974140
1.2450000000	7.3983493652
1.2500000000	5.3455941368
1.2550000000	4.1609515408
1.2600000000	3.4401429565
1.2650000000	2.9887063877
1.2700000000	2.7196099756
1.2750000000	2.5764252765
1.2800000000	2.5322990641
1.2850000000	2.5755136469
1.2900000000	2.7051447506
1.2950000000	2.9279391306
1.3000000000	3.2713907106
1.3050000000	3.7707602906
1.3100000000	4.4917735811
1.3150000000	5.5481481224
1.3200000000	7.1443129320
1.3250000000	9.6699095161
1.3300000000	13.9782803886
1.3350000000	22.0479110932
1.3400000000	39.2950608601
1.3450000000	82.1114866958
1.3500000000	174.2615705227
1.3550000000	162.5247871299
1.3600000000	74.9481812379
1.3650000000	36.8248197414
1.3700000000	21.1186091296
1.3750000000	13.5811772002
1.3800000000	9.4713576560
1.3850000000	6.9956476025
1.3900000000	5.4000261255
1.3950000000	4.3113862697
1.4000000000	3.5370225241
1.4050000000	2.9682813885
1.4100000000	2.5393603428
1.4150000000	2.2109557958
1.4200000000	1.9553503612
1.4250000000	1.7652158666
1.4300000000	1.6444256172
1.4350000000	1.5648673420
1.4400000000	1.0763948460
1.4450000000	-0.2771412865
1.4500000000	-2.6318203375
1.4550000000	-0.8789542554
1.4600000000	2.6784351166
1.4650000000	1.5512165211
1.4700000000	-0.9915487510
1.4750000000	-5.0147076991
1.4800000000	-2.2125079082
1.4850000000	3.7901453979
1.4900000000	3.0682407053
1.4950000000	1.9906347164
1.5000000000	1.4014905119
1.5050000000	1.0825593008
1.5100000000	0.8999939490
1.5150000000	0.7880596416
1.5200000000	0.7147440176
1.5250000000	0.6682081994
1.5300000000	0.6315362499
1.5350000000	0.6048953333
1.5400000000	0.5855949204
1.5450000000	0.5720305296
1.5500000000	0.5630925411
1.5550000000	0.5583183274
1.5600000000	0.5586624697
1.5650000000	0.5621945919
1.5700000000	0.5709714775
1.5750000000	0.5866072947
1.5800000000	0.6123177081
1.5850000000	0.6544353245
1.5900000000	0.7263575346
1.5950000000	0.8577027429
1.6000000000	1.1108931545
1.6050000000	1.5264483886
1.6100000000	1.7202721208
1.6150000000	1.3701152828
1.6200000000	1.0454291028
1.6250000000	0.8804231050
1.6300000000	0.8047389826
1.6350000000	0.7736018679
1.6400000000	0.7667307452
1.6450000000	0.7748495240
1.6500000000	0.7934434669
1.6550000000	0.8206602602
1.6600000000	0.8555565471
1.6650000000	0.8980072333
1.6700000000	0.9483660758
1.6750000000	1.0073599048
1.6800000000	1.0760507201
1.6850000000	1.1558558527
1.6900000000	1.2484217626
1.6950000000	1.3547026504
1.7000000000	1.4770386794
1.7050000000	1.6185694563
1.7100000000	1.7901075426
1.7150000000	2.0785255561
1.7200000000	2.5142003579
1.7250000000	2.9850332719
1.7300000000	3.5448151872
1.7350000000	4.1504910684
1.7400000000	4.7097120066
1.7450000000	5.4145215971
1.7500000000	6.4949282227
1.7550000000	8.1153927508
1.7600000000	10.5466002677
1.7650000000	14.2973344475
1.7700000000	20.3393540760
1.7750000000	30.5159025008
1.7800000000	47.8483650351
1.7850000000	73.3897681619
1.7900000000	91.1436806492
1.7950000000	77.5490449548
1.8000000000	51.5615495753
1.8050000000	32.5245884089
1.8100000000	21.4145501782
1.8150000000	14.9042811830
1.8200000000	10.8980698035
1.8250000000	8.3003675178
1.8300000000	6.5356550494
1.8350000000	5.2887049857
1.8400000000	4.3785868901
1.8450000000	3.6954079090
1.8500000000	3.1698388991
1.8550000000	2.7584118865
1.8600000000	2.4305537771
1.8650000000	2.1652500103
1.8700000000	1.9471889792
1.8750000000	1.7646271007
1.8800000000	1.6075698178
1.8850000000	1.4662744120
1.8900000000	1.3286847115
1.8950000000	1.1765374588
1.9000000000	0.9788860751
1.9050000000	0.6347315700
1.9100000000	0.1405393058
1.9150000000	-0.3349601433
1.9200000000	0.2414649166
1.9250000000	2.5442280739
1.9300000000	4.3837392849
1.9350000000	4.4246219212
1.9400000000	3.5516824934
1.9450000000	2.6916325563
1.9500000000	2.0820677673
1.9550000000	1.6788764378
1.9600000000	1.4101994106
1.9650000000	1.2311682016
1.9700000000	1.0993836152
1.9750000000	1.0027484084
1.9800000000	0.9294025477
1.9850000000	0.8708407359
1.9900000000	0.8207313889
1.9950000000	0.7737071323
2.0000000000	0.7288036911
2.0050000000	0.7020996786
2.0100000000	0.7200466078
2.0150000000	0.7668515225
2.0200000000	0.7984686991
2.0250000000	0.8122004664
2.0300000000	0.8226620528
2.0350000000	0.8366160673
2.0400000000	0.8573493750
2.0450000000	0.8862552960
2.0500000000	0.9247493321
2.0550000000	0.9742389939
2.0600000000	1.0348049367
2.0650000000	1.1016179500
2.0700000000	1.1626565069
2.0750000000	1.2085334905
2.0800000000	1.2462310875
2.0850000000	1.2909207093
2.0900000000	1.3522537440
2.0950000000	1.4335774613
2.1000000000	1.5374585646
2.1050000000	1.6623337585
2.1100000000	1.8169033709
2.1150000000	2.0074041183
2.1200000000	2.2428047520
2.1250000000	2.5358310910
2.1300000000	2.9045138392
2.1350000000	3.3746510960
2.1400000000	3.9835021174
2.1450000000	4.7855283601
2.1500000000	5.8600394135
2.1550000000	7.3192098203
2.1600000000	9.3065605035
2.1650000000	11.9437201272
2.1700000000	15.1843280887
2.1750000000	18.4157251590
2.1800000000	20.4450638467
2.1850000000	20.6351768084
2.1900000000	19.8645518056
2.1950000000	19.3177909852
2.2000000000	19.1267468088
2.2050000000	18.2281241451
2.2100000000	16.1669221290
2.2150000000	13.5734865678
2.2200000000	11.2146306082
2.2250000000	9.3031964529
2.2300000000	7.7338451570
2.2350000000	6.4202858720
2.2400000000	5.3416787060
2.2450000000	4.4899662529
2.2500000000	3.8299401877
2.2550000000	3.3191345676
2.2600000000	2.9182316903
2.2650000000	2.5917867128
2.2700000000	2.3062432594
2.2750000000	2.0332375222
2.2800000000	1.7661731895
2.2850000000	1.5376542777
2.2900000000	1.4032273253
2.2950000000	1.3877993822
2.3000000000	1.4485077305
2.3050000000	1.5124947203
2.3100000000	1.5350962382
2.3150000000	1.5177152323
2.3200000000	1.4796621544
2.3250000000	1.4407842872
2.3300000000	1.4116182877
2.3350000000	1.3952395093
2.3400000000	1.3893325014
2.3450000000	1.3871621267
2.3500000000	1.3800532917
2.3550000000	1.3624640882
2.3600000000	1.3359277297
2.3650000000	1.3072041152
2.3700000000	1.2831640895
2.3750000000	1.2676267872
2.3800000000	1.2612059071
2.3850000000	1.2623682037
2.3900000000	1.2691549798
2.3950000000	1.2796888209
2.4000000000	1.2949044982
2.4050000000	1.3187716520
2.4100000000	1.3529766061
2.4150000000	1.3998485243
2.4200000000	1.4609936820
2.4250000000	1.5381346169
2.4300000000	1.6333854654
2.4350000000	1.7494567069
2.4400000000	1.8898365253
2.4450000000	2.0589976160
2.4500000000	2.2626087050
2.4550000000	2.5078222679
2.4600000000	2.8034329326
2.4650000000	3.1600430950
2.4700000000	3.5898529014
2.4750000000	4.1051639172
2.4800000000	4.7189574945
2.4850000000	5.4366247526
2.4900000000	6.2514406742
2.4950000000	7.1336815081
2.5000000000	8.0191791006
2.5050000000	8.8398849796
2.5100000000	9.3780198294
2.5150000000	9.5114207551
2.5200000000	9.2196637720
2.5250000000	8.5932333087
2.5300000000	7.7759115442
2.5350000000	6.8981416691
2.5400000000	6.0460119443
2.5450000000	5.2644473713
2.5500000000	4.5715392503
2.5550000000	3.9703951029
2.5600000000	3.4524400457
2.5650000000	3.0157881378
2.5700000000	2.6511679350
2.5750000000	2.3529774920
2.5800000000	2.1169343469
2.5850000000	1.9379851233
2.5900000000	1.8072938927
2.5950000000	1.7121787690
2.6000000000	1.6393831346
2.6050000000	1.5874397403
2.6100000000	1.5413871669
2.6150000000	1.5006077155
2.6200000000	1.4660587199
2.6250000000	1.4387217234
2.6300000000	1.4192262436
2.6350000000	1.4078740870
2.6400000000	1.4048241608
2.6450000000	1.4102377535
2.6500000000	1.4244462756
2.6550000000	1.4475237526
2.6600000000	1.4799766668
2.6650000000	1.5222868380
2.6700000000	1.5750217880
2.6750000000	1.6388451431
2.6800000000	1.7144664058
2.6850000000	1.8026116970
2.6900000000	1.9039233459
2.6950000000	2.0188929429
2.7000000000	2.1477010610
2.7050000000	2.3054189945
2.7100000000	2.4800550967
2.7150000000	2.6694777864
2.7200000000	2.8701055272
2.7250000000	3.0768454856
2.7300000000	3.2831057041
2.7350000000	3.4808181212
2.7400000000	3.6603855209
2.7450000000	3.8122314339
2.7500000000	3.9221349988
2.7550000000	3.9806830897
2.7600000000	3.9807669468
2.7650000000	3.9208209486
2.7700000000	3.8056195016
2.7750000000	3.6454715758
2.7800000000	3.4539832332
2.7850000000	3.2456261813
2.7900000000	3.0333654359
2.7950000000	2.8275930578
2.8000000000	2.6356622279
2.8050000000	2.4407096656
2.8100000000	2.2728884322
2.8150000000	2.1318230279
2.8200000000	2.0153098145
2.8250000000	1.9204190794
2.8300000000	1.8441958365
2.8350000000	1.7841247510
2.8400000000	1.7375301025
2.8450000000	1.7045747875
2.8500000000	1.6832930928
2.8550000000	1.6729417790
2.8600000000	1.6729727798
2.8650000000	1.6829209603
2.8700000000	1.7023329184
2.8750000000	1.7306907647
2.8800000000	1.7673619010
2.8850000000	1.8115447276
2.8900000000	1.8622826199
2.8950000000	1.9184416519
2.9000000000	1.9787748263
2.9050000000	2.0550669093
2.9100000000	2.1313136802
2.9150000000	2.2047928689
2.9200000000	2.2723792405
2.9250000000	2.3304663462
2.9300000000	2.3756948071
2.9350000000	2.4033527523
2.9400000000	2.4111950045
2.9450000000	2.3981245658
2.9500000000	2.3650376370
2.9550000000	2.3147481791
2.9600000000	2.2514412749
2.9650000000	2.1799352072
2.9700000000	2.1049430187
2.9750000000	2.0305284058
2.9800000000	1.9598337824
2.9850000000	1.8950308534
2.9900000000	1.8374578720
2.9950000000	1.7877636551
3.0000000000	1.7461363658
