# energy (eV)    P(omega), $W$ = 400 nm, $h$ = 300 nm, $s$ = 20 nm, $d/W = 5$, $E_{\rm e}$ = 200 keV
0.2000000000	0.0430747162
0.2050000000	0.0434665667
0.2100000000	0.0437424969
0.2150000000	0.0438978596
0.2200000000	0.0439261573
0.2250000000	0.0438185631
0.2300000000	0.0435634636
0.2350000000	0.0431457377
0.2400000000	0.0425459403
0.2450000000	0.0417390102
0.2500000000	0.0406929074
0.2550000000	0.0393664057
0.2600000000	0.0377063800
0.2650000000	0.0394459461
0.2700000000	0.0438646235
0.2750000000	0.0501876467
0.2800000000	0.0589974670
0.2850000000	0.0719855169
0.2900000000	0.0880787910
0.2950000000	0.1111499872
0.3000000000	0.1421644970
0.3050000000	0.1897025582
0.3100000000	0.2559220745
0.3150000000	0.3840541138
0.3200000000	0.5841727611
0.3250000000	0.7211856427
0.3300000000	0.9107194979
0.3350000000	1.1794121157
0.3400000000	1.6012065253
0.3450000000	2.3248725048
0.3500000000	3.7679292565
0.3550000000	7.1084376644
0.3600000000	17.4699650484
0.3650000000	0.0788319621
0.3700000000	8.0968422757
0.3750000000	10.6470884435
0.3800000000	4.9612126492
0.3850000000	2.7947176568
0.3900000000	1.7925784418
0.3950000000	1.2632030358
0.4000000000	0.9566944990
0.4050000000	0.7568719571
0.4100000000	0.6267830783
0.4150000000	0.5409825331
0.4200000000	0.4867554455
0.4250000000	0.4441670697
0.4300000000	0.3938416744
0.4350000000	0.3540120876
0.4400000000	0.3225113759
0.4450000000	0.2974646693
0.4500000000	0.2776905433
0.4550000000	0.2620103503
0.4600000000	0.2497786836
0.4650000000	0.2403128979
0.4700000000	0.2331610754
0.4750000000	0.2280070302
0.4800000000	0.2245748422
0.4850000000	0.2226225718
0.4900000000	0.2220071495
0.4950000000	0.2226185021
0.5000000000	0.2243625890
0.5050000000	0.2271974965
0.5100000000	0.2310888916
0.5150000000	0.2360163797
0.5200000000	0.2419901829
0.5250000000	0.2490186925
0.5300000000	0.2572050883
0.5350000000	0.2665952542
0.5400000000	0.2772717946
0.5450000000	0.2893430304
0.5500000000	0.3029622236
0.5550000000	0.3182970087
0.5600000000	0.3355514333
0.5650000000	0.3549878677
0.5700000000	0.3769685113
0.5750000000	0.4017618150
0.5800000000	0.4298700691
0.5850000000	0.4619795596
0.5900000000	0.4985532198
0.5950000000	0.5405651311
0.6000000000	0.5893021862
0.6050000000	0.6457289196
0.6100000000	0.7120562968
0.6150000000	0.7901178342
0.6200000000	0.8830609465
0.6250000000	0.9954010908
0.6300000000	1.1317433603
0.6350000000	1.3007409389
0.6400000000	1.5119407394
0.6450000000	1.7826668156
0.6500000000	2.1350489924
0.6550000000	2.6065729379
0.6600000000	3.2605324170
0.6650000000	4.1969264063
0.6700000000	5.6148514350
0.6750000000	7.8946628273
0.6800000000	11.9246623035
0.6850000000	20.0111239712
0.6900000000	40.1055664386
0.6950000000	112.5825225993
0.7000000000	546.0357507794
0.7050000000	265.4692465251
0.7100000000	68.1936466853
0.7150000000	28.9998517662
0.7200000000	15.8372315040
0.7250000000	9.9486392027
0.7300000000	6.8234104249
0.7350000000	4.9759302709
0.7400000000	3.7928698492
0.7450000000	2.9898543279
0.7500000000	2.4210126246
0.7550000000	2.0031007698
0.7600000000	1.6881109191
0.7650000000	1.4438405610
0.7700000000	1.2510139505
0.7750000000	1.0962101307
0.7800000000	0.9704112183
0.7850000000	0.8668285898
0.7900000000	0.7800503273
0.7950000000	0.7075744888
0.8000000000	0.6459504418
0.8050000000	0.5931543840
0.8100000000	0.5482090854
0.8150000000	0.5088163851
0.8200000000	0.4745208089
0.8250000000	0.4457408415
0.8300000000	0.4205488356
0.8350000000	0.3986480465
0.8400000000	0.3812073783
0.8450000000	0.3659894761
0.8500000000	0.3530863381
0.8550000000	0.3449305162
0.8600000000	0.3383976225
0.8650000000	0.3337201146
0.8700000000	0.3353489424
0.8750000000	0.3359196068
0.8800000000	0.3341117468
0.8850000000	0.3195844456
0.8900000000	0.2480076878
0.8950000000	-0.1107013249
0.9000000000	-2.0342000502
0.9050000000	-13.3661896985
0.9100000000	2.5451869334
0.9150000000	6.0290832960
0.9200000000	2.5027888983
0.9250000000	1.3020210978
0.9300000000	0.7947818334
0.9350000000	0.5524387560
0.9400000000	0.4217042377
0.9450000000	0.3492380586
0.9500000000	0.2977745802
0.9550000000	0.2633243933
0.9600000000	0.2420169399
0.9650000000	0.2244344385
0.9700000000	0.2118858562
0.9750000000	0.2033302698
0.9800000000	0.1981159796
0.9850000000	0.1971474163
0.9900000000	0.1990230859
0.9950000000	0.2066500049
1.0000000000	0.2249055199
1.0050000000	0.2675446756
1.0100000000	0.3793013739
1.0150000000	0.7623461281
1.0200000000	1.4636171642
1.0250000000	0.6656377618
1.0300000000	0.3411499035
1.0350000000	0.2444376269
1.0400000000	0.2064073625
1.0450000000	0.1885680623
1.0500000000	0.1796283398
1.0550000000	0.1749403304
1.0600000000	0.1728391343
1.0650000000	0.1724506651
1.0700000000	0.1732903118
1.0750000000	0.1751877222
1.0800000000	0.1778039802
1.0850000000	0.1813628458
1.0900000000	0.1865040238
1.0950000000	0.1924970579
1.1000000000	0.1994007404
1.1050000000	0.2072275943
1.1100000000	0.2161014913
1.1150000000	0.2261405375
1.1200000000	0.2374848710
1.1250000000	0.2502504500
1.1300000000	0.2647680147
1.1350000000	0.2812604488
1.1400000000	0.3000616035
1.1450000000	0.3215959530
1.1500000000	0.3461937839
1.1550000000	0.3748836449
1.1600000000	0.4083158771
1.1650000000	0.4473423076
1.1700000000	0.4921398820
1.1750000000	0.5375743139
1.1800000000	0.5805793682
1.1850000000	0.8069216013
1.1900000000	1.0013759392
1.1950000000	1.3727029187
1.2000000000	1.8695005620
1.2050000000	1.6399097987
1.2100000000	1.5694564857
1.2150000000	1.7472736541
1.2200000000	2.0897666752
1.2250000000	2.6157215080
1.2300000000	3.4154709687
1.2350000000	4.6805903836
1.2400000000	6.8116850267
1.2450000000	10.8245245157
1.2500000000	19.5152102339
1.2550000000	42.2443719519
1.2600000000	102.0379221366
1.2650000000	103.3603374541
1.2700000000	42.9958609024
1.2750000000	19.8469625491
1.2800000000	10.9916220862
1.2850000000	6.9121986550
1.2900000000	4.7376905182
1.2950000000	3.4529067635
1.3000000000	2.6345560521
1.3050000000	2.0835631601
1.3100000000	1.6950246245
1.3150000000	1.4142866620
1.3200000000	1.2061758716
1.3250000000	1.0495657794
1.3300000000	0.9316244463
1.3350000000	0.8444782338
1.3400000000	0.7840396664
1.3450000000	0.7491886538
1.3500000000	0.7450118689
1.3550000000	0.7830890710
1.3600000000	0.8928831703
1.3650000000	1.1493682976
1.3700000000	1.7618780454
1.3750000000	3.2858415032
1.3800000000	5.3672435876
1.3850000000	3.7494145261
1.3900000000	1.9107031390
1.3950000000	1.1086378134
1.4000000000	0.7260375846
1.4050000000	0.4908985861
1.4100000000	0.2780897849
1.4150000000	-0.0393607379
1.4200000000	-0.7500637317
1.4250000000	-2.6332235479
1.4300000000	-3.5405588723
1.4350000000	1.6221033028
1.4400000000	2.0749149874
1.4450000000	1.2440067936
1.4500000000	0.7740749723
1.4550000000	0.5336055646
1.4600000000	0.3940358486
1.4650000000	0.2837287276
1.4700000000	0.1657334988
1.4750000000	0.1947754059
1.4800000000	0.2855695963
1.4850000000	0.2593060689
1.4900000000	0.2296077310
1.4950000000	0.2103987074
1.5000000000	0.1977799500
1.5050000000	0.1894362849
1.5100000000	0.1837600064
1.5150000000	0.1806623768
1.5200000000	0.1783785179
1.5250000000	0.1775534949
1.5300000000	0.1782628915
1.5350000000	0.1808319009
1.5400000000	0.1860720952
1.5450000000	0.1957859706
1.5500000000	0.2140249067
1.5550000000	0.2488644113
1.5600000000	0.3011600754
1.5650000000	0.3095422441
1.5700000000	0.2623554045
1.5750000000	0.2292457470
1.5800000000	0.2149661546
1.5850000000	0.2104775761
1.5900000000	0.2110672138
1.5950000000	0.2146884787
1.6000000000	0.2204498040
1.6050000000	0.2280444027
1.6100000000	0.2372431336
1.6150000000	0.2480119979
1.6200000000	0.2605226079
1.6250000000	0.2749230120
1.6300000000	0.2914564477
1.6350000000	0.3104364758
1.6400000000	0.3322640391
1.6450000000	0.3574512099
1.6500000000	0.3866407576
1.6550000000	0.4206472432
1.6600000000	0.4605260118
1.6650000000	0.5076392874
1.6700000000	0.5633116038
1.6750000000	0.6307932784
1.6800000000	0.7129573975
1.6850000000	0.8143238314
1.6900000000	0.9413099371
1.6950000000	1.1033330417
1.7000000000	1.3145698543
1.7050000000	1.6059776604
1.7100000000	2.0125451237
1.7150000000	2.6035027497
1.7200000000	3.5041478493
1.7250000000	4.9329936655
1.7300000000	7.1287359511
1.7350000000	9.9465076611
1.7400000000	13.5084539801
1.7450000000	19.7591083800
1.7500000000	27.8731209191
1.7550000000	28.3214862678
1.7600000000	19.8693510642
1.7650000000	12.3767722571
1.7700000000	7.9340109316
1.7750000000	5.4076897920
1.7800000000	3.9147400525
1.7850000000	2.9963898412
1.7900000000	2.4268724756
1.7950000000	2.1010007416
1.8000000000	1.9694691457
1.8050000000	1.9278246054
1.8100000000	1.7152082934
1.8150000000	1.3290399406
1.8200000000	1.0205196962
1.8250000000	0.8614512520
1.8300000000	0.7499855899
1.8350000000	0.6509218000
1.8400000000	0.5701422439
1.8450000000	0.5060385942
1.8500000000	0.4543778963
1.8550000000	0.4117005006
1.8600000000	0.3724434023
1.8650000000	0.3392556403
1.8700000000	0.3057149153
1.8750000000	0.2573629743
1.8800000000	0.1471417919
1.8850000000	-0.0944349512
1.8900000000	-0.4193728417
1.8950000000	-0.4751285838
1.9000000000	0.0508480656
1.9050000000	0.5412465670
1.9100000000	0.5984690588
1.9150000000	0.5055946895
1.9200000000	0.4145689772
1.9250000000	0.3499761218
1.9300000000	0.3108572713
1.9350000000	0.2809902075
1.9400000000	0.2611194276
1.9450000000	0.2479632456
1.9500000000	0.2387668363
1.9550000000	0.2310759640
1.9600000000	0.2244397382
1.9650000000	0.2197290804
1.9700000000	0.2172143479
1.9750000000	0.2167280535
1.9800000000	0.2181347328
1.9850000000	0.2214753933
1.9900000000	0.2269693631
1.9950000000	0.2348908990
2.0000000000	0.2450340761
2.0050000000	0.2565414896
2.0100000000	0.2647977492
2.0150000000	0.2703069954
2.0200000000	0.2769503225
2.0250000000	0.2872023848
2.0300000000	0.3017916247
2.0350000000	0.3210829659
2.0400000000	0.3457389329
2.0450000000	0.3769088665
2.0500000000	0.4162432950
2.0550000000	0.4655763170
2.0600000000	0.5257973664
2.0650000000	0.5959596637
2.0700000000	0.6771172310
2.0750000000	0.7783235098
2.0800000000	0.9145255885
2.0850000000	1.1002969919
2.0900000000	1.3441131783
2.0950000000	1.6284570181
2.1000000000	1.8818869037
2.1050000000	2.0046900562
2.1100000000	1.9463732465
2.1150000000	1.8121776554
2.1200000000	1.7173276247
2.1250000000	1.7132828289
2.1300000000	1.8153103899
2.1350000000	2.0355110678
2.1400000000	2.3981220146
2.1450000000	2.9460223220
2.1500000000	3.7392567651
2.1550000000	4.8229284065
2.1600000000	6.1096469759
2.1650000000	7.1911134174
2.1700000000	7.4466523662
2.1750000000	6.6659627616
2.1800000000	5.3816117972
2.1850000000	4.1521707793
2.1900000000	3.1909301500
2.1950000000	2.4964635000
2.2000000000	2.0092394328
2.2050000000	1.6730976022
2.2100000000	1.4397483827
2.2150000000	1.2607667690
2.2200000000	1.1003844991
2.2250000000	0.9478316590
2.2300000000	0.8097039827
2.2350000000	0.6911018664
2.2400000000	0.5906501797
2.2450000000	0.5039142079
2.2500000000	0.4264795814
2.2550000000	0.3558773014
2.2600000000	0.2852734792
2.2650000000	0.2339101444
2.2700000000	0.2060085363
2.2750000000	0.2130302314
2.2800000000	0.2535509263
2.2850000000	0.3051499039
2.2900000000	0.3429186498
2.2950000000	0.3596568664
2.3000000000	0.3615690479
2.3050000000	0.3557899406
2.3100000000	0.3481787590
2.3150000000	0.3414357281
2.3200000000	0.3366283559
2.3250000000	0.3343423932
2.3300000000	0.3350514308
2.3350000000	0.3391478152
2.3400000000	0.3469669000
2.3450000000	0.3588481770
2.3500000000	0.3751514047
2.3550000000	0.3964159434
2.3600000000	0.4222927013
2.3650000000	0.4529427801
2.3700000000	0.4882810453
2.3750000000	0.5286911837
2.3800000000	0.5756318880
2.3850000000	0.6308339640
2.3900000000	0.6946800740
2.3950000000	0.7643272426
2.4000000000	0.8324669576
2.4050000000	0.8911883102
2.4100000000	0.9237362840
2.4150000000	0.9268477806
2.4200000000	0.9084802496
2.4250000000	0.8822030260
2.4300000000	0.8600592374
2.4350000000	0.8493187927
2.4400000000	0.8528829345
2.4450000000	0.8712207493
2.4500000000	0.9043912107
2.4550000000	0.9531334945
2.4600000000	1.0205720902
2.4650000000	1.1099098664
2.4700000000	1.2247135164
2.4750000000	1.3672106564
2.4800000000	1.5362769514
2.4850000000	1.7246988830
2.4900000000	1.9159757700
2.4950000000	2.0827256504
2.5000000000	2.1906838743
2.5050000000	2.2045640213
2.5100000000	2.1102764221
2.5150000000	1.9335572574
2.5200000000	1.7155284902
2.5250000000	1.4923168611
2.5300000000	1.2859438866
2.5350000000	1.1056622748
2.5400000000	0.9528342187
2.5450000000	0.8251923269
2.5500000000	0.7194506868
2.5550000000	0.6326569665
2.5600000000	0.5600823663
2.5650000000	0.5057687325
2.5700000000	0.4667424641
2.5750000000	0.4416118328
2.5800000000	0.4275875848
2.5850000000	0.4208549294
2.5900000000	0.4178337921
2.5950000000	0.4162948924
2.6000000000	0.4155194391
2.6050000000	0.4188318131
2.6100000000	0.4240804721
2.6150000000	0.4320691175
2.6200000000	0.4432247415
2.6250000000	0.4575736403
2.6300000000	0.4747107962
2.6350000000	0.4937766122
2.6400000000	0.5134576912
2.6450000000	0.5320885228
2.6500000000	0.5479052342
2.6550000000	0.5594616101
2.6600000000	0.5660858557
2.6650000000	0.5681725261
2.6700000000	0.5670990951
2.6750000000	0.5648791206
2.6800000000	0.5634637291
2.6850000000	0.5646758895
2.6900000000	0.5697851335
2.6950000000	0.5795716839
2.7000000000	0.5944096495
2.7050000000	0.6166193310
2.7100000000	0.6452015445
2.7150000000	0.6796942574
2.7200000000	0.7191423744
2.7250000000	0.7619245493
2.7300000000	0.8055930731
2.7350000000	0.8468479277
2.7400000000	0.8817637005
2.7450000000	0.9063548243
2.7500000000	0.9174088437
2.7550000000	0.9133072917
2.7600000000	0.8944636399
2.7650000000	0.8631741499
2.7700000000	0.8229525798
2.7750000000	0.7776919747
2.7800000000	0.7309620180
2.7850000000	0.6856184716
2.7900000000	0.6433169237
2.7950000000	0.6058690589
2.8000000000	0.5736497072
2.8050000000	0.5438083261
2.8100000000	0.5202802146
2.8150000000	0.5021392008
2.8200000000	0.4883791286
2.8250000000	0.4780767169
2.8300000000	0.4704472421
2.8350000000	0.4648397965
2.8400000000	0.4607043677
2.8450000000	0.4575739839
2.8500000000	0.4550736625
2.8550000000	0.4529544667
2.8600000000	0.4511321016
2.8650000000	0.4496993657
2.8700000000	0.4489025658
2.8750000000	0.4490804805
2.8800000000	0.4505893215
2.8850000000	0.4537350918
2.8900000000	0.4587264376
2.8950000000	0.4656462583
2.9000000000	0.4744376891
2.9050000000	0.4875874875
2.9100000000	0.5020075818
2.9150000000	0.5167352389
2.9200000000	0.5305537740
2.9250000000	0.5421561721
2.9300000000	0.5503289069
2.9350000000	0.5541646464
2.9400000000	0.5532378346
2.9450000000	0.5476859591
2.9500000000	0.5381581501
2.9550000000	0.5256497406
2.9600000000	0.5112924945
2.9650000000	0.4961584459
2.9700000000	0.4811292242
2.9750000000	0.4668388954
2.9800000000	0.4536778276
2.9850000000	0.4418348499
2.9900000000	0.4313538815
2.9950000000	0.4221889647
3.0000000000	0.4142491899
