# energy (eV)    P(omega), $W$ = 400 nm, $h$ = 300 nm, $s$ = 20 nm, $d/W = 5$, $E_{\rm e}$ = 200 keV
0.2000000000	0.1033348296
0.2050000000	0.1042749008
0.2100000000	0.1049372021
0.2150000000	0.1053105785
0.2200000000	0.1053794377
0.2250000000	0.1051226008
0.2300000000	0.1045122097
0.2350000000	0.1035119945
0.2400000000	0.1020753203
0.2450000000	0.1001420800
0.2500000000	0.0976354371
0.2550000000	0.0944565228
0.2600000000	0.0904779394
0.2650000000	0.0946490253
0.2700000000	0.1052431177
0.2750000000	0.1204032315
0.2800000000	0.1415261028
0.2850000000	0.1726673999
0.2900000000	0.2112551832
0.2950000000	0.2665752806
0.3000000000	0.3409435169
0.3050000000	0.4549344207
0.3100000000	0.6137247628
0.3150000000	0.9209793821
0.3200000000	1.4008640190
0.3250000000	1.7294439846
0.3300000000	2.1839841576
0.3350000000	2.8283716578
0.3400000000	3.8399420968
0.3450000000	5.5754929530
0.3500000000	9.0363706421
0.3550000000	17.0479834263
0.3600000000	41.8985225430
0.3650000000	0.1882545501
0.3700000000	19.4197857904
0.3750000000	25.5367707658
0.3800000000	11.8996146788
0.3850000000	6.7033748840
0.3900000000	4.2997647976
0.3950000000	3.0300584453
0.4000000000	2.2948938246
0.4050000000	1.8156136169
0.4100000000	1.5035916958
0.4150000000	1.2977985837
0.4200000000	1.1677389600
0.4250000000	1.0655948485
0.4300000000	0.9448852213
0.4350000000	0.8493506416
0.4400000000	0.7737939396
0.4450000000	0.7137182652
0.4500000000	0.6662900889
0.4550000000	0.6286823166
0.4600000000	0.5993470119
0.4650000000	0.5766467957
0.4700000000	0.5594977083
0.4750000000	0.5471414299
0.4800000000	0.5389161732
0.4850000000	0.5342416311
0.4900000000	0.5327747144
0.4950000000	0.5342514438
0.5000000000	0.5384463610
0.5050000000	0.5452590008
0.5100000000	0.5546071213
0.5150000000	0.5664419159
0.5200000000	0.5807880371
0.5250000000	0.5976657537
0.5300000000	0.6173228160
0.5350000000	0.6398694725
0.5400000000	0.6655041380
0.5450000000	0.6944868859
0.5500000000	0.7271857615
0.5550000000	0.7640032409
0.5600000000	0.8054292738
0.5650000000	0.8520938039
0.5700000000	0.9048664433
0.5750000000	0.9643917899
0.5800000000	1.0318757944
0.5850000000	1.1089661295
0.5900000000	1.1967744150
0.5950000000	1.2976393143
0.6000000000	1.4146504847
0.6050000000	1.5501239782
0.6100000000	1.7093680075
0.6150000000	1.8967849903
0.6200000000	2.1199317360
0.6250000000	2.3896496101
0.6300000000	2.7169957222
0.6350000000	3.1227459205
0.6400000000	3.6298227398
0.6450000000	4.2798208741
0.6500000000	5.1258749747
0.6550000000	6.2579884367
0.6600000000	7.8281308513
0.6650000000	10.0764038836
0.6700000000	13.4808448643
0.6750000000	18.9547052777
0.6800000000	28.6308422460
0.6850000000	48.0467562587
0.6900000000	96.2945665738
0.6950000000	270.3165428327
0.7000000000	1311.0740502446
0.7050000000	637.4187645741
0.7100000000	163.7415876370
0.7150000000	69.6330313267
0.7200000000	38.0279767060
0.7250000000	23.8886742017
0.7300000000	16.3845397077
0.7350000000	11.9484456788
0.7400000000	9.1077148916
0.7450000000	7.1795274543
0.7500000000	5.8136275891
0.7550000000	4.8101349638
0.7600000000	4.0537758544
0.7650000000	3.4672269125
0.7700000000	3.0042040581
0.7750000000	2.6324815206
0.7800000000	2.3304057845
0.7850000000	2.0816761406
0.7900000000	1.8732974137
0.7950000000	1.6992623111
0.8000000000	1.5512850002
0.8050000000	1.4245058532
0.8100000000	1.3165786279
0.8150000000	1.2219845415
0.8200000000	1.1396300609
0.8250000000	1.0705206887
0.8300000000	1.0100271493
0.8350000000	0.9574369726
0.8400000000	0.9155579172
0.8450000000	0.8790165829
0.8500000000	0.8480340432
0.8550000000	0.8284533042
0.8600000000	0.8127701282
0.8650000000	0.8015429020
0.8700000000	0.8054629501
0.8750000000	0.8068408804
0.8800000000	0.8025046143
0.8850000000	0.7676133771
0.8900000000	0.5956773960
0.8950000000	-0.2660100242
0.9000000000	-4.8866762196
0.9050000000	-32.1088413789
0.9100000000	6.1141968051
0.9150000000	14.4835303989
0.9200000000	6.0124108393
0.9250000000	3.1278172633
0.9300000000	1.9092696247
0.9350000000	1.3270787808
0.9400000000	1.0130042074
0.9450000000	0.8389074448
0.9500000000	0.7152625554
0.9550000000	0.6324860025
0.9600000000	0.5812790253
0.9650000000	0.5390140218
0.9700000000	0.5088338715
0.9750000000	0.4882340196
0.9800000000	0.4756425787
0.9850000000	0.4732217722
0.9900000000	0.4775833745
0.9950000000	0.4956702129
1.0000000000	0.5391027982
1.0050000000	0.6406664838
1.0100000000	0.9069397177
1.0150000000	1.8197381597
1.0200000000	3.4910734887
1.0250000000	1.5894533523
1.0300000000	0.8161208193
1.0350000000	0.5856280754
1.0400000000	0.4949991203
1.0450000000	0.4525000698
1.0500000000	0.4312234838
1.0550000000	0.4200844063
1.0600000000	0.4151187542
1.0650000000	0.4142435703
1.0700000000	0.4163040429
1.0750000000	0.4208962292
1.0800000000	0.4272091403
1.0850000000	0.4357827031
1.0900000000	0.4481557304
1.0950000000	0.4625734833
1.1000000000	0.4791778279
1.1050000000	0.4979996806
1.1100000000	0.5193369617
1.1150000000	0.5434738887
1.1200000000	0.5707474634
1.1250000000	0.6014363587
1.1300000000	0.6363360076
1.1350000000	0.6759818377
1.1400000000	0.7211765835
1.1450000000	0.7729403180
1.1500000000	0.8320663892
1.1550000000	0.9010270859
1.1600000000	0.9813843483
1.1650000000	1.0751825694
1.1700000000	1.1828405288
1.1750000000	1.2919899957
1.1800000000	1.3952540249
1.1850000000	1.9396938452
1.1900000000	2.4069393500
1.1950000000	3.2989879123
1.2000000000	4.4925607178
1.2050000000	3.9412962960
1.2100000000	3.7724016196
1.2150000000	4.2000311283
1.2200000000	5.0234310369
1.2250000000	6.2878239351
1.2300000000	8.2103886561
1.2350000000	11.2516723628
1.2400000000	16.3747201994
1.2450000000	26.0214104544
1.2500000000	46.9135017735
1.2550000000	101.5537700491
1.2600000000	245.2965339575
1.2650000000	248.4771446246
1.2700000000	103.3622683606
1.2750000000	47.7125350411
1.2800000000	26.4243047559
1.2850000000	16.6173454829
1.2900000000	11.3898044421
1.2950000000	8.3011672621
1.3000000000	6.3338426776
1.3050000000	5.0092537973
1.3100000000	4.0752128129
1.3150000000	3.4003325922
1.3200000000	2.9000575742
1.3250000000	2.5236022249
1.3300000000	2.2401223544
1.3350000000	2.0306957856
1.3400000000	1.8855063706
1.3450000000	1.8018792773
1.3500000000	1.7920752877
1.3550000000	1.8839958582
1.3600000000	2.1486089434
1.3650000000	2.7664894653
1.3700000000	4.2418042041
1.3750000000	7.9122593089
1.3800000000	12.9252370033
1.3850000000	9.0289322480
1.3900000000	4.6006622425
1.3950000000	2.6690786612
1.4000000000	1.7477768879
1.4050000000	1.1817099639
1.4100000000	0.6696405732
1.4150000000	-0.0938688861
1.4200000000	-1.8028125846
1.4250000000	-6.3307271835
1.4300000000	-8.5124202193
1.4350000000	3.9004895379
1.4400000000	4.9892045017
1.4450000000	2.9913468047
1.4500000000	1.8614099747
1.4550000000	1.2831841580
1.4600000000	0.9475345555
1.4650000000	0.6821531150
1.4700000000	0.3981282303
1.4750000000	0.4681978031
1.4800000000	0.6869573465
1.4850000000	0.6237635626
1.4900000000	0.5522807591
1.4950000000	0.5060494247
1.5000000000	0.4756816422
1.5050000000	0.4556014658
1.5100000000	0.4419390536
1.5150000000	0.4344784339
1.5200000000	0.4289739262
1.5250000000	0.4269747807
1.5300000000	0.4286601908
1.5350000000	0.4348077354
1.5400000000	0.4473608233
1.5450000000	0.4706367483
1.5500000000	0.5143398374
1.5550000000	0.5978131448
1.5600000000	0.7231031830
1.5650000000	0.7431974143
1.5700000000	0.6301931759
1.5750000000	0.5509229337
1.5800000000	0.5167665461
1.5850000000	0.5060708044
1.5900000000	0.5075470760
1.5950000000	0.5162937504
1.6000000000	0.5301761969
1.6050000000	0.5484612880
1.6100000000	0.5706008767
1.6150000000	0.5965147788
1.6200000000	0.6266166189
1.6250000000	0.6612632530
1.6300000000	0.7010402253
1.6350000000	0.7467021503
1.6400000000	0.7992137774
1.6450000000	0.8598071725
1.6500000000	0.9300288343
1.6550000000	1.0118385138
1.6600000000	1.1077752685
1.6650000000	1.2211164731
1.6700000000	1.3550492665
1.6750000000	1.5173929901
1.6800000000	1.7150606264
1.6850000000	1.9589271746
1.6900000000	2.2644332873
1.6950000000	2.6542385143
1.7000000000	3.1624553159
1.7050000000	3.8635736087
1.7100000000	4.8417939869
1.7150000000	6.2637227542
1.7200000000	8.4309063556
1.7250000000	11.8692221406
1.7300000000	17.1528972054
1.7350000000	23.9318483872
1.7400000000	32.4979675268
1.7450000000	47.5306924747
1.7500000000	67.0463124819
1.7550000000	68.1243049628
1.7600000000	47.7938688607
1.7650000000	29.7714978935
1.7700000000	19.0849994615
1.7750000000	13.0082409635
1.7800000000	9.4171482918
1.7850000000	7.2082287386
1.7900000000	5.8384621385
1.7950000000	5.0548871764
1.8000000000	4.7389589607
1.8050000000	4.6392764446
1.8100000000	4.1277523930
1.8150000000	3.1982157558
1.8200000000	2.4555888577
1.8250000000	2.0728010495
1.8300000000	1.8045887187
1.8350000000	1.5661970264
1.8400000000	1.3718063045
1.8450000000	1.2175522338
1.8500000000	1.0932467279
1.8550000000	0.9905627963
1.8600000000	0.8961159944
1.8650000000	0.8162779927
1.8700000000	0.7356005470
1.8750000000	0.6193019987
1.8800000000	0.3541666576
1.8850000000	-0.2269855637
1.8900000000	-1.0086973603
1.8950000000	-1.1428633180
1.9000000000	0.1224175889
1.9050000000	1.3021311420
1.9100000000	1.4397842559
1.9150000000	1.2163550322
1.9200000000	0.9973703195
1.9250000000	0.8419709694
1.9300000000	0.7478491286
1.9350000000	0.6759770514
1.9400000000	0.6281429103
1.9450000000	0.5964533040
1.9500000000	0.5742984742
1.9550000000	0.5558030177
1.9600000000	0.5398763086
1.9650000000	0.5285830705
1.9700000000	0.5225606176
1.9750000000	0.5214063608
1.9800000000	0.5247965752
1.9850000000	0.5328306453
1.9900000000	0.5460351599
1.9950000000	0.5650680996
2.0000000000	0.5894360680
2.0050000000	0.6170933828
2.0100000000	0.6369677491
2.0150000000	0.6502744397
2.0200000000	0.6663216506
2.0250000000	0.6910451290
2.0300000000	0.7261959094
2.0350000000	0.7726558756
2.0400000000	0.8320234116
2.0450000000	0.9070678365
2.0500000000	1.0017642242
2.0550000000	1.1205293036
2.0600000000	1.2655065338
2.0650000000	1.4344213660
2.0700000000	1.6298166722
2.0750000000	1.8734906453
2.0800000000	2.2014294824
2.0850000000	2.6487222326
2.0900000000	3.2357745419
2.0950000000	3.9204025700
2.1000000000	4.5305684879
2.1050000000	4.8261557967
2.1100000000	4.6855662374
2.1150000000	4.3622154079
2.1200000000	4.1335543466
2.1250000000	4.1234797922
2.1300000000	4.3687254611
2.1350000000	4.8983860191
2.1400000000	5.7707608701
2.1450000000	7.0890138010
2.1500000000	8.9976261943
2.1550000000	11.6051412551
2.1600000000	14.7012881373
2.1650000000	17.3035899175
2.1700000000	17.9185305584
2.1750000000	16.0400509090
2.1800000000	12.9496181629
2.1850000000	9.9912884927
2.1900000000	7.6782979170
2.1950000000	6.0072200983
2.2000000000	4.8348113701
2.2050000000	4.0259383046
2.2100000000	3.4644099617
2.2150000000	3.0337137404
2.2200000000	2.6477913133
2.2250000000	2.2807248765
2.2300000000	1.9483746449
2.2350000000	1.6630053921
2.2400000000	1.4213058438
2.2450000000	1.2126050829
2.2500000000	1.0262820489
2.2550000000	0.8563970135
2.2600000000	0.6865065007
2.2650000000	0.5629145048
2.2700000000	0.4957782772
2.2750000000	0.5126777222
2.2800000000	0.6101859791
2.2850000000	0.7343520593
2.2900000000	0.8252375431
2.2950000000	0.8655155582
2.3000000000	0.8701163018
2.3050000000	0.8562090061
2.3100000000	0.8378961314
2.3150000000	0.8216781674
2.3200000000	0.8101248483
2.3250000000	0.8046443534
2.3300000000	0.8063741554
2.3350000000	0.8162570939
2.3400000000	0.8350999598
2.3450000000	0.8637203147
2.3500000000	0.9029848062
2.3550000000	0.9541924372
2.3600000000	1.0165037259
2.3650000000	1.0903069423
2.3700000000	1.1753977109
2.3750000000	1.2727003300
2.3800000000	1.3857271840
2.3850000000	1.5186453934
2.3900000000	1.6723756097
2.3950000000	1.8400711825
2.4000000000	2.0041327570
2.4050000000	2.1455082300
2.4100000000	2.2238529971
2.4150000000	2.2313098480
2.4200000000	2.1870409318
2.4250000000	2.1237206342
2.4300000000	2.0703477979
2.4350000000	2.0444271493
2.4400000000	2.0529444047
2.4450000000	2.0970284979
2.4500000000	2.1768203710
2.4550000000	2.2940962226
2.4600000000	2.4563745461
2.4650000000	2.6713619868
2.4700000000	2.9476425538
2.4750000000	3.2905785948
2.4800000000	3.6974658789
2.4850000000	4.1509450457
2.4900000000	4.6113038892
2.4950000000	5.0126404629
2.5000000000	5.2724855698
2.5050000000	5.3059104787
2.5100000000	5.0790006110
2.5150000000	4.6536939220
2.5200000000	4.1289605219
2.5250000000	3.5917491296
2.5300000000	3.0950614520
2.5350000000	2.6611674263
2.5400000000	2.2933462518
2.5450000000	1.9861415562
2.5500000000	1.7316452374
2.5550000000	1.5227520753
2.5600000000	1.3480810816
2.5650000000	1.2173608022
2.5700000000	1.1234346923
2.5750000000	1.0629535410
2.5800000000	1.0292044795
2.5850000000	1.0130062127
2.5900000000	1.0057422744
2.5950000000	1.0020472742
2.6000000000	1.0001913092
2.6050000000	1.0081775299
2.6100000000	1.0208259653
2.6150000000	1.0400710258
2.6200000000	1.0669403775
2.6250000000	1.1014971194
2.6300000000	1.1427659748
2.6350000000	1.1886772446
2.6400000000	1.2360685941
2.6450000000	1.2809297998
2.6500000000	1.3190137394
2.6550000000	1.3468379958
2.6600000000	1.3627847641
2.6650000000	1.3678038102
2.6700000000	1.3652117063
2.6750000000	1.3598566565
2.6800000000	1.3564366305
2.6850000000	1.3593410683
2.6900000000	1.3716267449
2.6950000000	1.3951722769
2.7000000000	1.4308784147
2.7050000000	1.4843291207
2.7100000000	1.5531206786
2.7150000000	1.6361408722
2.7200000000	1.7310906986
2.7250000000	1.8340673649
2.7300000000	1.9391790560
2.7350000000	2.0384824459
2.7400000000	2.1225284954
2.7450000000	2.1817234574
2.7500000000	2.2083344709
2.7550000000	2.1984655612
2.7600000000	2.1531113762
2.7650000000	2.0777990430
2.7700000000	1.9809862102
2.7750000000	1.8720436966
2.7800000000	1.7595638425
2.7850000000	1.6504209367
2.7900000000	1.5486002454
2.7950000000	1.4584627969
2.8000000000	1.3809110105
2.8050000000	1.3090837329
2.8100000000	1.2524536363
2.8150000000	1.2087913693
2.8200000000	1.1756749783
2.8250000000	1.1508819624
2.8300000000	1.1325232048
2.8350000000	1.1190316413
2.8400000000	1.1090830188
2.8450000000	1.1015529233
2.8500000000	1.0955384319
2.8550000000	1.0904400965
2.8600000000	1.0860549593
2.8650000000	1.0826064765
2.8700000000	1.0806877827
2.8750000000	1.0811146952
2.8800000000	1.0847450029
2.8850000000	1.0923156430
2.8900000000	1.1043290848
2.8950000000	1.1209851027
2.9000000000	1.1421469146
2.9050000000	1.1738004334
2.9100000000	1.2085125581
2.9150000000	1.2439656898
2.9200000000	1.2772309154
2.9250000000	1.3051618148
2.9300000000	1.3248370068
2.9350000000	1.3340721881
2.9400000000	1.3318428216
2.9450000000	1.3184797848
2.9500000000	1.2955456568
2.9550000000	1.2654364201
2.9600000000	1.2308765591
2.9650000000	1.1944467526
2.9700000000	1.1582693273
2.9750000000	1.1238706711
2.9800000000	1.0921904727
2.9850000000	1.0636832866
2.9900000000	1.0384547752
2.9950000000	1.0163942517
3.0000000000	0.9972827963
