# energy (eV)    P(omega), $W$ = 300 nm, $h$ = 300 nm, $s$ = 20 nm, $d/W = 5$, $E_{\rm e}$ = 200 keV
0.2000000000	0.0614535755
0.2050000000	0.0623893998
0.2100000000	0.0632590548
0.2150000000	0.0640647502
0.2200000000	0.0648084751
0.2250000000	0.0654918716
0.2300000000	0.0661162513
0.2350000000	0.0666825272
0.2400000000	0.0671911642
0.2450000000	0.0676420972
0.2500000000	0.0680346678
0.2550000000	0.0683674596
0.2600000000	0.0686382685
0.2650000000	0.0688438182
0.2700000000	0.0689796563
0.2750000000	0.0690398197
0.2800000000	0.0690165331
0.2850000000	0.0688997604
0.2900000000	0.0686766655
0.2950000000	0.0683308928
0.3000000000	0.0678415681
0.3050000000	0.0671820889
0.3100000000	0.0663183825
0.3150000000	0.0702240863
0.3200000000	0.0748623824
0.3250000000	0.0807329777
0.3300000000	0.0886022841
0.3350000000	0.0983946505
0.3400000000	0.1112174479
0.3450000000	0.1267564374
0.3500000000	0.1470755945
0.3550000000	0.1739475393
0.3600000000	0.2090069567
0.3650000000	0.2578583167
0.3700000000	0.3222071633
0.3750000000	0.4116474533
0.3800000000	0.5409054966
0.3850000000	0.7421826572
0.3900000000	1.0599029493
0.3950000000	1.5991684471
0.4000000000	2.6264658865
0.4050000000	4.9280155991
0.4100000000	11.2032789838
0.4150000000	35.9191930191
0.4200000000	22.9009555630
0.4250000000	-42.9862664797
0.4300000000	11.9299372001
0.4350000000	7.4245267420
0.4400000000	4.5318635143
0.4450000000	2.9759478504
0.4500000000	2.0808685162
0.4550000000	1.5303971479
0.4600000000	1.1720931295
0.4650000000	0.9280632468
0.4700000000	0.7556678023
0.4750000000	0.6310299264
0.4800000000	0.5386398982
0.4850000000	0.4691184304
0.4900000000	0.4160368118
0.4950000000	0.3750813147
0.5000000000	0.3433028473
0.5050000000	0.3185399625
0.5100000000	0.2993984883
0.5150000000	0.2848509953
0.5200000000	0.2738303763
0.5250000000	0.2658499445
0.5300000000	0.2603922767
0.5350000000	0.2570773171
0.5400000000	0.2556244907
0.5450000000	0.2557995240
0.5500000000	0.2575236298
0.5550000000	0.2606632749
0.5600000000	0.2651472934
0.5650000000	0.2709416714
0.5700000000	0.2780136031
0.5750000000	0.2864114098
0.5800000000	0.2962132895
0.5850000000	0.3074692336
0.5900000000	0.3202795745
0.5950000000	0.3347727874
0.6000000000	0.3511119214
0.6050000000	0.3695375565
0.6100000000	0.3902761657
0.6150000000	0.4136396821
0.6200000000	0.4400445360
0.6250000000	0.4698895363
0.6300000000	0.5037653784
0.6350000000	0.5424080451
0.6400000000	0.5865823519
0.6450000000	0.6373941387
0.6500000000	0.6962962242
0.6550000000	0.7648000932
0.6600000000	0.8452309538
0.6650000000	0.9405691064
0.6700000000	1.0543177117
0.6750000000	1.1918216195
0.6800000000	1.3602649875
0.6850000000	1.5690553709
0.6900000000	1.8327625709
0.6950000000	2.1717590357
0.7000000000	2.6184008201
0.7050000000	3.2221389811
0.7100000000	4.0667464024
0.7150000000	5.3013275524
0.7200000000	7.2033914465
0.7250000000	10.3594405647
0.7300000000	16.1500796870
0.7350000000	28.5352525758
0.7400000000	62.4874421999
0.7450000000	207.1362967933
0.7500000000	641.1988990389
0.7550000000	161.1789281330
0.7600000000	53.3360430342
0.7650000000	25.5351210075
0.7700000000	14.8383811230
0.7750000000	9.6767979175
0.7800000000	6.8044747856
0.7850000000	5.0495987153
0.7900000000	3.8980606970
0.7950000000	3.1041731007
0.8000000000	2.5336887650
0.8050000000	2.1089629762
0.8100000000	1.7852041197
0.8150000000	1.5286668774
0.8200000000	1.3262668449
0.8250000000	1.1633494936
0.8300000000	1.0299411680
0.8350000000	0.9202821638
0.8400000000	0.8283828452
0.8450000000	0.7512850834
0.8500000000	0.6861233682
0.8550000000	0.6299082050
0.8600000000	0.5819214387
0.8650000000	0.5409269304
0.8700000000	0.5047151317
0.8750000000	0.4738974853
0.8800000000	0.4477277357
0.8850000000	0.4242673782
0.8900000000	0.4054022117
0.8950000000	0.3882419641
0.9000000000	0.3745906797
0.9050000000	0.3650936162
0.9100000000	0.3563840137
0.9150000000	0.3509815690
0.9200000000	0.3500460060
0.9250000000	0.3492878171
0.9300000000	0.3439275239
0.9350000000	0.3284810668
0.9400000000	0.2436087265
0.9450000000	-0.1410871549
0.9500000000	-2.1690474118
0.9550000000	-12.4471679633
0.9600000000	2.9356978034
0.9650000000	5.1526829677
0.9700000000	2.2843233974
0.9750000000	1.1990637335
0.9800000000	0.7515898596
0.9850000000	0.5423610959
0.9900000000	0.4218654067
0.9950000000	0.3488215290
1.0000000000	0.3021888989
1.0050000000	0.2726111776
1.0100000000	0.2497035911
1.0150000000	0.2329750982
1.0200000000	0.2217004147
1.0250000000	0.2122581474
1.0300000000	0.2050973184
1.0350000000	0.1996953792
1.0400000000	0.1962721422
1.0450000000	0.1934525397
1.0500000000	0.1916236131
1.0550000000	0.1906739335
1.0600000000	0.1908495838
1.0650000000	0.1914647300
1.0700000000	0.1928008760
1.0750000000	0.1948638870
1.0800000000	0.1978396027
1.0850000000	0.2016132104
1.0900000000	0.2071439029
1.0950000000	0.2137035966
1.1000000000	0.2215054752
1.1050000000	0.2305125900
1.1100000000	0.2410011885
1.1150000000	0.2532095503
1.1200000000	0.2674113064
1.1250000000	0.2840022908
1.1300000000	0.3034679652
1.1350000000	0.3264278973
1.1400000000	0.3535777385
1.1450000000	0.3862287020
1.1500000000	0.4257726781
1.1550000000	0.4742373590
1.1600000000	0.5344836682
1.1650000000	0.6102138967
1.1700000000	0.7084093205
1.1750000000	0.8382972201
1.1800000000	1.0151459935
1.1850000000	1.2640629323
1.1900000000	1.6323118005
1.1950000000	2.2107592220
1.2000000000	3.1922754758
1.2050000000	5.0474432125
1.2100000000	9.1284406720
1.2150000000	20.1563771816
1.2200000000	49.4747942030
1.2250000000	44.4076211995
1.2300000000	17.6735630044
1.2350000000	8.2573924413
1.2400000000	4.6901970998
1.2450000000	3.0504889430
1.2500000000	2.1832230006
1.2550000000	1.6800915034
1.2600000000	1.3709248434
1.2650000000	1.1737956078
1.2700000000	1.0517067821
1.2750000000	0.9806108700
1.2800000000	0.9486826253
1.2850000000	0.9502608096
1.2900000000	0.9838938843
1.2950000000	1.0510634917
1.3000000000	1.1607912386
1.3050000000	1.3244924521
1.3100000000	1.5641716396
1.3150000000	1.9180857892
1.3200000000	2.4552958271
1.3250000000	3.3072244958
1.3300000000	4.7626383543
1.3350000000	7.4901266359
1.3400000000	13.3200259855
1.3450000000	27.7895058661
1.3500000000	58.9133711688
1.3550000000	54.9080665203
1.3600000000	25.3114072973
1.3650000000	12.4351515961
1.3700000000	7.1320340605
1.3750000000	4.5875310013
1.3800000000	3.2002176760
1.3850000000	2.3644190667
1.3900000000	1.8254967876
1.3950000000	1.4576158403
1.4000000000	1.1955569572
1.4050000000	1.0025938952
1.4100000000	0.8562853292
1.4150000000	0.7428871127
1.4200000000	0.6521716174
1.4250000000	0.5795128364
1.4300000000	0.5207327205
1.4350000000	0.4609661266
1.4400000000	0.2717501851
1.4450000000	-0.2182590498
1.4500000000	-1.1146720102
1.4550000000	-0.4048288539
1.4600000000	1.0170435438
1.4650000000	0.6188976746
1.4700000000	-0.2641012013
1.4750000000	-1.6139403035
1.4800000000	-0.7034831981
1.4850000000	1.2669467260
1.4900000000	1.0249719978
1.4950000000	0.6678397644
1.5000000000	0.4723598189
1.5050000000	0.3661686850
1.5100000000	0.3052902681
1.5150000000	0.2678192382
1.5200000000	0.2431718410
1.5250000000	0.2274837603
1.5300000000	0.2150200801
1.5350000000	0.2058980475
1.5400000000	0.1992176617
1.5450000000	0.1944291636
1.5500000000	0.1911720474
1.5550000000	0.1892640743
1.5600000000	0.1890118929
1.5650000000	0.1897122246
1.5700000000	0.1920061201
1.5750000000	0.1963302864
1.5800000000	0.2035706139
1.5850000000	0.2154718416
1.5900000000	0.2357136545
1.5950000000	0.2723820350
1.6000000000	0.3423273148
1.6050000000	0.4555609440
1.6100000000	0.5057898697
1.6150000000	0.4084985837
1.6200000000	0.3205279325
1.6250000000	0.2768989359
1.6300000000	0.2578252194
1.6350000000	0.2509991247
1.6400000000	0.2509093187
1.6450000000	0.2550628799
1.6500000000	0.2622827074
1.6550000000	0.2720769247
1.6600000000	0.2842548400
1.6650000000	0.2988383918
1.6700000000	0.3159930927
1.6750000000	0.3360070592
1.6800000000	0.3592893290
1.6850000000	0.3863844375
1.6900000000	0.4179910496
1.6950000000	0.4547731299
1.7000000000	0.4981318829
1.7050000000	0.5506220453
1.7100000000	0.6152726794
1.7150000000	0.7070643268
1.7200000000	0.8342611391
1.7250000000	0.9884493222
1.7300000000	1.1820921627
1.7350000000	1.3890219118
1.7400000000	1.5717091761
1.7450000000	1.7988849615
1.7500000000	2.1513345157
1.7550000000	2.6833770922
1.7600000000	3.4834123027
1.7650000000	4.7184084333
1.7700000000	6.7077842524
1.7750000000	10.0573935710
1.7800000000	15.7594803820
1.7850000000	24.1552244110
1.7900000000	29.9766497067
1.7950000000	25.4852073611
1.8000000000	16.9300005748
1.8050000000	10.6688549227
1.8100000000	7.0167864203
1.8150000000	4.8775477797
1.8200000000	3.5614422453
1.8250000000	2.7081233509
1.8300000000	2.1283528709
1.8350000000	1.7185005379
1.8400000000	1.4190999409
1.8450000000	1.1940036157
1.8500000000	1.0203991401
1.8550000000	0.8839746672
1.8600000000	0.7746097099
1.8650000000	0.6853106131
1.8700000000	0.6109142730
1.8750000000	0.5473726052
1.8800000000	0.4911261341
1.8850000000	0.4385649593
1.8900000000	0.3851014824
1.8950000000	0.3237600363
1.9000000000	0.2428009896
1.9050000000	0.1050035059
1.9100000000	-0.0950881908
1.9150000000	-0.3105848822
1.9200000000	-0.2142247091
1.9250000000	0.4153578666
1.9300000000	0.9210633668
1.9350000000	0.9621071061
1.9400000000	0.7930876448
1.9450000000	0.6223088855
1.9500000000	0.4995142297
1.9550000000	0.4171274662
1.9600000000	0.3615420856
1.9650000000	0.3247416554
1.9700000000	0.2968735885
1.9750000000	0.2764206944
1.9800000000	0.2610155022
1.9850000000	0.2489855886
1.9900000000	0.2391391909
1.9950000000	0.2305109300
2.0000000000	0.2228679664
2.0050000000	0.2189735961
2.0100000000	0.2225461686
2.0150000000	0.2310879359
2.0200000000	0.2378115585
2.0250000000	0.2423956917
2.0300000000	0.2472900289
2.0350000000	0.2535513796
2.0400000000	0.2619862011
2.0450000000	0.2731194579
2.0500000000	0.2875822334
2.0550000000	0.3060145499
2.0600000000	0.3284468949
2.0650000000	0.3527481600
2.0700000000	0.3736314323
2.0750000000	0.3868976927
2.0800000000	0.3954135470
2.0850000000	0.4055814150
2.0900000000	0.4213647854
2.0950000000	0.4439750925
2.1000000000	0.4740639517
2.1050000000	0.5109431024
2.1100000000	0.5571855950
2.1150000000	0.6145776694
2.1200000000	0.6857703608
2.1250000000	0.7745745642
2.1300000000	0.8864240435
2.1350000000	1.0291124470
2.1400000000	1.2139051991
2.1450000000	1.4572687879
2.1500000000	1.7831737147
2.1550000000	2.2255002229
2.1600000000	2.8275662052
2.1650000000	3.6260042137
2.1700000000	4.6069381703
2.1750000000	5.5859195583
2.1800000000	6.2048986827
2.1850000000	6.2745818008
2.1900000000	6.0615018189
2.1950000000	5.9200395493
2.2000000000	5.8793016755
2.2050000000	5.5965455685
2.2100000000	4.9280809800
2.2150000000	4.0789828061
2.2200000000	3.3020841612
2.2250000000	2.6798348190
2.2300000000	2.1900743896
2.2350000000	1.8010739316
2.2400000000	1.4924461094
2.2450000000	1.2515564186
2.2500000000	1.0636910329
2.2550000000	0.9154671893
2.2600000000	0.7957141907
2.2650000000	0.6951378610
2.2700000000	0.6059290470
2.2750000000	0.5226068735
2.2800000000	0.4455592048
2.2850000000	0.3844587675
2.2900000000	0.3536332393
2.2950000000	0.3580208463
2.3000000000	0.3834876488
2.3050000000	0.4083757482
2.3100000000	0.4191184343
2.3150000000	0.4164044605
2.3200000000	0.4061737321
2.3250000000	0.3944901008
2.3300000000	0.3846304592
2.3350000000	0.3777305547
2.3400000000	0.3735551729
2.3450000000	0.3708886950
2.3500000000	0.3681081487
2.3550000000	0.3641756767
2.3600000000	0.3593791227
2.3650000000	0.3549773237
2.3700000000	0.3522182468
2.3750000000	0.3517117413
2.3800000000	0.3533543413
2.3850000000	0.3565203311
2.3900000000	0.3605126522
2.3950000000	0.3647351420
2.4000000000	0.3695436317
2.4050000000	0.3762637337
2.4100000000	0.3855693254
2.4150000000	0.3983148899
2.4200000000	0.4150816024
2.4250000000	0.4363981905
2.4300000000	0.4628577169
2.4350000000	0.4952035619
2.4400000000	0.5343921876
2.4450000000	0.5816575632
2.4500000000	0.6385701634
2.4550000000	0.7071168503
2.4600000000	0.7897510768
2.4650000000	0.8894414541
2.4700000000	1.0096266598
2.4750000000	1.1538069965
2.4800000000	1.3257685888
2.4850000000	1.5272139443
2.4900000000	1.7564757755
2.4950000000	2.0052617703
2.5000000000	2.2551497671
2.5050000000	2.4861062102
2.5100000000	2.6353102233
2.5150000000	2.6679754804
2.5200000000	2.5796040504
2.5250000000	2.3978455530
2.5300000000	2.1647652942
2.5350000000	1.9172604693
2.5400000000	1.6787015092
2.5450000000	1.4606390351
2.5500000000	1.2673891819
2.5550000000	1.0995003264
2.5600000000	0.9545366424
2.5650000000	0.8321803657
2.5700000000	0.7299901271
2.5750000000	0.6465208369
2.5800000000	0.5806438928
2.5850000000	0.5309611382
2.5900000000	0.4949485446
2.5950000000	0.4689521503
2.6000000000	0.4491501716
2.6050000000	0.4350271128
2.6100000000	0.4223459534
2.6150000000	0.4109507424
2.6200000000	0.4011262346
2.6250000000	0.3931523895
2.6300000000	0.3871982517
2.6350000000	0.3833371141
2.6400000000	0.3816074271
2.6450000000	0.3820526285
2.6500000000	0.3847659894
2.6550000000	0.3897632038
2.6600000000	0.3971753781
2.6650000000	0.4071183296
2.6700000000	0.4197285242
2.6750000000	0.4351678749
2.6800000000	0.4536165875
2.6850000000	0.4752714777
2.6900000000	0.5003227381
2.6950000000	0.5289427567
2.7000000000	0.5612509529
2.7050000000	0.6011376606
2.7100000000	0.6458426654
2.7150000000	0.6950590557
2.7200000000	0.7481234888
2.7250000000	0.8039309372
2.7300000000	0.8608562274
2.7350000000	0.9166852385
2.7400000000	0.9685789690
2.7450000000	1.0135404030
2.7500000000	1.0472189438
2.7550000000	1.0666262512
2.7600000000	1.0695179297
2.7650000000	1.0553166544
2.7700000000	1.0253158734
2.7750000000	0.9824177517
2.7800000000	0.9304712906
2.7850000000	0.8735711670
2.7900000000	0.8153753521
2.7950000000	0.7588124862
2.8000000000	0.7059483036
2.8050000000	0.6521934230
2.8100000000	0.6057900617
2.8150000000	0.5666323691
2.8200000000	0.5341048432
2.8250000000	0.5073894422
2.8300000000	0.4856655490
2.8350000000	0.4682337798
2.8400000000	0.4543506436
2.8450000000	0.4440662214
2.8500000000	0.4368356440
2.8550000000	0.4324558942
2.8600000000	0.4307833475
2.8650000000	0.4317045363
2.8700000000	0.4351184526
2.8750000000	0.4409217319
2.8800000000	0.4489947945
2.8850000000	0.4591889562
2.8900000000	0.4713211550
2.8950000000	0.4851678087
2.9000000000	0.5004637215
2.9050000000	0.5205566643
2.9100000000	0.5411856967
2.9150000000	0.5615552763
2.9200000000	0.5807087502
2.9250000000	0.5975369030
2.9300000000	0.6109972247
2.9350000000	0.6197018085
2.9400000000	0.6229554473
2.9450000000	0.6204021454
2.9500000000	0.6122514586
2.9550000000	0.5992469839
2.9600000000	0.5825212895
2.9650000000	0.5633882692
2.9700000000	0.5431372334
2.9750000000	0.5228868660
2.9800000000	0.5035047645
2.9850000000	0.4855961703
2.9900000000	0.4695335399
2.9950000000	0.4555065954
3.0000000000	0.4435765077
