# energy (eV)    P(omega), $W$ = 300 nm, $h$ = 300 nm, $s$ = 20 nm, $d/W = 5$, $E_{\rm e}$ = 200 keV
0.2000000000	0.0911173509
0.2050000000	0.0924827272
0.2100000000	0.0937593505
0.2150000000	0.0949501132
0.2200000000	0.0960574816
0.2250000000	0.0970835515
0.2300000000	0.0980299229
0.2350000000	0.0988976565
0.2400000000	0.0996871519
0.2450000000	0.1003981071
0.2500000000	0.1010293497
0.2550000000	0.1015786421
0.2600000000	0.1020426277
0.2650000000	0.1024164301
0.2700000000	0.1026934460
0.2750000000	0.1028649233
0.2800000000	0.1029195015
0.2850000000	0.1028425749
0.2900000000	0.1026154342
0.2950000000	0.1022143414
0.3000000000	0.1016089725
0.3050000000	0.1007606868
0.3100000000	0.0996200140
0.3150000000	0.1052832236
0.3200000000	0.1120090132
0.3250000000	0.1205157953
0.3300000000	0.1319082348
0.3350000000	0.1460888965
0.3400000000	0.1646586918
0.3450000000	0.1871819779
0.3500000000	0.2166459209
0.3550000000	0.2556313800
0.3600000000	0.3065334049
0.3650000000	0.3774949501
0.3700000000	0.4710604279
0.3750000000	0.6012105864
0.3800000000	0.7894407596
0.3850000000	1.0827340428
0.3900000000	1.5460638969
0.3950000000	2.3330710417
0.4000000000	3.8333638525
0.4050000000	7.1969392661
0.4100000000	16.3747504890
0.4150000000	52.5498407617
0.4200000000	33.4820664920
0.4250000000	-63.0206534813
0.4300000000	17.5240000736
0.4350000000	10.9200273022
0.4400000000	6.6752737107
0.4450000000	4.3903980079
0.4500000000	3.0750663534
0.4550000000	2.2656281684
0.4600000000	1.7384507870
0.4650000000	1.3792127236
0.4700000000	1.1253108017
0.4750000000	0.9416837906
0.4800000000	0.8055395133
0.4850000000	0.7030940105
0.4900000000	0.6248938881
0.4950000000	0.5645931065
0.5000000000	0.5178539352
0.5050000000	0.4814938512
0.5100000000	0.4534634946
0.5150000000	0.4322540827
0.5200000000	0.4162887985
0.5250000000	0.4048569819
0.5300000000	0.3971960215
0.5350000000	0.3927481460
0.5400000000	0.3911021362
0.5450000000	0.3919144705
0.5500000000	0.3950763481
0.5550000000	0.4003940959
0.5600000000	0.4077686897
0.5650000000	0.4171556098
0.5700000000	0.4285142713
0.5750000000	0.4419240099
0.5800000000	0.4575138078
0.5850000000	0.4753677944
0.5900000000	0.4956490905
0.5950000000	0.5185629416
0.6000000000	0.5443707949
0.6050000000	0.5734516647
0.6100000000	0.6061671057
0.6150000000	0.6430111296
0.6200000000	0.6846427242
0.6250000000	0.7316936970
0.6300000000	0.7850979329
0.6350000000	0.8460193864
0.6400000000	0.9156691348
0.6450000000	0.9957953438
0.6500000000	1.0886965143
0.6550000000	1.1967653047
0.6600000000	1.3236791575
0.6650000000	1.4741566107
0.6700000000	1.6537449855
0.6750000000	1.8709035469
0.6800000000	2.1370082087
0.6850000000	2.4669613012
0.6900000000	2.8838438291
0.6950000000	3.4199363930
0.7000000000	4.1265166695
0.7050000000	5.0819748155
0.7100000000	6.4191331848
0.7150000000	8.3744306075
0.7200000000	11.3880431682
0.7250000000	16.3904361149
0.7300000000	25.5723754502
0.7350000000	45.2190520119
0.7400000000	99.1005747904
0.7450000000	328.7639541740
0.7500000000	1018.5113051911
0.7550000000	256.2283211982
0.7600000000	84.8568089711
0.7650000000	40.6585083093
0.7700000000	23.6455109955
0.7750000000	15.4327417084
0.7800000000	10.8606591536
0.7850000000	8.0662084136
0.7900000000	6.2317972706
0.7950000000	4.9666456134
0.8000000000	4.0571746831
0.8050000000	3.3798219944
0.8100000000	2.8633030728
0.8150000000	2.4538505202
0.8200000000	2.1306992921
0.8250000000	1.8705018737
0.8300000000	1.6573595025
0.8350000000	1.4821171705
0.8400000000	1.3352130925
0.8450000000	1.2119415932
0.8500000000	1.1077417082
0.8550000000	1.0178216136
0.8600000000	0.9410598681
0.8650000000	0.8754924469
0.8700000000	0.8175582595
0.8750000000	0.7682770538
0.8800000000	0.7264610114
0.8850000000	0.6889706235
0.8900000000	0.6588972745
0.8950000000	0.6315397752
0.9000000000	0.6098583389
0.9050000000	0.5949275265
0.9100000000	0.5812449329
0.9150000000	0.5729470601
0.9200000000	0.5719524776
0.9250000000	0.5712158998
0.9300000000	0.5628405412
0.9350000000	0.5376991269
0.9400000000	0.3976204031
0.9450000000	-0.2390919503
0.9500000000	-3.5993079828
0.9550000000	-20.6429235385
0.9600000000	4.8710058291
0.9650000000	8.5566609801
0.9700000000	3.7952079066
0.9750000000	1.9923931712
0.9800000000	1.2486589549
0.9850000000	0.9008122906
0.9900000000	0.7003902315
0.9950000000	0.5788590135
1.0000000000	0.5012610007
1.0050000000	0.4520659492
1.0100000000	0.4139274186
1.0150000000	0.3860647751
1.0200000000	0.3672979039
1.0250000000	0.3515456696
1.0300000000	0.3395788811
1.0350000000	0.3305259850
1.0400000000	0.3247705147
1.0450000000	0.3199845667
1.0500000000	0.3168272946
1.0550000000	0.3151117589
1.0600000000	0.3152604628
1.0650000000	0.3160974436
1.0700000000	0.3181021208
1.0750000000	0.3212828312
1.0800000000	0.3259541503
1.0850000000	0.3318822100
1.0900000000	0.3406271326
1.0950000000	0.3510122788
1.1000000000	0.3633861643
1.1050000000	0.3776472658
1.1100000000	0.3942461363
1.1150000000	0.4135559743
1.1200000000	0.4360193046
1.1250000000	0.4622141255
1.1300000000	0.4929151666
1.1350000000	0.5290867161
1.1400000000	0.5718269769
1.1450000000	0.6231405544
1.1500000000	0.6852074231
1.1550000000	0.7611790526
1.1600000000	0.8555015922
1.1650000000	0.9739442663
1.1700000000	1.1273141167
1.1750000000	1.3299580476
1.1800000000	1.6055936272
1.1850000000	1.9932066381
1.1900000000	2.5662722585
1.1950000000	3.4658672651
1.2000000000	4.9917058847
1.2050000000	7.8751359758
1.2100000000	14.2181104640
1.2150000000	31.3631575725
1.2200000000	76.9716145509
1.2250000000	69.1548183448
1.2300000000	27.5859041421
1.2350000000	12.9385543393
1.2400000000	7.3904949916
1.2450000000	4.8431204527
1.2500000000	3.4992958558
1.2550000000	2.7237706500
1.2600000000	2.2518874112
1.2650000000	1.9563431788
1.2700000000	1.7801625012
1.2750000000	1.6864043801
1.2800000000	1.6574884472
1.2850000000	1.6857422293
1.2900000000	1.7705583182
1.2950000000	1.9163504798
1.3000000000	2.1411117315
1.3050000000	2.4679177586
1.3100000000	2.9397828876
1.3150000000	3.6311302586
1.3200000000	4.6757502325
1.3250000000	6.3286467833
1.3300000000	9.1482985713
1.3350000000	14.4295437269
1.3400000000	25.7171026835
1.3450000000	53.7387068424
1.3500000000	114.0471397105
1.3550000000	106.3658093526
1.3600000000	49.0504916220
1.3650000000	24.1003223482
1.3700000000	13.8212582945
1.3750000000	8.8883224661
1.3800000000	6.1986166952
1.3850000000	4.5783673879
1.3900000000	3.5340989969
1.3950000000	2.8216288150
1.4000000000	2.3148387357
1.4050000000	1.9426195089
1.4100000000	1.6619056657
1.4150000000	1.4469737547
1.4200000000	1.2796822447
1.4250000000	1.1552311317
1.4300000000	1.0761449358
1.4350000000	1.0240149701
1.4400000000	0.7042805184
1.4450000000	-0.1816261398
1.4500000000	-1.7228778978
1.4550000000	-0.5754580737
1.4600000000	1.7531588316
1.4650000000	1.0154041276
1.4700000000	-0.6487810732
1.4750000000	-3.2817549112
1.4800000000	-1.4479035962
1.4850000000	2.4804697770
1.4900000000	2.0080166266
1.4950000000	1.3027818391
1.5000000000	0.9172184681
1.5050000000	0.7084944285
1.5100000000	0.5890147395
1.5150000000	0.5157593010
1.5200000000	0.4677778109
1.5250000000	0.4373224903
1.5300000000	0.4133225388
1.5350000000	0.3958874992
1.5400000000	0.3832565764
1.5450000000	0.3743797316
1.5500000000	0.3685308516
1.5550000000	0.3654072044
1.5600000000	0.3656336266
1.5650000000	0.3679468746
1.5700000000	0.3736932636
1.5750000000	0.3839295665
1.5800000000	0.4007609620
1.5850000000	0.4283331282
1.5900000000	0.4754166779
1.5950000000	0.5614011962
1.6000000000	0.7271506643
1.6050000000	0.9991883327
1.6100000000	1.1260637672
1.6150000000	0.8968261151
1.6200000000	0.6842677862
1.6250000000	0.5762445360
1.6300000000	0.5266950829
1.6350000000	0.5063074344
1.6400000000	0.5018046560
1.6450000000	0.5071141603
1.6500000000	0.5192803982
1.6550000000	0.5370905783
1.6600000000	0.5599270894
1.6650000000	0.5877079091
1.6700000000	0.6206644665
1.6750000000	0.6592723966
1.6800000000	0.7042267414
1.6850000000	0.7564551126
1.6900000000	0.8170352148
1.6950000000	0.8865919806
1.7000000000	0.9666577406
1.7050000000	1.0592892260
1.7100000000	1.1715615509
1.7150000000	1.3603082260
1.7200000000	1.6454079791
1.7250000000	1.9535403910
1.7300000000	2.3199000569
1.7350000000	2.7162910323
1.7400000000	3.0822643450
1.7450000000	3.5435106840
1.7500000000	4.2505655460
1.7550000000	5.3110588573
1.7600000000	6.9021362732
1.7650000000	9.3567648829
1.7700000000	13.3109009436
1.7750000000	19.9708332874
1.7800000000	31.3138704994
1.7850000000	48.0291432080
1.7900000000	59.6479538903
1.7950000000	50.7510569121
1.8000000000	33.7438182050
1.8050000000	21.2852945652
1.8100000000	14.0144599840
1.8150000000	9.7538924700
1.8200000000	7.1320761356
1.8250000000	5.4320417617
1.8300000000	4.2771473334
1.8350000000	3.4610959575
1.8400000000	2.8654798422
1.8450000000	2.4183808656
1.8500000000	2.0744273650
1.8550000000	1.8051722080
1.8600000000	1.5906070726
1.8650000000	1.4169791115
1.8700000000	1.2742676282
1.8750000000	1.1547868882
1.8800000000	1.0519956583
1.8850000000	0.9595173277
1.8900000000	0.8694609148
1.8950000000	0.7698728025
1.9000000000	0.6404980201
1.9050000000	0.4152329848
1.9100000000	0.0917580246
1.9150000000	-0.2195163669
1.9200000000	0.1575756206
1.9250000000	1.6643939386
1.9300000000	2.8680859470
1.9350000000	2.8948825567
1.9400000000	2.3237785637
1.9450000000	1.7611010148
1.9500000000	1.3622978229
1.9550000000	1.0985111774
1.9600000000	0.9227290485
1.9650000000	0.8055981220
1.9700000000	0.7193770508
1.9750000000	0.6561526953
1.9800000000	0.6081657576
1.9850000000	0.5698517694
1.9900000000	0.5370684681
1.9950000000	0.5063044607
2.0000000000	0.4769288183
2.0050000000	0.4594601169
2.0100000000	0.4712016275
2.0150000000	0.5018220020
2.0200000000	0.5225078565
2.0250000000	0.5314945843
2.0300000000	0.5383433303
2.0350000000	0.5474780268
2.0400000000	0.5610493230
2.0450000000	0.5799691949
2.0500000000	0.6051643017
2.0550000000	0.6375560878
2.0600000000	0.6771973312
2.0650000000	0.7209265796
2.0700000000	0.7608739777
2.0750000000	0.7908941497
2.0800000000	0.8155575811
2.0850000000	0.8447956770
2.0900000000	0.8849261565
2.0950000000	0.9381398094
2.1000000000	1.0061160169
2.1050000000	1.0878313830
2.1100000000	1.1889791931
2.1150000000	1.3136405081
2.1200000000	1.4676842911
2.1250000000	1.6594381045
2.1300000000	1.9007010477
2.1350000000	2.2083551116
2.1400000000	2.6067823895
2.1450000000	3.1316219391
2.1500000000	3.8347731476
2.1550000000	4.7896418876
2.1600000000	6.0901466797
2.1650000000	7.8158798021
2.1700000000	9.9365032165
2.1750000000	12.0510995064
2.1800000000	13.3790841168
2.1850000000	13.5035064218
2.1900000000	12.9992419388
2.1950000000	12.6414774912
2.2000000000	12.5164802778
2.2050000000	11.9284101195
2.2100000000	10.5795106858
2.2150000000	8.8822947832
2.2200000000	7.3385879191
2.2250000000	6.0876990009
2.2300000000	5.0607102088
2.2350000000	4.2011450069
2.2400000000	3.4953442604
2.2450000000	2.9380195484
2.2500000000	2.5061246786
2.2550000000	2.1718696182
2.2600000000	1.9095264067
2.2650000000	1.6959025207
2.2700000000	1.5090425404
2.2750000000	1.3303900673
2.2800000000	1.1556320808
2.2850000000	1.0061040311
2.2900000000	0.9181513262
2.2950000000	0.9080690083
2.3000000000	0.9478064534
2.3050000000	0.9896870655
2.3100000000	1.0044831250
2.3150000000	0.9931131558
2.3200000000	0.9682138661
2.3250000000	0.9427732000
2.3300000000	0.9236863222
2.3350000000	0.9129660155
2.3400000000	0.9090976944
2.3450000000	0.9076750539
2.3500000000	0.9030225358
2.3550000000	0.8915144264
2.3600000000	0.8741538106
2.3650000000	0.8553632470
2.3700000000	0.8396378297
2.3750000000	0.8294760246
2.3800000000	0.8252790259
2.3850000000	0.8260432554
2.3900000000	0.8304867918
2.3950000000	0.8373810219
2.4000000000	0.8473377638
2.4050000000	0.8629548720
2.4100000000	0.8853361336
2.4150000000	0.9160059476
2.4200000000	0.9560155559
2.4250000000	1.0064921768
2.4300000000	1.0688191902
2.4350000000	1.1447701518
2.4400000000	1.2366275314
2.4450000000	1.3473180152
2.4500000000	1.4805509054
2.4550000000	1.6410063952
2.4600000000	1.8344392513
2.4650000000	2.0677871381
2.4700000000	2.3490332935
2.4750000000	2.6862273171
2.4800000000	3.0878638427
2.4850000000	3.5574708678
2.4900000000	4.0906482536
2.4950000000	4.6679463622
2.5000000000	5.2473760460
2.5050000000	5.7844083463
2.5100000000	6.1365362095
2.5150000000	6.2238211377
2.5200000000	6.0329002794
2.5250000000	5.6229854951
2.5300000000	5.0881634938
2.5350000000	4.5137905804
2.5400000000	3.9561977754
2.5450000000	3.4447804693
2.5500000000	2.9913757051
2.5550000000	2.5980164700
2.5600000000	2.2590917246
2.5650000000	1.9733676612
2.5700000000	1.7347777173
2.5750000000	1.5396563845
2.5800000000	1.3852015102
2.5850000000	1.2681064271
2.5900000000	1.1825892633
2.5950000000	1.1203514544
2.6000000000	1.0727183792
2.6050000000	1.0387297873
2.6100000000	1.0085955820
2.6150000000	0.9819115876
2.6200000000	0.9593042650
2.6250000000	0.9414158774
2.6300000000	0.9286583238
2.6350000000	0.9212290546
2.6400000000	0.9192320560
2.6450000000	0.9227728622
2.6500000000	0.9320683374
2.6550000000	0.9471669218
2.6600000000	0.9684000110
2.6650000000	0.9960828453
2.6700000000	1.0305867602
2.6750000000	1.0723459632
2.6800000000	1.1218246789
2.6850000000	1.1794980454
2.6900000000	1.2457863826
2.6950000000	1.3210114165
2.7000000000	1.4052914104
2.7050000000	1.5084877696
2.7100000000	1.6227546203
2.7150000000	1.7466975664
2.7200000000	1.8779734869
2.7250000000	2.0132503572
2.7300000000	2.1482150251
2.7350000000	2.2775882241
2.7400000000	2.3950898188
2.7450000000	2.4944530357
2.7500000000	2.5663719719
2.7550000000	2.6046866961
2.7600000000	2.6047452540
2.7650000000	2.5655230228
2.7700000000	2.4901440793
2.7750000000	2.3853541082
2.7800000000	2.2600562734
2.7850000000	2.1237201612
2.7900000000	1.9848294498
2.7950000000	1.8501841669
2.8000000000	1.7245958534
2.8050000000	1.5970302751
2.8100000000	1.4872177130
2.8150000000	1.3949124194
2.8200000000	1.3186724597
2.8250000000	1.2565807821
2.8300000000	1.2067037956
2.8350000000	1.1673955981
2.8400000000	1.1369053646
2.8450000000	1.1153396403
2.8500000000	1.1014122090
2.8550000000	1.0946367179
2.8600000000	1.0946545776
2.8650000000	1.1011614504
2.8700000000	1.1138606934
2.8750000000	1.1324134626
2.8800000000	1.1564059328
2.8850000000	1.1853136875
2.8900000000	1.2185108332
2.8950000000	1.2552555757
2.9000000000	1.2947320022
2.9050000000	1.3446515332
2.9100000000	1.3945421535
2.9150000000	1.4426225229
2.9200000000	1.4868475377
2.9250000000	1.5248572044
2.9300000000	1.5544531861
2.9350000000	1.5725522105
2.9400000000	1.5776850622
2.9450000000	1.5691338508
2.9500000000	1.5474849746
2.9550000000	1.5145796614
2.9600000000	1.4731563483
2.9650000000	1.4263678302
2.9700000000	1.3772979932
2.9750000000	1.3286058814
2.9800000000	1.2823477020
2.9850000000	1.2399444962
2.9900000000	1.2022719207
2.9950000000	1.1697545512
3.0000000000	1.1425155108
