# energy (eV)    P(omega), $W$ = 400 nm, $h$ = 300 nm, $s$ = 20 nm, $d/W = 5$, $E_{\rm e}$ = 200 keV
0.2000000000	0.0515485815
0.2050000000	0.0520174865
0.2100000000	0.0523475990
0.2150000000	0.0525333596
0.2200000000	0.0525669938
0.2250000000	0.0524379398
0.2300000000	0.0521322995
0.2350000000	0.0516319769
0.2400000000	0.0509136994
0.2450000000	0.0499474735
0.2500000000	0.0486949517
0.2550000000	0.0471067924
0.2600000000	0.0451194108
0.2650000000	0.0472015834
0.2700000000	0.0524907275
0.2750000000	0.0600593197
0.2800000000	0.0706044927
0.2850000000	0.0861508107
0.2900000000	0.1054137369
0.2950000000	0.1330287101
0.3000000000	0.1701510244
0.3050000000	0.2270505716
0.3100000000	0.3063096646
0.3150000000	0.4596723470
0.3200000000	0.6991944587
0.3250000000	0.8631800333
0.3300000000	1.0900246390
0.3350000000	1.4116088866
0.3400000000	1.9164306619
0.3450000000	2.7825419632
0.3500000000	4.5096412727
0.3550000000	8.5076564084
0.3600000000	20.9085665350
0.3650000000	0.0945219395
0.3700000000	9.6903214440
0.3750000000	12.7423749015
0.3800000000	5.9374909822
0.3850000000	3.3446327408
0.3900000000	2.1452794441
0.3950000000	1.5117289821
0.4000000000	1.1449039674
0.4050000000	0.9057599758
0.4100000000	0.7500719588
0.4150000000	0.6473869905
0.4200000000	0.5824877602
0.4250000000	0.5315175958
0.4300000000	0.4712896882
0.4350000000	0.4236228494
0.4400000000	0.3859236777
0.4450000000	0.3559483370
0.4500000000	0.3322828920
0.4550000000	0.3135167709
0.4600000000	0.2988775439
0.4650000000	0.2875482449
0.4700000000	0.2789880276
0.4750000000	0.2728184771
0.4800000000	0.2687093719
0.4850000000	0.2663711626
0.4900000000	0.2656326147
0.4950000000	0.2663619876
0.5000000000	0.2684467124
0.5050000000	0.2718366105
0.5100000000	0.2764905741
0.5150000000	0.2823841676
0.5200000000	0.2895295985
0.5250000000	0.2979368740
0.5300000000	0.3077294243
0.5350000000	0.3189621115
0.5400000000	0.3317337398
0.5450000000	0.3461738843
0.5500000000	0.3624658718
0.5550000000	0.3808102357
0.5600000000	0.4014510562
0.5650000000	0.4247021997
0.5700000000	0.4509969435
0.5750000000	0.4806564123
0.5800000000	0.5142814749
0.5850000000	0.5526931175
0.5900000000	0.5964450927
0.5950000000	0.6467026649
0.6000000000	0.7050052967
0.6050000000	0.7725067627
0.6100000000	0.8518519823
0.6150000000	0.9452342493
0.6200000000	1.0564186580
0.6250000000	1.1908068518
0.6300000000	1.3539075346
0.6350000000	1.5560721289
0.6400000000	1.8087209285
0.6450000000	2.1325777781
0.6500000000	2.5541151244
0.6550000000	3.1181747235
0.6600000000	3.9004710072
0.6650000000	5.0206258830
0.6700000000	6.7168055083
0.6750000000	9.4440026796
0.6800000000	14.2648310852
0.6850000000	23.9381219531
0.6900000000	47.9756984384
0.6950000000	134.6746009015
0.7000000000	653.1815367995
0.7050000000	317.5595247258
0.7100000000	81.5742269826
0.7150000000	34.6898934060
0.7200000000	18.9445636539
0.7250000000	11.9005543402
0.7300000000	8.1621239522
0.7350000000	5.9521541844
0.7400000000	4.5369713527
0.7450000000	3.5764022001
0.7500000000	2.8959537616
0.7550000000	2.3960485956
0.7600000000	2.0192592379
0.7650000000	1.7270647666
0.7700000000	1.4964073933
0.7750000000	1.3112328512
0.7800000000	1.1607538919
0.7850000000	1.0368499903
0.7900000000	0.9330473791
0.7950000000	0.8463531832
0.8000000000	0.7726397936
0.8050000000	0.7094863542
0.8100000000	0.6557238480
0.8150000000	0.6086033057
0.8200000000	0.5675798595
0.8250000000	0.5331539719
0.8300000000	0.5030199136
0.8350000000	0.4768227091
0.8400000000	0.4559603954
0.8450000000	0.4377568748
0.8500000000	0.4223221565
0.8550000000	0.4125656588
0.8600000000	0.4047503951
0.8650000000	0.3991543832
0.8700000000	0.4011010974
0.8750000000	0.4017822991
0.8800000000	0.3996188953
0.8850000000	0.3822431341
0.8900000000	0.2966364416
0.8950000000	-0.1323793663
0.9000000000	-2.4328722666
0.9050000000	-15.9858165902
0.9100000000	3.0440142753
0.9150000000	7.2106835181
0.9200000000	2.9932932277
0.9250000000	1.5571992531
0.9300000000	0.9505538345
0.9350000000	0.6607192160
0.9400000000	0.5043662856
0.9450000000	0.4177011821
0.9500000000	0.3561555578
0.9550000000	0.3149581797
0.9600000000	0.2894801046
0.9650000000	0.2684586082
0.9700000000	0.2534596374
0.9750000000	0.2432392846
0.9800000000	0.2370197317
0.9850000000	0.2358853607
0.9900000000	0.2381654187
0.9950000000	0.2473470509
1.0000000000	0.2692881443
1.0050000000	0.3205056855
1.0100000000	0.4547278411
1.0150000000	0.9147395440
1.0200000000	1.7568910260
1.0250000000	0.7985826384
1.0300000000	0.4089070185
1.0350000000	0.2927655512
1.0400000000	0.2470927249
1.0450000000	0.2256649163
1.0500000000	0.2149215503
1.0550000000	0.2092830300
1.0600000000	0.2067489645
1.0650000000	0.2062695730
1.0700000000	0.2072628424
1.0750000000	0.2095236559
1.0800000000	0.2126458632
1.0850000000	0.2168964613
1.0900000000	0.2230400487
1.0950000000	0.2302029581
1.1000000000	0.2384553237
1.1050000000	0.2478119470
1.1100000000	0.2584208806
1.1150000000	0.2704232625
1.1200000000	0.2839866171
1.1250000000	0.2992495834
1.1300000000	0.3166075580
1.1350000000	0.3363270870
1.1400000000	0.3588073026
1.1450000000	0.3845557685
1.1500000000	0.4139674783
1.1550000000	0.4482722377
1.1600000000	0.4882477223
1.1650000000	0.5349125026
1.1700000000	0.5884774983
1.1750000000	0.6428004212
1.1800000000	0.6942035303
1.1850000000	0.9648521202
1.1900000000	1.1973926820
1.1950000000	1.6414567529
1.2000000000	2.2355634208
1.2050000000	1.9609492546
1.2100000000	1.8766406474
1.2150000000	2.0892278029
1.2200000000	2.4987287048
1.2250000000	3.1275961253
1.2300000000	4.0838351839
1.2350000000	5.5965059950
1.2400000000	8.1446001538
1.2450000000	12.9426434413
1.2500000000	23.3338489702
1.2550000000	50.5104255656
1.2600000000	122.0036454042
1.2650000000	123.5845407533
1.2700000000	51.4086139201
1.2750000000	23.7302489947
1.2800000000	13.1422278223
1.2850000000	8.2646095253
1.2900000000	5.6646315468
1.2950000000	4.1284648787
1.3000000000	3.1499947695
1.3050000000	2.4911939901
1.3100000000	2.0266332279
1.3150000000	1.6909649063
1.3200000000	1.4421333038
1.3250000000	1.2548781380
1.3300000000	1.1138563519
1.3350000000	1.0096531943
1.3400000000	0.9373806555
1.3450000000	0.8956979162
1.3500000000	0.8906841727
1.3550000000	0.9361794991
1.3600000000	1.0673997180
1.3650000000	1.3739598850
1.3700000000	2.1060730457
1.3750000000	3.9276350170
1.3800000000	6.4154946493
1.3850000000	4.4817157003
1.3900000000	2.2839213454
1.3950000000	1.3252147285
1.4000000000	0.8678858249
1.4050000000	0.5868083372
1.4100000000	0.3324048316
1.4150000000	-0.0471205966
1.4200000000	-0.8968253648
1.4250000000	-3.1483209377
1.4300000000	-4.2331161241
1.4350000000	1.9393539388
1.4400000000	2.4807323906
1.4450000000	1.4873045389
1.4500000000	0.9254595503
1.4550000000	0.6379590087
1.4600000000	0.4710950265
1.4650000000	0.3392225402
1.4700000000	0.1981674341
1.4750000000	0.2328753770
1.4800000000	0.3414012382
1.4850000000	0.3100037493
1.4900000000	0.2745014882
1.4950000000	0.2515383427
1.5000000000	0.2364534358
1.5050000000	0.2264793578
1.5100000000	0.2196942353
1.5150000000	0.2159921707
1.5200000000	0.2132633444
1.5250000000	0.2122792137
1.5300000000	0.2131305488
1.5350000000	0.2162068480
1.5400000000	0.2224797708
1.5450000000	0.2341071913
1.5500000000	0.2559391967
1.5550000000	0.2976434010
1.5600000000	0.3602446199
1.5650000000	0.3702767739
1.5700000000	0.3137835879
1.5750000000	0.2741402493
1.5800000000	0.2570375423
1.5850000000	0.2516547573
1.5900000000	0.2523499970
1.5950000000	0.2566731025
1.6000000000	0.2635565770
1.6050000000	0.2726328662
1.6100000000	0.2836275380
1.6150000000	0.2964996832
1.6200000000	0.3114543242
1.6250000000	0.3286683252
1.6300000000	0.3484323985
1.6350000000	0.3711213395
1.6400000000	0.3972144160
1.6450000000	0.4273237512
1.6500000000	0.4622177046
1.6550000000	0.5028700083
1.6600000000	0.5505422330
1.6650000000	0.6068627985
1.6700000000	0.6734150256
1.6750000000	0.7540844490
1.6800000000	0.8523055361
1.6850000000	0.9734813432
1.6900000000	1.1252832149
1.6950000000	1.3189685295
1.7000000000	1.5714839825
1.7050000000	1.9198356284
1.7100000000	2.4058477967
1.7150000000	3.1122761673
1.7200000000	4.1888958790
1.7250000000	5.8969089594
1.7300000000	8.5216587368
1.7350000000	11.8900813871
1.7400000000	16.1483327321
1.7450000000	23.6208478990
1.7500000000	33.3208420120
1.7550000000	33.8568528350
1.7600000000	23.7527358056
1.7650000000	14.7957347908
1.7700000000	9.4846452671
1.7750000000	6.4645652448
1.7800000000	4.6798281998
1.7850000000	3.5819954645
1.7900000000	2.9011750091
1.7950000000	2.5116220729
1.8000000000	2.3543956351
1.8050000000	2.3046251484
1.8100000000	2.0504566648
1.8150000000	1.5888067948
1.8200000000	1.2199795428
1.8250000000	1.0298129829
1.8300000000	0.8965567804
1.8350000000	0.7781296894
1.8400000000	0.6815614926
1.8450000000	0.6049286544
1.8500000000	0.5431706046
1.8550000000	0.4921513411
1.8600000000	0.4452204158
1.8650000000	0.4055441504
1.8700000000	0.3654446779
1.8750000000	0.3076383626
1.8800000000	0.1758740046
1.8850000000	-0.1129085310
1.8900000000	-0.5013370109
1.8950000000	-0.5679821106
1.9000000000	0.0607787229
1.9050000000	0.6470070122
1.9100000000	0.7154125683
1.9150000000	0.6043913502
1.9200000000	0.4955803816
1.9250000000	0.4183679698
1.9300000000	0.3716082123
1.9350000000	0.3359095875
1.9400000000	0.3121626709
1.9450000000	0.2964442926
1.9500000000	0.2854576764
1.9550000000	0.2762629215
1.9600000000	0.2683221701
1.9650000000	0.2626828822
1.9700000000	0.2596709895
1.9750000000	0.2590861599
1.9800000000	0.2607658836
1.9850000000	0.2647588391
1.9900000000	0.2713271400
1.9950000000	0.2807987333
2.0000000000	0.2929272816
2.0050000000	0.3066863535
2.0100000000	0.3165557602
2.0150000000	0.3231377103
2.0200000000	0.3310742336
2.0250000000	0.3433252643
2.0300000000	0.3607618142
2.0350000000	0.3838198561
2.0400000000	0.4132910535
2.0450000000	0.4505490846
2.0500000000	0.4975668566
2.0550000000	0.5565369134
2.0600000000	0.6285227262
2.0650000000	0.7123926086
2.0700000000	0.8094064537
2.0750000000	0.9303864058
2.0800000000	1.0931996866
2.0850000000	1.3152670235
2.0900000000	1.6067198538
2.0950000000	1.9466185122
2.1000000000	2.2495629588
2.1050000000	2.3963581028
2.1100000000	2.3266448833
2.1150000000	2.1662264642
2.1200000000	2.0528398533
2.1250000000	2.0479986531
2.1300000000	2.1699524526
2.1350000000	2.4331653884
2.1400000000	2.8666087664
2.1450000000	3.5215376272
2.1500000000	4.4697262208
2.1550000000	5.7650883847
2.1600000000	7.3031615712
2.1650000000	8.5958846378
2.1700000000	8.9013348036
2.1750000000	7.9681316684
2.1800000000	6.4328803425
2.1850000000	4.9632673363
2.1900000000	3.8142474882
2.1950000000	2.9841147630
2.2000000000	2.4017076279
2.2050000000	1.9998946144
2.2100000000	1.7209541204
2.2150000000	1.5070045190
2.2200000000	1.3152932008
2.2250000000	1.1329457999
2.2300000000	0.9678433586
2.2350000000	0.8260801985
2.2400000000	0.7060117724
2.2450000000	0.6023371748
2.2500000000	0.5097801047
2.2550000000	0.4253897481
2.2600000000	0.3409979306
2.2650000000	0.2796053728
2.2700000000	0.2462574270
2.2750000000	0.2546536225
2.2800000000	0.3030911472
2.2850000000	0.3647705440
2.2900000000	0.4099188659
2.2950000000	0.4299298342
2.3000000000	0.4322196707
2.3050000000	0.4253163886
2.3100000000	0.4162222963
2.3150000000	0.4081638710
2.3200000000	0.4024167566
2.3250000000	0.3996818092
2.3300000000	0.4005262840
2.3350000000	0.4054200593
2.3400000000	0.4147644360
2.3450000000	0.4289653632
2.3500000000	0.4484528610
2.3550000000	0.4738715654
2.3600000000	0.5048040768
2.3650000000	0.5414427765
2.3700000000	0.5836857164
2.3750000000	0.6319914241
2.3800000000	0.6881036310
2.3850000000	0.7540914595
2.3900000000	0.8304124770
2.3950000000	0.9136682390
2.4000000000	0.9951221258
2.4050000000	1.0653173125
2.4100000000	1.1042245718
2.4150000000	1.1079431093
2.4200000000	1.0859850811
2.4250000000	1.0545713134
2.4300000000	1.0280981217
2.4350000000	1.0152557202
2.4400000000	1.0195118256
2.4450000000	1.0414266131
2.4500000000	1.0810699799
2.4550000000	1.1393252552
2.4600000000	1.2199273588
2.4650000000	1.3267050687
2.4700000000	1.4639220025
2.4750000000	1.6342411462
2.4800000000	1.8363187423
2.4850000000	2.0615326423
2.4900000000	2.2901597743
2.4950000000	2.4894706985
2.5000000000	2.6185093560
2.5050000000	2.6350983078
2.5100000000	2.5223964287
2.5150000000	2.3111658001
2.5200000000	2.0505588209
2.5250000000	1.7837572233
2.5300000000	1.5370829054
2.5350000000	1.3215954507
2.5400000000	1.1389230716
2.5450000000	0.9863554947
2.5500000000	0.8599651716
2.5550000000	0.7562232294
2.5600000000	0.6694774213
2.5650000000	0.6045588668
2.5700000000	0.5579132747
2.5750000000	0.5278771025
2.5800000000	0.5111163395
2.5850000000	0.5030711589
2.5900000000	0.4994622508
2.5950000000	0.4976249205
2.6000000000	0.4966999831
2.6050000000	0.5006612983
2.6100000000	0.5069371893
2.6150000000	0.5164885332
2.6200000000	0.5298258376
2.6250000000	0.5469805571
2.6300000000	0.5674684705
2.6350000000	0.5902618674
2.6400000000	0.6137904588
2.6450000000	0.6360630037
2.6500000000	0.6549706741
2.6550000000	0.6687844627
2.6600000000	0.6767012336
2.6650000000	0.6791927411
2.6700000000	0.6779058097
2.6750000000	0.6752476926
2.6800000000	0.6735509780
2.6850000000	0.6749949795
2.6900000000	0.6810973775
2.6950000000	0.6927908599
2.7000000000	0.7105226135
2.7050000000	0.7370656434
2.7100000000	0.7712260410
2.7150000000	0.8124514986
2.7200000000	0.8596003579
2.7250000000	0.9107346494
2.7300000000	0.9629286632
2.7350000000	1.0122379365
2.7400000000	1.0539706248
2.7450000000	1.0833628776
2.7500000000	1.0965749885
2.7550000000	1.0916724204
2.7600000000	1.0691494574
2.7650000000	1.0317507031
2.7700000000	0.9836760309
2.7750000000	0.9295785960
2.7800000000	0.8737252064
2.7850000000	0.8195291429
2.7900000000	0.7689692559
2.7950000000	0.7242109620
2.8000000000	0.6857022178
2.8050000000	0.6500361121
2.8100000000	0.6219159865
2.8150000000	0.6002347221
2.8200000000	0.5837896149
2.8250000000	0.5714770204
2.8300000000	0.5623589370
2.8350000000	0.5556573277
2.8400000000	0.5507147696
2.8450000000	0.5469731042
2.8500000000	0.5439841362
2.8550000000	0.5414503286
2.8600000000	0.5392709625
2.8650000000	0.5375570125
2.8700000000	0.5366029634
2.8750000000	0.5368138256
2.8800000000	0.5386154665
2.8850000000	0.5423737040
2.8900000000	0.5483379981
2.8950000000	0.5566074625
2.9000000000	0.5671141716
2.9050000000	0.5828303140
2.9100000000	0.6000650830
2.9150000000	0.6176677561
2.9200000000	0.6341840662
2.9250000000	0.6480517772
2.9300000000	0.6578203958
2.9350000000	0.6624053986
2.9400000000	0.6612981077
2.9450000000	0.6546628209
2.9500000000	0.6432753769
2.9550000000	0.6283254111
2.9600000000	0.6111656234
2.9650000000	0.5930773246
2.9700000000	0.5751142497
2.9750000000	0.5580342328
2.9800000000	0.5423038425
2.9850000000	0.5281487643
2.9900000000	0.5156214791
2.9950000000	0.5046670580
3.0000000000	0.4951768514
