# energy (eV)    P(omega), $W$ = 300 nm, $h$ = 300 nm, $s$ = 20 nm, $d/W = 5$, $E_{\rm e}$ = 200 keV
0.2000000000	0.0619449966
0.2050000000	0.0628348351
0.2100000000	0.0636712728
0.2150000000	0.0644559794
0.2200000000	0.0651903941
0.2250000000	0.0658757071
0.2300000000	0.0665127925
0.2350000000	0.0671021962
0.2400000000	0.0676440741
0.2450000000	0.0681380583
0.2500000000	0.0685833318
0.2550000000	0.0689783246
0.2600000000	0.0693207432
0.2650000000	0.0696073900
0.2700000000	0.0698338822
0.2750000000	0.0699944823
0.2800000000	0.0700817532
0.2850000000	0.0700861859
0.2900000000	0.0699955638
0.2950000000	0.0697944822
0.3000000000	0.0694631040
0.3050000000	0.0689763683
0.3100000000	0.0683021018
0.3150000000	0.0719817444
0.3200000000	0.0763524628
0.3250000000	0.0818775528
0.3300000000	0.0892710477
0.3350000000	0.0984770637
0.3400000000	0.1105337425
0.3450000000	0.1251702721
0.3500000000	0.1443254158
0.3550000000	0.1696838958
0.3600000000	0.2028191592
0.3650000000	0.2490350632
0.3700000000	0.3100339003
0.3750000000	0.3949502568
0.3800000000	0.5178518164
0.3850000000	0.7094735754
0.3900000000	1.0124235799
0.3950000000	1.5273983172
0.4000000000	2.5097835704
0.4050000000	4.7137393419
0.4100000000	10.7318307550
0.4150000000	34.4698115832
0.4200000000	21.9409068942
0.4250000000	-41.4176993626
0.4300000000	11.5417960563
0.4350000000	7.2016087647
0.4400000000	4.4090214787
0.4450000000	2.9047502298
0.4500000000	2.0382107189
0.4550000000	1.5046255744
0.4600000000	1.1569062633
0.4650000000	0.9198334772
0.4700000000	0.7521979852
0.4750000000	0.6309211944
0.4800000000	0.5409854347
0.4850000000	0.4733104291
0.4900000000	0.4216642263
0.4950000000	0.3818614752
0.5000000000	0.3510422057
0.5050000000	0.3271055738
0.5100000000	0.3087015611
0.5150000000	0.2948367971
0.5200000000	0.2844667983
0.5250000000	0.2771263678
0.5300000000	0.2723120535
0.5350000000	0.2696566843
0.5400000000	0.2688900202
0.5450000000	0.2697864490
0.5500000000	0.2722787714
0.5550000000	0.2762411384
0.5600000000	0.2816122366
0.5650000000	0.2883661734
0.5700000000	0.2964810381
0.5750000000	0.3060148988
0.5800000000	0.3170621456
0.5850000000	0.3296848008
0.5900000000	0.3440008672
0.5950000000	0.3601566800
0.6000000000	0.3783384102
0.6050000000	0.3988129207
0.6100000000	0.4218372809
0.6150000000	0.4477603768
0.6200000000	0.4770478921
0.6250000000	0.5101457002
0.6300000000	0.5477128197
0.6350000000	0.5905706819
0.6400000000	0.6395743363
0.6450000000	0.6959573819
0.6500000000	0.7613423164
0.6550000000	0.8374184817
0.6600000000	0.9267813114
0.6650000000	1.0327636753
0.6700000000	1.1592838363
0.6750000000	1.3123144227
0.6800000000	1.4998969953
0.6850000000	1.7325582208
0.6900000000	2.0266153734
0.6950000000	2.4048819723
0.7000000000	2.9036186614
0.7050000000	3.5782567908
0.7100000000	4.5227473173
0.7150000000	5.9043548163
0.7200000000	8.0345421055
0.7250000000	11.5718234678
0.7300000000	18.0669993736
0.7350000000	31.9701333411
0.7400000000	70.1150888404
0.7450000000	232.7753068711
0.7500000000	721.6728708857
0.7550000000	181.6889026368
0.7600000000	60.2170490887
0.7650000000	28.8748777944
0.7700000000	16.8057720682
0.7750000000	10.9773693307
0.7800000000	7.7314581963
0.7850000000	5.7468417343
0.7900000000	4.4435798516
0.7950000000	3.5444258759
0.8000000000	2.8978359942
0.8050000000	2.4161078250
0.8100000000	2.0486377694
0.8150000000	1.7572238386
0.8200000000	1.5271600363
0.8250000000	1.3418633476
0.8300000000	1.1900255880
0.8350000000	1.0651595569
0.8400000000	0.9604609017
0.8450000000	0.8725860833
0.8500000000	0.7983003947
0.8550000000	0.7341770282
0.8600000000	0.6794360654
0.8650000000	0.6326890062
0.8700000000	0.5913716843
0.8750000000	0.5562437719
0.8800000000	0.5264639196
0.8850000000	0.4997618293
0.8900000000	0.4783989989
0.8950000000	0.4589630936
0.9000000000	0.4436214531
0.9050000000	0.4331729320
0.9100000000	0.4236036182
0.9150000000	0.4179425897
0.9200000000	0.4176068147
0.9250000000	0.4174302244
0.9300000000	0.4115932873
0.9350000000	0.3933170924
0.9400000000	0.2901471503
0.9450000000	-0.1799844707
0.9500000000	-2.6635380482
0.9550000000	-15.2695348292
0.9600000000	3.6066506896
0.9650000000	6.3390862231
0.9700000000	2.8135225585
0.9750000000	1.4776998966
0.9800000000	0.9263177146
0.9850000000	0.6683632563
0.9900000000	0.5196599406
0.9950000000	0.4294596300
1.0000000000	0.3718557577
1.0050000000	0.3353519883
1.0100000000	0.3070207512
1.0150000000	0.2863108676
1.0200000000	0.2723678476
1.0250000000	0.2606341836
1.0300000000	0.2517005040
1.0350000000	0.2449179936
1.0400000000	0.2405857176
1.0450000000	0.2369432535
1.0500000000	0.2344920055
1.0550000000	0.2330915978
1.0600000000	0.2330658581
1.0650000000	0.2335137207
1.0700000000	0.2347990099
1.0750000000	0.2369259898
1.0800000000	0.2401331327
1.0850000000	0.2442104052
1.0900000000	0.2502877985
1.0950000000	0.2575151110
1.1000000000	0.2661460551
1.1050000000	0.2760698018
1.1100000000	0.2876104929
1.1150000000	0.3010238899
1.1200000000	0.3166238209
1.1250000000	0.3347684622
1.1300000000	0.3559991172
1.1350000000	0.3809694842
1.1400000000	0.4104362172
1.1450000000	0.4457254116
1.1500000000	0.4883248130
1.1550000000	0.5403637091
1.1600000000	0.6048456565
1.1650000000	0.6856794432
1.1700000000	0.7901286688
1.1750000000	0.9278872902
1.1800000000	1.1149579642
1.1850000000	1.3776295119
1.1900000000	1.7655211517
1.1950000000	2.3737361695
1.2000000000	3.4045300445
1.2050000000	5.3514560776
1.2100000000	9.6332935959
1.2150000000	21.2085177477
1.2200000000	52.0158206058
1.2250000000	46.7790145500
1.2300000000	18.7152360259
1.2350000000	8.8239958384
1.2400000000	5.0793584140
1.2450000000	3.3632661021
1.2500000000	2.4616817602
1.2550000000	1.9455531875
1.2600000000	1.6362567810
1.2650000000	1.4480011731
1.2700000000	1.3428779030
1.2750000000	1.2964300791
1.2800000000	1.2975988706
1.2850000000	1.3423302261
1.2900000000	1.4318408282
1.2950000000	1.5712310307
1.3000000000	1.7765208037
1.3050000000	2.0685649730
1.3100000000	2.4850838623
1.3150000000	3.0910661173
1.3200000000	4.0028657227
1.3250000000	5.4426810960
1.3300000000	7.8954900002
1.3350000000	12.4873351519
1.3400000000	22.3007331554
1.3450000000	46.6680418665
1.3500000000	99.1393411081
1.3550000000	92.5217371083
1.3600000000	42.6824589998
1.3650000000	20.9745476476
1.3700000000	12.0286369887
1.3750000000	7.7347717315
1.3800000000	5.3934367904
1.3850000000	3.9832754014
1.3900000000	3.0748880708
1.3950000000	2.4555260387
1.4000000000	2.0157081290
1.4050000000	1.6936493091
1.4100000000	1.4522998192
1.4150000000	1.2701865317
1.4200000000	1.1332407727
1.4250000000	1.0415245223
1.4300000000	1.0079556162
1.4350000000	1.0266837215
1.4400000000	0.7908139910
1.4450000000	0.0683183773
1.4500000000	-1.1046157996
1.4550000000	-0.3096723245
1.4600000000	1.3377528297
1.4650000000	0.7242216366
1.4700000000	-0.6840509744
1.4750000000	-2.9935641761
1.4800000000	-1.3323364080
1.4850000000	2.1897659974
1.4900000000	1.7750337468
1.4950000000	1.1489268586
1.5000000000	0.8072552135
1.5050000000	0.6232774463
1.5100000000	0.5184157215
1.5150000000	0.4547333907
1.5200000000	0.4135958340
1.5250000000	0.3880359413
1.5300000000	0.3685113036
1.5350000000	0.3550533016
1.5400000000	0.3461887243
1.5450000000	0.3411271529
1.5500000000	0.3393582962
1.5550000000	0.3408951859
1.5600000000	0.3466469009
1.5650000000	0.3561469347
1.5700000000	0.3715288036
1.5750000000	0.3953950580
1.5800000000	0.4326323339
1.5850000000	0.4927527396
1.5900000000	0.5957968358
1.5950000000	0.7861128816
1.6000000000	1.1573775801
1.6050000000	1.7712506508
1.6100000000	2.0555523420
1.6150000000	1.5225897636
1.6200000000	1.0226102381
1.6250000000	0.7586897238
1.6300000000	0.6261744924
1.6350000000	0.5579503790
1.6400000000	0.5233693550
1.6450000000	0.5081868516
1.6500000000	0.5052696193
1.6550000000	0.5112760565
1.6600000000	0.5242118139
1.6650000000	0.5431661408
1.6700000000	0.5677927139
1.6750000000	0.5980934709
1.6800000000	0.6343391874
1.6850000000	0.6769499456
1.6900000000	0.7262970666
1.6950000000	0.7816790160
1.7000000000	0.8421653645
1.7050000000	0.9041500306
1.7100000000	0.9748773464
1.7150000000	1.1506778174
1.7200000000	1.4591323260
1.7250000000	1.7417341664
1.7300000000	2.0450100002
1.7350000000	2.3782495604
1.7400000000	2.7052435480
1.7450000000	3.1252507782
1.7500000000	3.7604039526
1.7550000000	4.7057617248
1.7600000000	6.1201911241
1.7650000000	8.3005456683
1.7700000000	11.8127142496
1.7750000000	17.7298057111
1.7800000000	27.8124145159
1.7850000000	42.6819109428
1.7900000000	53.0421863440
1.7950000000	45.1664661902
1.8000000000	30.0595594507
1.8050000000	18.9833108870
1.8100000000	12.5161587245
1.8150000000	8.7255060036
1.8200000000	6.3926866827
1.8250000000	4.8803124960
1.8300000000	3.8534632402
1.8350000000	3.1286708198
1.8400000000	2.6006260809
1.8450000000	2.2054464398
1.8500000000	1.9028718075
1.8550000000	1.6677104661
1.8600000000	1.4823889795
1.8650000000	1.3349641827
1.8700000000	1.2169419097
1.8750000000	1.1220862269
1.8800000000	1.0454508210
1.8850000000	0.9826652189
1.8900000000	0.9286935388
1.8950000000	0.8760211370
1.9000000000	0.8116716150
1.9050000000	0.6898473361
1.9100000000	0.5221898624
1.9150000000	0.4334373125
1.9200000000	1.0597056751
1.9250000000	2.7904683490
1.9300000000	4.1630779211
1.9350000000	4.0990199507
1.9400000000	3.2239750607
1.9450000000	2.3755970479
1.9500000000	1.7799396673
1.9550000000	1.3896472159
1.9600000000	1.1317302278
1.9650000000	0.9591019954
1.9700000000	0.8344785932
1.9750000000	0.7431249306
1.9800000000	0.6733800577
1.9850000000	0.6167836697
1.9900000000	0.5668619607
1.9950000000	0.5179648884
2.0000000000	0.4692687752
2.0050000000	0.4381582825
2.0100000000	0.4559829379
2.0150000000	0.5050855962
2.0200000000	0.5353623139
2.0250000000	0.5434057673
2.0300000000	0.5452176758
2.0350000000	0.5485131589
2.0400000000	0.5561588163
2.0450000000	0.5688853943
2.0500000000	0.5871668805
2.0550000000	0.6114336776
2.0600000000	0.6416861127
2.0650000000	0.6760920750
2.0700000000	0.7101079975
2.0750000000	0.7403289760
2.0800000000	0.7697597252
2.0850000000	0.8046140330
2.0900000000	0.8490572574
2.0950000000	0.9048436443
2.1000000000	0.9738604878
2.1050000000	1.0554829608
2.1100000000	1.1554475839
2.1150000000	1.2779478793
2.1200000000	1.4288648004
2.1250000000	1.6164472884
2.1300000000	1.8523230589
2.1350000000	2.1530929097
2.1400000000	2.5427278427
2.1450000000	3.0562736373
2.1500000000	3.7447932725
2.1550000000	4.6805547907
2.1600000000	5.9560499478
2.1650000000	7.6496078254
2.1700000000	9.7298942256
2.1750000000	11.7981348196
2.1800000000	13.0760511879
2.1850000000	13.1424638586
2.1900000000	12.5614488719
2.1950000000	12.1093277440
2.2000000000	11.9088390421
2.2050000000	11.3518664793
2.2100000000	10.1693549180
2.2150000000	8.7154466898
2.2200000000	7.4102519552
2.2250000000	6.3315678676
2.2300000000	5.3817669391
2.2350000000	4.5230415158
2.2400000000	3.7854491918
2.2450000000	3.1952841842
2.2500000000	2.7428715287
2.2550000000	2.4030129225
2.2600000000	2.1485444721
2.2650000000	1.9522459623
2.2700000000	1.7846922785
2.2750000000	1.6168934103
2.2800000000	1.4362413102
2.2850000000	1.2643415747
2.2900000000	1.1455541227
2.2950000000	1.1049883707
2.3000000000	1.1195035210
2.3050000000	1.1416603376
2.3100000000	1.1435267101
2.3150000000	1.1253295689
2.3200000000	1.0991601796
2.3250000000	1.0775073921
2.3300000000	1.0667614197
2.3350000000	1.0680200285
2.3400000000	1.0777040327
2.3450000000	1.0877128608
2.3500000000	1.0878463000
2.3550000000	1.0715966964
2.3600000000	1.0408057580
2.3650000000	1.0035212919
2.3700000000	0.9680387333
2.3750000000	0.9393124868
2.3800000000	0.9189518458
2.3850000000	0.9065013595
2.3900000000	0.9009227993
2.3950000000	0.9010135855
2.4000000000	0.9071013067
2.4050000000	0.9211907464
2.4100000000	0.9439538749
2.4150000000	0.9763208901
2.4200000000	1.0188508690
2.4250000000	1.0725222573
2.4300000000	1.1387620325
2.4350000000	1.2194844237
2.4400000000	1.3171595783
2.4450000000	1.4349414658
2.4500000000	1.5768092970
2.4550000000	1.7477645839
2.4600000000	1.9539523211
2.4650000000	2.2027452849
2.4700000000	2.5025992725
2.4750000000	2.8619843638
2.4800000000	3.2896481992
2.4850000000	3.7890536563
2.4900000000	4.3553195230
2.4950000000	4.9681815070
2.5000000000	5.5847839816
2.5050000000	6.1615895936
2.5100000000	6.5512638049
2.5150000000	6.6688283598
2.5200000000	6.4940317790
2.5250000000	6.0808316221
2.5300000000	5.5232309677
2.5350000000	4.9118927377
2.5400000000	4.3108689522
2.5450000000	3.7563496307
2.5500000000	3.2644278485
2.5550000000	2.8387670967
2.5600000000	2.4735148505
2.5650000000	2.1664302854
2.5700000000	1.9102834904
2.5750000000	1.7005484701
2.5800000000	1.5338444822
2.5850000000	1.4064965123
2.5900000000	1.3124602447
2.5950000000	1.2432379718
2.6000000000	1.1899817628
2.6050000000	1.1521334457
2.6100000000	1.1193618005
2.6150000000	1.0911473480
2.6200000000	1.0680474961
2.6250000000	1.0506797878
2.6300000000	1.0394565957
2.6350000000	1.0345883330
2.6400000000	1.0361972058
2.6450000000	1.0443969301
2.6500000000	1.0594100856
2.6550000000	1.0812990202
2.6600000000	1.1103996472
2.6650000000	1.1470513050
2.6700000000	1.1916708505
2.6750000000	1.2447634421
2.6800000000	1.3068889682
2.6850000000	1.3786201689
2.6900000000	1.4604261839
2.6950000000	1.5525791001
2.7000000000	1.6549855976
2.7050000000	1.7792927953
2.7100000000	1.9149569103
2.7150000000	2.0593361754
2.7200000000	2.2085883200
2.7250000000	2.3578864960
2.7300000000	2.5017843130
2.7350000000	2.6345297562
2.7400000000	2.7501407775
2.7450000000	2.8433074243
2.7500000000	2.9057929548
2.7550000000	2.9326110437
2.7600000000	2.9199781248
2.7650000000	2.8674542162
2.7700000000	2.7785593268
2.7750000000	2.6603459898
2.7800000000	2.5220067009
2.7850000000	2.3732934454
2.7900000000	2.2229561313
2.7950000000	2.0780113815
2.8000000000	1.9434206327
2.8050000000	1.8072464164
2.8100000000	1.6906992062
2.8150000000	1.5934663918
2.8200000000	1.5139827863
2.8250000000	1.4501854818
2.8300000000	1.3999964437
2.8350000000	1.3616372557
2.8400000000	1.3332357765
2.8450000000	1.3148571798
2.8500000000	1.3051409030
2.8550000000	1.3035685318
2.8600000000	1.3097529555
2.8650000000	1.3233454399
2.8700000000	1.3439558833
2.8750000000	1.3710893576
2.8800000000	1.4040970139
2.8850000000	1.4421350163
2.8900000000	1.4841890207
2.8950000000	1.5291118182
2.9000000000	1.5756969867
2.9050000000	1.6316778860
2.9100000000	1.6853812119
2.9150000000	1.7351177250
2.9200000000	1.7791145663
2.9250000000	1.8153601763
2.9300000000	1.8420023195
2.9350000000	1.8561605038
2.9400000000	1.8565914799
2.9450000000	1.8427656512
2.9500000000	1.8154807304
2.9550000000	1.7768104500
2.9600000000	1.7297480171
2.9650000000	1.6776849844
2.9700000000	1.6239009592
2.9750000000	1.5711987092
2.9800000000	1.5217258150
2.9850000000	1.4769475113
2.9900000000	1.4377450883
2.9950000000	1.4045322436
3.0000000000	1.3773960220
