# energy (eV)    P(omega), $W$ = 400 nm, $h$ = 300 nm, $s$ = 20 nm, $d/W = 5$, $E_{\rm e}$ = 200 keV
0.2000000000	0.0594446535
0.2050000000	0.0599853783
0.2100000000	0.0603660437
0.2150000000	0.0605802390
0.2200000000	0.0606189991
0.2250000000	0.0604701445
0.2300000000	0.0601176482
0.2350000000	0.0595406426
0.2400000000	0.0587122898
0.2450000000	0.0575980021
0.2500000000	0.0561535576
0.2550000000	0.0543220562
0.2600000000	0.0520301728
0.2650000000	0.0544313223
0.2700000000	0.0605307565
0.2750000000	0.0692588423
0.2800000000	0.0814195056
0.2850000000	0.0993474632
0.2900000000	0.1215613719
0.2950000000	0.1534067958
0.3000000000	0.1962159884
0.3050000000	0.2618321077
0.3100000000	0.3532329981
0.3150000000	0.5300894546
0.3200000000	0.8063039493
0.3250000000	0.9954098967
0.3300000000	1.2570038832
0.3350000000	1.6278500734
0.3400000000	2.2100028423
0.3450000000	3.2087888154
0.3500000000	5.2004519460
0.3550000000	9.8108966362
0.3600000000	24.1114139096
0.3650000000	0.1090192078
0.3700000000	11.1746956947
0.3750000000	14.6942562389
0.3800000000	6.8469914491
0.3850000000	3.8569573168
0.3900000000	2.4738868209
0.3950000000	1.7432892207
0.4000000000	1.3202741172
0.4050000000	1.0444982412
0.4100000000	0.8649620588
0.4150000000	0.7465478441
0.4200000000	0.6717072704
0.4250000000	0.6129294133
0.4300000000	0.5434759104
0.4350000000	0.4885075570
0.4400000000	0.4450336911
0.4450000000	0.4104667639
0.4500000000	0.3831762524
0.4550000000	0.3615355153
0.4600000000	0.3446538008
0.4650000000	0.3315890021
0.4700000000	0.3217174263
0.4750000000	0.3146026927
0.4800000000	0.3098639957
0.4850000000	0.3071674329
0.4900000000	0.3063155392
0.4950000000	0.3071563936
0.5000000000	0.3095601812
0.5050000000	0.3134690352
0.5100000000	0.3188355494
0.5150000000	0.3256315419
0.5200000000	0.3338710876
0.5250000000	0.3435657225
0.5300000000	0.3548577786
0.5350000000	0.3678105155
0.5400000000	0.3825378669
0.5450000000	0.3991892494
0.5500000000	0.4179760618
0.5550000000	0.4391295455
0.5600000000	0.4629311555
0.5650000000	0.4897428229
0.5700000000	0.5200641721
0.5750000000	0.5542655018
0.5800000000	0.5930396931
0.5850000000	0.6373334535
0.5900000000	0.6877853293
0.5950000000	0.7457390266
0.6000000000	0.8129697500
0.6050000000	0.8908079490
0.6100000000	0.9823035706
0.6150000000	1.0899857663
0.6200000000	1.2181961869
0.6250000000	1.3731636442
0.6300000000	1.5612403832
0.6350000000	1.7943629685
0.6400000000	2.0857004823
0.6450000000	2.4591502494
0.6500000000	2.9452384614
0.6550000000	3.5956735255
0.6600000000	4.4977641070
0.6650000000	5.7894498508
0.6700000000	7.7453674617
0.6750000000	10.8901829361
0.6800000000	16.4492283326
0.6850000000	27.6037951177
0.6900000000	55.3222521488
0.6950000000	155.2973589741
0.7000000000	753.2031095828
0.7050000000	366.1872164296
0.7100000000	94.0656015396
0.7150000000	40.0019047223
0.7200000000	21.8455081290
0.7250000000	13.7228582197
0.7300000000	9.4119673478
0.7350000000	6.8635885728
0.7400000000	5.2317014483
0.7450000000	4.1240423572
0.7500000000	3.3393984226
0.7550000000	2.7629440347
0.7600000000	2.3284579486
0.7650000000	1.9915205914
0.7700000000	1.7255433751
0.7750000000	1.5120136685
0.7800000000	1.3384923894
0.7850000000	1.1956155420
0.7900000000	1.0759180383
0.7950000000	0.9759487078
0.8000000000	0.8909478939
0.8050000000	0.8181240421
0.8100000000	0.7561291210
0.8150000000	0.7017932271
0.8200000000	0.6544880554
0.8250000000	0.6147906903
0.8300000000	0.5800423435
0.8350000000	0.5498336824
0.8400000000	0.5257768013
0.8450000000	0.5047858410
0.8500000000	0.4869876518
0.8550000000	0.4757371251
0.8600000000	0.4667250789
0.8650000000	0.4602720977
0.8700000000	0.4625167539
0.8750000000	0.4633021389
0.8800000000	0.4608073880
0.8850000000	0.4407711044
0.8900000000	0.3420569788
0.8950000000	-0.1526459986
0.9000000000	-2.8053693809
0.9050000000	-18.4334123629
0.9100000000	3.5100852291
0.9150000000	8.3147120208
0.9200000000	3.4515968905
0.9250000000	1.7956229630
0.9300000000	1.0960944922
0.9350000000	0.7618836825
0.9400000000	0.5815919291
0.9450000000	0.4816579079
0.9500000000	0.4106894818
0.9550000000	0.3631849034
0.9600000000	0.3338065151
0.9650000000	0.3095672419
0.9700000000	0.2922728486
0.9750000000	0.2804890957
0.9800000000	0.2733192649
0.9850000000	0.2720140944
0.9900000000	0.2746476662
0.9950000000	0.2852422941
1.0000000000	0.3105557361
1.0050000000	0.3696418680
1.0100000000	0.5244825662
1.0150000000	1.0551554570
1.0200000000	2.0266659753
1.0250000000	0.9211563071
1.0300000000	0.4716246861
1.0350000000	0.3376432072
1.0400000000	0.2849544478
1.0450000000	0.2602346213
1.0500000000	0.2478400759
1.0550000000	0.2413343980
1.0600000000	0.2384098002
1.0650000000	0.2378552353
1.0700000000	0.2389992837
1.0750000000	0.2416052551
1.0800000000	0.2452047162
1.0850000000	0.2501054694
1.0900000000	0.2571891277
1.0950000000	0.2654482460
1.1000000000	0.2749636734
1.1050000000	0.2857524598
1.1100000000	0.2979853138
1.1150000000	0.3118249703
1.1200000000	0.3274645948
1.1250000000	0.3450640467
1.1300000000	0.3650792476
1.1350000000	0.3878175508
1.1400000000	0.4137391848
1.1450000000	0.4434294140
1.1500000000	0.4773437028
1.1550000000	0.5169001175
1.1600000000	0.5629953713
1.1650000000	0.6168039064
1.1700000000	0.6785686592
1.1750000000	0.7412058074
1.1800000000	0.8004721260
1.1850000000	1.1125639287
1.1900000000	1.3807063879
1.1950000000	1.8927540501
1.2000000000	2.5778159546
1.2050000000	2.2611558824
1.2100000000	2.1639366142
1.2150000000	2.4090667517
1.2200000000	2.8812565173
1.2250000000	3.6063953820
1.2300000000	4.7090224564
1.2350000000	6.4532639285
1.2400000000	9.3914387535
1.2450000000	14.9240007781
1.2500000000	26.9059652717
1.2550000000	58.2429206811
1.2600000000	140.6808070299
1.2650000000	142.5036936595
1.2700000000	59.2785811366
1.2750000000	27.3630269117
1.2800000000	15.1541218163
1.2850000000	9.5298061804
1.2900000000	6.5318070319
1.2950000000	4.7604743686
1.3000000000	3.6322140610
1.3050000000	2.8725601137
1.3100000000	2.3368816889
1.3150000000	1.9498273924
1.3200000000	1.6629033406
1.3250000000	1.4469822731
1.3300000000	1.2843723258
1.3350000000	1.1642174991
1.3400000000	1.0808815551
1.3450000000	1.0328184749
1.3500000000	1.0270382263
1.3550000000	1.0794998614
1.3600000000	1.2308108017
1.3650000000	1.5843062582
1.3700000000	2.4285070584
1.3750000000	4.5289517843
1.3800000000	7.3977041367
1.3850000000	5.1678623541
1.3900000000	2.6335849088
1.3950000000	1.5281004361
1.4000000000	1.0007550685
1.4050000000	0.6766457634
1.4100000000	0.3832954066
1.4150000000	-0.0543299519
1.4200000000	-1.0341101360
1.4250000000	-3.6302694610
1.4300000000	-4.8811269636
1.4350000000	2.2362351678
1.4400000000	2.8604880712
1.4450000000	1.7149844093
1.4500000000	1.0671311276
1.4550000000	0.7356193206
1.4600000000	0.5432110424
1.4650000000	0.3911499642
1.4700000000	0.2284990909
1.4750000000	0.2685223854
1.4800000000	0.3936656985
1.4850000000	0.3574614737
1.4900000000	0.3165238455
1.4950000000	0.2900451241
1.5000000000	0.2726508233
1.5050000000	0.2611498172
1.5100000000	0.2533259968
1.5150000000	0.2490572379
1.5200000000	0.2459107521
1.5250000000	0.2447761004
1.5300000000	0.2457579762
1.5350000000	0.2493055531
1.5400000000	0.2565393397
1.5450000000	0.2699477610
1.5500000000	0.2951238583
1.5550000000	0.3432161725
1.5600000000	0.4154065544
1.5650000000	0.4269753063
1.5700000000	0.3618280210
1.5750000000	0.3161114942
1.5800000000	0.2963883260
1.5850000000	0.2901802809
1.5900000000	0.2909812153
1.5950000000	0.2959656398
1.6000000000	0.3039025214
1.6050000000	0.3143679813
1.6100000000	0.3270455402
1.6150000000	0.3418880068
1.6200000000	0.3591317781
1.6250000000	0.3789807830
1.6300000000	0.4017702311
1.6350000000	0.4279322872
1.6400000000	0.4580195815
1.6450000000	0.4927379383
1.6500000000	0.5329733338
1.6550000000	0.5798485555
1.6600000000	0.6348182919
1.6650000000	0.6997602368
1.6700000000	0.7765000827
1.6750000000	0.8695181521
1.6800000000	0.9827746537
1.6850000000	1.1224997328
1.6900000000	1.2975390585
1.6950000000	1.5208732677
1.7000000000	1.8120432473
1.7050000000	2.2137199152
1.7100000000	2.7741300984
1.7150000000	3.5886977753
1.7200000000	4.8301258781
1.7250000000	6.7996015658
1.7300000000	9.8261474033
1.7350000000	13.7101972848
1.7400000000	18.6202670092
1.7450000000	27.2366161222
1.7500000000	38.4214170077
1.7550000000	39.0394694224
1.7600000000	27.3886701893
1.7650000000	17.0605834571
1.7700000000	10.9365038754
1.7750000000	7.4541286922
1.7800000000	5.3961962015
1.7850000000	4.1303163607
1.7900000000	3.3452844253
1.7950000000	2.8961087219
1.8000000000	2.7148272498
1.8050000000	2.6574513016
1.8100000000	2.3643746924
1.8150000000	1.8320430416
1.8200000000	1.4067453253
1.8250000000	1.1874638688
1.8300000000	1.0338065791
1.8350000000	0.8972488058
1.8400000000	0.7858966070
1.8450000000	0.6975319194
1.8500000000	0.6263193380
1.8550000000	0.5674895995
1.8600000000	0.5133741400
1.8650000000	0.4676238624
1.8700000000	0.4213855433
1.8750000000	0.3547298738
1.8800000000	0.2027954101
1.8850000000	-0.1301917246
1.8900000000	-0.5780773490
1.8950000000	-0.6549235797
1.9000000000	0.0700831645
1.9050000000	0.7460468297
1.9100000000	0.8249235576
1.9150000000	0.6969082633
1.9200000000	0.5714415600
1.9250000000	0.4824103173
1.9300000000	0.4284932661
1.9350000000	0.3873306545
1.9400000000	0.3599494421
1.9450000000	0.3418259118
1.9500000000	0.3291582727
1.9550000000	0.3185559776
1.9600000000	0.3093989431
1.9650000000	0.3028956117
1.9700000000	0.2994220868
1.9750000000	0.2987473541
1.9800000000	0.3006839571
1.9850000000	0.3052879716
1.9900000000	0.3128615966
1.9950000000	0.3237829610
2.0000000000	0.3377680269
2.0050000000	0.3536333028
2.0100000000	0.3650136726
2.0150000000	0.3726034881
2.0200000000	0.3817552592
2.0250000000	0.3958819821
2.0300000000	0.4159880140
2.0350000000	0.4425760951
2.0400000000	0.4765591021
2.0450000000	0.5195210275
2.0500000000	0.5737368411
2.0550000000	0.6417348103
2.0600000000	0.7247413225
2.0650000000	0.8214515480
2.0700000000	0.9333183693
2.0750000000	1.0728208165
2.0800000000	1.2605615654
2.0850000000	1.5166284982
2.0900000000	1.8527042087
2.0950000000	2.2446429117
2.1000000000	2.5939688589
2.1050000000	2.7632368270
2.1100000000	2.6828459049
2.1150000000	2.4978607679
2.1200000000	2.3671070672
2.1250000000	2.3615162682
2.1300000000	2.5021314260
2.1350000000	2.8056301593
2.1400000000	3.3054179299
2.1450000000	4.0605951458
2.1500000000	5.1539226738
2.1550000000	6.6475673791
2.1600000000	8.4210764532
2.1650000000	9.9116794318
2.1700000000	10.2638851459
2.1750000000	9.1878337765
2.1800000000	7.4175771976
2.1850000000	5.7230062323
2.1900000000	4.3981021657
2.1950000000	3.4408977420
2.2000000000	2.7693384605
2.2050000000	2.3060168466
2.2100000000	1.9843760918
2.2150000000	1.7376753192
2.2200000000	1.5166184478
2.2250000000	1.3063602251
2.2300000000	1.1159871944
2.2350000000	0.9525258866
2.2400000000	0.8140798086
2.2450000000	0.6945366583
2.2500000000	0.5878125817
2.2550000000	0.4905052049
2.2600000000	0.3931961840
2.2650000000	0.3224070410
2.2700000000	0.2839553306
2.2750000000	0.2936374035
2.2800000000	0.3494897459
2.2850000000	0.4206108361
2.2900000000	0.4726705375
2.2950000000	0.4957452795
2.3000000000	0.4983864552
2.3050000000	0.4904274103
2.3100000000	0.4799420909
2.3150000000	0.4706506746
2.3200000000	0.4640240122
2.3250000000	0.4608703528
2.3300000000	0.4618439722
2.3350000000	0.4674868283
2.3400000000	0.4782617358
2.3450000000	0.4946368257
2.3500000000	0.5171079597
2.3550000000	0.5464184572
2.3600000000	0.5820870142
2.3650000000	0.6243354342
2.3700000000	0.6730461371
2.3750000000	0.7287478378
2.3800000000	0.7934512542
2.3850000000	0.8695423273
2.3900000000	0.9575486938
2.3950000000	1.0535515581
2.4000000000	1.1474765984
2.4050000000	1.2284189488
2.4100000000	1.2732826287
2.4150000000	1.2775695711
2.4200000000	1.2522483406
2.4250000000	1.2160233741
2.4300000000	1.1854952154
2.4350000000	1.1706845876
2.4400000000	1.1755900607
2.4450000000	1.2008574507
2.4500000000	1.2465672119
2.4550000000	1.3137377861
2.4600000000	1.4066758247
2.4650000000	1.5297962293
2.4700000000	1.6880153329
2.4750000000	1.8844038395
2.4800000000	2.1174123687
2.4850000000	2.3770990220
2.4900000000	2.6407217068
2.4950000000	2.8705410124
2.5000000000	3.0193316353
2.5050000000	3.0384599112
2.5100000000	2.9085067477
2.5150000000	2.6649429511
2.5200000000	2.3644447025
2.5250000000	2.0568036090
2.5300000000	1.7723706959
2.5350000000	1.5238984593
2.5400000000	1.3132643594
2.5450000000	1.1373432552
2.5500000000	0.9916064208
2.5550000000	0.8719848235
2.5600000000	0.7719610269
2.5650000000	0.6971056638
2.5700000000	0.6433203901
2.5750000000	0.6086870242
2.5800000000	0.5893612075
2.5850000000	0.5800851227
2.5900000000	0.5759243990
2.5950000000	0.5738064390
2.6000000000	0.5727405379
2.6050000000	0.5773089404
2.6100000000	0.5845462901
2.6150000000	0.5955605938
2.6200000000	0.6109405298
2.6250000000	0.6307223682
2.6300000000	0.6543477347
2.6350000000	0.6806315375
2.6400000000	0.7077630120
2.6450000000	0.7334459807
2.6500000000	0.7552486735
2.6550000000	0.7711773106
2.6600000000	0.7803057687
2.6650000000	0.7831780474
2.6700000000	0.7816931522
2.6750000000	0.7786269577
2.6800000000	0.7766692368
2.6850000000	0.7783330056
2.6900000000	0.7853683318
2.6950000000	0.7988507083
2.7000000000	0.8192957848
2.7050000000	0.8499009394
2.7100000000	0.8892896150
2.7150000000	0.9368249475
2.7200000000	0.9911905076
2.7250000000	1.0501516660
2.7300000000	1.1103348552
2.7350000000	1.1671918090
2.7400000000	1.2153124934
2.7450000000	1.2492038280
2.7500000000	1.2644383511
2.7550000000	1.2587853868
2.7600000000	1.2328148838
2.7650000000	1.1896915598
2.7700000000	1.1342581722
2.7750000000	1.0718801359
2.7800000000	1.0074774070
2.7850000000	0.9449857321
2.7900000000	0.8866868696
2.7950000000	0.8350777017
2.8000000000	0.7906747460
2.8050000000	0.7495496402
2.8100000000	0.7171256061
2.8150000000	0.6921260348
2.8200000000	0.6731641028
2.8250000000	0.6589672088
2.8300000000	0.6484537541
2.8350000000	0.6407265925
2.8400000000	0.6350276580
2.8450000000	0.6307133440
2.8500000000	0.6272668436
2.8550000000	0.6243450717
2.8600000000	0.6218318980
2.8650000000	0.6198552975
2.8700000000	0.6187548551
2.8750000000	0.6189976013
2.8800000000	0.6210746201
2.8850000000	0.6254077475
2.8900000000	0.6322846485
2.8950000000	0.6418196193
2.9000000000	0.6539343470
2.9050000000	0.6720559557
2.9100000000	0.6919287296
2.9150000000	0.7122257962
2.9200000000	0.7312702724
2.9250000000	0.7472607771
2.9300000000	0.7585247764
2.9350000000	0.7638117251
2.9400000000	0.7625350712
2.9450000000	0.7548842529
2.9500000000	0.7417538619
2.9550000000	0.7245156277
2.9600000000	0.7047293054
2.9650000000	0.6838723339
2.9700000000	0.6631597412
2.9750000000	0.6434653599
2.9800000000	0.6253271736
2.9850000000	0.6090054117
2.9900000000	0.5945605847
2.9950000000	0.5819293545
3.0000000000	0.5709864405
