# energy (eV)    P(omega), $W$ = 300 nm, $h$ = 300 nm, $s$ = 20 nm, $d/W = 5$, $E_{\rm e}$ = 200 keV
0.2000000000	0.0542868062
0.2050000000	0.0551134874
0.2100000000	0.0558817147
0.2150000000	0.0565934400
0.2200000000	0.0572504206
0.2250000000	0.0578541073
0.2300000000	0.0584056586
0.2350000000	0.0589058813
0.2400000000	0.0593551860
0.2450000000	0.0597535154
0.2500000000	0.0601002879
0.2550000000	0.0603942522
0.2600000000	0.0606334615
0.2650000000	0.0608150215
0.2700000000	0.0609349993
0.2750000000	0.0609881270
0.2800000000	0.0609675362
0.2850000000	0.0608643613
0.2900000000	0.0606672632
0.2950000000	0.0603617938
0.3000000000	0.0599295132
0.3050000000	0.0593469214
0.3100000000	0.0585839195
0.3150000000	0.0620341275
0.3200000000	0.0661314909
0.3250000000	0.0713174404
0.3300000000	0.0782690081
0.3350000000	0.0869193631
0.3400000000	0.0982467326
0.3450000000	0.1119735215
0.3500000000	0.1299229995
0.3550000000	0.1536610572
0.3600000000	0.1846317331
0.3650000000	0.2277858849
0.3700000000	0.2846301392
0.3750000000	0.3636395654
0.3800000000	0.4778230241
0.3850000000	0.6556264133
0.3900000000	0.9362927929
0.3950000000	1.4126667140
0.4000000000	2.3201559046
0.4050000000	4.3532876731
0.4100000000	9.8966980467
0.4150000000	31.7301120426
0.4200000000	20.2301271295
0.4250000000	-37.9729623731
0.4300000000	10.5385950359
0.4350000000	6.5586307231
0.4400000000	4.0033269347
0.4450000000	2.6288716302
0.4500000000	1.8381820560
0.4550000000	1.3519101964
0.4600000000	1.0353939510
0.4650000000	0.8198244717
0.4700000000	0.6675349624
0.4750000000	0.5574332187
0.4800000000	0.4758183608
0.4850000000	0.4144049729
0.4900000000	0.3675141016
0.4950000000	0.3313351142
0.5000000000	0.3032628617
0.5050000000	0.2813879791
0.5100000000	0.2644788919
0.5150000000	0.2516279959
0.5200000000	0.2418926381
0.5250000000	0.2348428917
0.5300000000	0.2300216790
0.5350000000	0.2270932685
0.5400000000	0.2258098076
0.5450000000	0.2259643453
0.5500000000	0.2274872821
0.5550000000	0.2302606577
0.5600000000	0.2342216056
0.5650000000	0.2393400778
0.5700000000	0.2455870935
0.5750000000	0.2530053374
0.5800000000	0.2616638855
0.5850000000	0.2716068971
0.5900000000	0.2829230014
0.5950000000	0.2957256875
0.6000000000	0.3101589854
0.6050000000	0.3264354136
0.6100000000	0.3447550283
0.6150000000	0.3653933779
0.6200000000	0.3887183191
0.6250000000	0.4150821430
0.6300000000	0.4450066446
0.6350000000	0.4791419600
0.6400000000	0.5181636948
0.6450000000	0.5630487011
0.6500000000	0.6150803376
0.6550000000	0.6755937857
0.6600000000	0.7466430356
0.6650000000	0.8308607588
0.6700000000	0.9313414974
0.6750000000	1.0528066658
0.6800000000	1.2016024442
0.6850000000	1.3860390646
0.6900000000	1.6189868709
0.6950000000	1.9184420140
0.7000000000	2.3129864528
0.7050000000	2.8463031409
0.7100000000	3.5923934638
0.7150000000	4.6829699351
0.7200000000	6.3631721377
0.7250000000	9.1510912378
0.7300000000	14.2662943294
0.7350000000	25.2068257797
0.7400000000	55.1987339025
0.7450000000	182.9753162959
0.7500000000	566.4075038234
0.7550000000	142.3785041560
0.7600000000	47.1147497546
0.7650000000	22.5566162426
0.7700000000	13.1075791095
0.7750000000	8.5480602260
0.7800000000	6.0107746754
0.7850000000	4.4605934606
0.7900000000	3.4433749266
0.7950000000	2.7420892496
0.8000000000	2.2381483082
0.8050000000	1.8629641272
0.8100000000	1.5769697363
0.8150000000	1.3503559954
0.8200000000	1.1715647010
0.8250000000	1.0276506810
0.8300000000	0.9098036442
0.8350000000	0.8129357169
0.8400000000	0.7317559174
0.8450000000	0.6636511626
0.8500000000	0.6060901860
0.8550000000	0.5564322005
0.8600000000	0.5140428172
0.8650000000	0.4778300848
0.8700000000	0.4458421878
0.8750000000	0.4186192442
0.8800000000	0.3955020448
0.8850000000	0.3747782030
0.8900000000	0.3581135442
0.8950000000	0.3429549360
0.9000000000	0.3308959851
0.9050000000	0.3225066810
0.9100000000	0.3148129856
0.9150000000	0.3100406791
0.9200000000	0.3092142053
0.9250000000	0.3085444168
0.9300000000	0.3038093525
0.9350000000	0.2901646619
0.9400000000	0.2151925051
0.9450000000	-0.1246292305
0.9500000000	-1.9160309005
0.9550000000	-10.9952226322
0.9600000000	2.5932526172
0.9650000000	4.5516287209
0.9700000000	2.0178597227
0.9750000000	1.0591943345
0.9800000000	0.6639177916
0.9850000000	0.4790953356
0.9900000000	0.3726553415
0.9950000000	0.3081319556
1.0000000000	0.2669389718
1.0050000000	0.2408114569
1.0100000000	0.2205760140
1.0150000000	0.2057988795
1.0200000000	0.1958393714
1.0250000000	0.1874985311
1.0300000000	0.1811730017
1.0350000000	0.1764011895
1.0400000000	0.1733772652
1.0450000000	0.1708865629
1.0500000000	0.1692709753
1.0550000000	0.1684320717
1.0600000000	0.1685872286
1.0650000000	0.1691306158
1.0700000000	0.1703108992
1.0750000000	0.1721332595
1.0800000000	0.1747618584
1.0850000000	0.1780952771
1.0900000000	0.1829808198
1.0950000000	0.1887753322
1.1000000000	0.1956671303
1.1050000000	0.2036235759
1.1100000000	0.2128886926
1.1150000000	0.2236729647
1.1200000000	0.2362181043
1.1250000000	0.2508737730
1.1300000000	0.2680688036
1.1350000000	0.2883504922
1.1400000000	0.3123333430
1.1450000000	0.3411756197
1.1500000000	0.3761068499
1.1550000000	0.4189181987
1.1600000000	0.4721368674
1.1650000000	0.5390332793
1.1700000000	0.6257743572
1.1750000000	0.7405110320
1.1800000000	0.8967306646
1.1850000000	1.1166118199
1.1900000000	1.4419050065
1.1950000000	1.9528773844
1.2000000000	2.8199011754
1.2050000000	4.4586661783
1.2100000000	8.0636207549
1.2150000000	17.8051625022
1.2200000000	43.7036205444
1.2250000000	39.2275214151
1.2300000000	15.6119585383
1.2350000000	7.2941736281
1.2400000000	4.1430877846
1.2450000000	2.6946498459
1.2500000000	1.9285495294
1.2550000000	1.4841077131
1.2600000000	1.2110048919
1.2650000000	1.0368703959
1.2700000000	0.9290228610
1.2750000000	0.8662198988
1.2800000000	0.8380156513
1.2850000000	0.8394092314
1.2900000000	0.8691183870
1.2950000000	0.9284518918
1.3000000000	1.0253789013
1.3050000000	1.1699830483
1.3100000000	1.3817018572
1.3150000000	1.6943293615
1.3200000000	2.1688700533
1.3250000000	2.9214153009
1.3300000000	4.2070450521
1.3350000000	6.6163529848
1.3400000000	11.7661543087
1.3450000000	24.5476693237
1.3500000000	52.0407198739
1.3550000000	48.5026603037
1.3600000000	22.3586560305
1.3650000000	10.9845048773
1.3700000000	6.3000328394
1.3750000000	4.0523637673
1.3800000000	2.8268902048
1.3850000000	2.0885933321
1.3900000000	1.6125400976
1.3950000000	1.2875750350
1.4000000000	1.0560871587
1.4050000000	0.8856345987
1.4100000000	0.7563939695
1.4150000000	0.6562244797
1.4200000000	0.5760916427
1.4250000000	0.5119091436
1.4300000000	0.4599864138
1.4350000000	0.4071924696
1.4400000000	0.2400495980
1.4450000000	-0.1927981603
1.4500000000	-0.9846404876
1.4550000000	-0.3576038550
1.4600000000	0.8984004348
1.4650000000	0.5467006556
1.4700000000	-0.2332906758
1.4750000000	-1.4256615640
1.4800000000	-0.6214160484
1.4850000000	1.1191487621
1.4900000000	0.9054020910
1.4950000000	0.5899319139
1.5000000000	0.4172561269
1.5050000000	0.3234529760
1.5100000000	0.2696764922
1.5150000000	0.2365767624
1.5200000000	0.2148047050
1.5250000000	0.2009468056
1.5300000000	0.1899371697
1.5350000000	0.1818793701
1.5400000000	0.1759784015
1.5450000000	0.1717486445
1.5500000000	0.1688716570
1.5550000000	0.1671864728
1.5600000000	0.1669639866
1.5650000000	0.1675829929
1.5700000000	0.1696098078
1.5750000000	0.1734302771
1.5800000000	0.1798270965
1.5850000000	0.1903417602
1.5900000000	0.2082252993
1.5950000000	0.2406217467
1.6000000000	0.3024185205
1.6050000000	0.4024608634
1.6100000000	0.4468381303
1.6150000000	0.3608799088
1.6200000000	0.2831562718
1.6250000000	0.2446086832
1.6300000000	0.2277557488
1.6350000000	0.2217235440
1.6400000000	0.2216427432
1.6450000000	0.2253108083
1.6500000000	0.2316877377
1.6550000000	0.2403389221
1.6600000000	0.2510958478
1.6650000000	0.2639778538
1.6700000000	0.2791311188
1.6750000000	0.2968101300
1.6800000000	0.3173761948
1.6850000000	0.3413103098
1.6900000000	0.3692296201
1.6950000000	0.4017206026
1.7000000000	0.4400209450
1.7050000000	0.4863872251
1.7100000000	0.5434951405
1.7150000000	0.6245786244
1.7200000000	0.7369380542
1.7250000000	0.8731392035
1.7300000000	1.0441916835
1.7350000000	1.2269810632
1.7400000000	1.3883563265
1.7450000000	1.5890302802
1.7500000000	1.9003637415
1.7550000000	2.3703391568
1.7600000000	3.0770435966
1.7650000000	4.1679671062
1.7700000000	5.9252655795
1.7750000000	8.8841148851
1.7800000000	13.9210054065
1.7850000000	21.3373152820
1.7900000000	26.4796221196
1.7950000000	22.5121439498
1.8000000000	14.9549738071
1.8050000000	9.4242434434
1.8100000000	6.1982194761
1.8150000000	4.3085410630
1.8200000000	3.1459703633
1.8250000000	2.3921983481
1.8300000000	1.8800630299
1.8350000000	1.5180234798
1.8400000000	1.2535505488
1.8450000000	1.0547136773
1.8500000000	0.9013617105
1.8550000000	0.7808524001
1.8600000000	0.6842459049
1.8650000000	0.6053644429
1.8700000000	0.5396472382
1.8750000000	0.4835184608
1.8800000000	0.4338338945
1.8850000000	0.3874047887
1.8900000000	0.3401787642
1.8950000000	0.2859939835
1.9000000000	0.2144804382
1.9050000000	0.0927596690
1.9100000000	-0.0839873832
1.9150000000	-0.2743410617
1.9200000000	-0.1892169035
1.9250000000	0.3669262564
1.9300000000	0.8136420529
1.9350000000	0.8498960089
1.9400000000	0.7005875288
1.9450000000	0.5497253662
1.9500000000	0.4412514713
1.9550000000	0.3684730654
1.9600000000	0.3193703947
1.9650000000	0.2868618365
1.9700000000	0.2622439703
1.9750000000	0.2441764606
1.9800000000	0.2305679381
1.9850000000	0.2199410201
1.9900000000	0.2112429250
1.9950000000	0.2036208495
2.0000000000	0.1968691117
2.0050000000	0.1934287779
2.0100000000	0.1965846874
2.0150000000	0.2041303358
2.0200000000	0.2100697784
2.0250000000	0.2141191268
2.0300000000	0.2184424199
2.0350000000	0.2239732446
2.0400000000	0.2314239938
2.0450000000	0.2412583903
2.0500000000	0.2540338914
2.0550000000	0.2703158497
2.0600000000	0.2901311945
2.0650000000	0.3115974389
2.0700000000	0.3300444598
2.0750000000	0.3417631125
2.0800000000	0.3492855781
2.0850000000	0.3582673504
2.0900000000	0.3722095268
2.0950000000	0.3921822142
2.1000000000	0.4187610147
2.1050000000	0.4513379612
2.1100000000	0.4921859418
2.1150000000	0.5428828210
2.1200000000	0.6057703729
2.1250000000	0.6842149255
2.1300000000	0.7830163569
2.1350000000	0.9090591292
2.1400000000	1.0722944779
2.1450000000	1.2872679578
2.1500000000	1.5751537436
2.1550000000	1.9658797106
2.1600000000	2.4977104141
2.1650000000	3.2030049530
2.1700000000	4.0695059532
2.1750000000	4.9342820163
2.1800000000	5.4810522623
2.1850000000	5.5426052280
2.1900000000	5.3543808866
2.1950000000	5.2294192939
2.2000000000	5.1934323035
2.2050000000	4.9436620065
2.2100000000	4.3531810780
2.2150000000	3.6031400573
2.2200000000	2.9168759561
2.2250000000	2.3672191132
2.2300000000	1.9345937591
2.2350000000	1.5909726769
2.2400000000	1.3183476460
2.2450000000	1.1055586351
2.2500000000	0.9396085177
2.2550000000	0.8086757631
2.2600000000	0.7028927805
2.2650000000	0.6140495484
2.2700000000	0.5352477817
2.2750000000	0.4616458191
2.2800000000	0.3935861452
2.2850000000	0.3396131009
2.2900000000	0.3123830664
2.2950000000	0.3162583249
2.3000000000	0.3387538296
2.3050000000	0.3607382230
2.3100000000	0.3702274642
2.3150000000	0.3678299474
2.3200000000	0.3587926372
2.3250000000	0.3484719858
2.3300000000	0.3397626051
2.3350000000	0.3336677372
2.3400000000	0.3299795809
2.3450000000	0.3276242837
2.3500000000	0.3251681502
2.3550000000	0.3216943612
2.3600000000	0.3174571901
2.3650000000	0.3135686620
2.3700000000	0.3111312021
2.3750000000	0.3106835448
2.3800000000	0.3121343105
2.3850000000	0.3149307884
2.3900000000	0.3184572438
2.3950000000	0.3221870641
2.4000000000	0.3264345665
2.4050000000	0.3323707132
2.4100000000	0.3405907608
2.4150000000	0.3518495022
2.4200000000	0.3666603076
2.4250000000	0.3854902235
2.4300000000	0.4088631285
2.4350000000	0.4374356846
2.4400000000	0.4720527791
2.4450000000	0.5138044337
2.4500000000	0.5640779209
2.4550000000	0.6246283268
2.4600000000	0.6976228976
2.4650000000	0.7856839411
2.4700000000	0.8918489985
2.4750000000	1.0192100375
2.4800000000	1.1711115037
2.4850000000	1.3490572864
2.4900000000	1.5515745798
2.4950000000	1.7713383989
2.5000000000	1.9920756425
2.5050000000	2.1960898183
2.5100000000	2.3278885105
2.5150000000	2.3567434233
2.5200000000	2.2786812674
2.5250000000	2.1181260728
2.5300000000	1.9122359252
2.5350000000	1.6936037696
2.5400000000	1.4828738069
2.5450000000	1.2902492866
2.5500000000	1.1195428875
2.5550000000	0.9712390311
2.5600000000	0.8431860443
2.5650000000	0.7351032164
2.5700000000	0.6448339649
2.5750000000	0.5711017674
2.5800000000	0.5129096735
2.5850000000	0.4690226267
2.5900000000	0.4372110410
2.5950000000	0.4142472133
2.6000000000	0.3967551966
2.6050000000	0.3842796366
2.6100000000	0.3730777847
2.6150000000	0.3630118807
2.6200000000	0.3543334592
2.6250000000	0.3472898197
2.6300000000	0.3420302864
2.6350000000	0.3386196015
2.6400000000	0.3370917308
2.6450000000	0.3374850452
2.6500000000	0.3398819364
2.6550000000	0.3442962693
2.6600000000	0.3508438575
2.6650000000	0.3596270101
2.6700000000	0.3707662752
2.6750000000	0.3844046796
2.6800000000	0.4007014083
2.6850000000	0.4198303172
2.6900000000	0.4419594104
2.6950000000	0.4672409636
2.7000000000	0.4957804597
2.7050000000	0.5310144245
2.7100000000	0.5705045999
2.7150000000	0.6139798582
2.7200000000	0.6608542184
2.7250000000	0.7101515381
2.7300000000	0.7604362185
2.7350000000	0.8097524230
2.7400000000	0.8555923444
2.7450000000	0.8953086055
2.7500000000	0.9250581543
2.7550000000	0.9422012791
2.7600000000	0.9447554247
2.7650000000	0.9322106246
2.7700000000	0.9057094415
2.7750000000	0.8678154867
2.7800000000	0.8219287519
2.7850000000	0.7716662460
2.7900000000	0.7202592130
2.7950000000	0.6702946504
2.8000000000	0.6235973122
2.8050000000	0.5761131861
2.8100000000	0.5351229995
2.8150000000	0.5005332494
2.8200000000	0.4718002356
2.8250000000	0.4482013451
2.8300000000	0.4290116894
2.8350000000	0.4136134716
2.8400000000	0.4013499326
2.8450000000	0.3922653102
2.8500000000	0.3858782976
2.8550000000	0.3820095596
2.8600000000	0.3805322259
2.8650000000	0.3813460646
2.8700000000	0.3843618485
2.8750000000	0.3894882692
2.8800000000	0.3966196923
2.8850000000	0.4056247741
2.8900000000	0.4163418023
2.8950000000	0.4285732708
2.9000000000	0.4420849153
2.9050000000	0.4598339652
2.9100000000	0.4780565312
2.9150000000	0.4960498775
2.9200000000	0.5129689556
2.9250000000	0.5278339538
2.9300000000	0.5397239840
2.9350000000	0.5474130517
2.9400000000	0.5502870548
2.9450000000	0.5480315306
2.9500000000	0.5408315914
2.9550000000	0.5293440926
2.9600000000	0.5145694837
2.9650000000	0.4976683870
2.9700000000	0.4797797084
2.9750000000	0.4618916317
2.9800000000	0.4447705440
2.9850000000	0.4289510818
2.9900000000	0.4147622518
2.9950000000	0.4023716432
3.0000000000	0.3918332903
