# energy (eV)    P(omega), $W$ = 300 nm, $h$ = 300 nm, $s$ = 20 nm, $d/W = 5$, $E_{\rm e}$ = 200 keV
0.2000000000	0.0549667002
0.2050000000	0.0558037407
0.2100000000	0.0565815965
0.2150000000	0.0573022438
0.2200000000	0.0579674620
0.2250000000	0.0585787197
0.2300000000	0.0591371902
0.2350000000	0.0596436900
0.2400000000	0.0600986351
0.2450000000	0.0605019671
0.2500000000	0.0608530972
0.2550000000	0.0611507585
0.2600000000	0.0613929795
0.2650000000	0.0615768299
0.2700000000	0.0616983272
0.2750000000	0.0617521379
0.2800000000	0.0617313071
0.2850000000	0.0616268583
0.2900000000	0.0614273104
0.2950000000	0.0611180342
0.3000000000	0.0606803589
0.3050000000	0.0600904901
0.3100000000	0.0593179518
0.3150000000	0.0628113790
0.3200000000	0.0669600680
0.3250000000	0.0722109778
0.3300000000	0.0792496200
0.3350000000	0.0880083288
0.3400000000	0.0994775839
0.3450000000	0.1133763164
0.3500000000	0.1315506336
0.3550000000	0.1555860422
0.3600000000	0.1869446731
0.3650000000	0.2306394023
0.3700000000	0.2881957393
0.3750000000	0.3681949251
0.3800000000	0.4838087944
0.3850000000	0.6638396090
0.3900000000	0.9480220837
0.3950000000	1.4303639539
0.4000000000	2.3492222140
0.4050000000	4.4078255310
0.4100000000	10.0206861323
0.4150000000	32.1276429473
0.4200000000	20.4835815499
0.4250000000	-38.4487290871
0.4300000000	10.6706382754
0.4350000000	6.6408091457
0.4400000000	4.0534892563
0.4450000000	2.6618127534
0.4500000000	1.8612161150
0.4550000000	1.3688513590
0.4600000000	1.0483691735
0.4650000000	0.8300985854
0.4700000000	0.6759008532
0.4750000000	0.5644194992
0.4800000000	0.4817819759
0.4850000000	0.4195990540
0.4900000000	0.3721206237
0.4950000000	0.3354883056
0.5000000000	0.3070643076
0.5050000000	0.2849153409
0.5100000000	0.2677943993
0.5150000000	0.2547825065
0.5200000000	0.2449251971
0.5250000000	0.2377871581
0.5300000000	0.2329055843
0.5350000000	0.2299405378
0.5400000000	0.2286410605
0.5450000000	0.2287976083
0.5500000000	0.2303397105
0.5550000000	0.2331479294
0.5600000000	0.2371586110
0.5650000000	0.2423413320
0.5700000000	0.2486667491
0.5750000000	0.2561780830
0.5800000000	0.2649452769
0.5850000000	0.2750130451
0.5900000000	0.2864711289
0.5950000000	0.2994344417
0.6000000000	0.3140488209
0.6050000000	0.3305294512
0.6100000000	0.3490788989
0.6150000000	0.3699761698
0.6200000000	0.3935937356
0.6250000000	0.4202883073
0.6300000000	0.4505882265
0.6350000000	0.4851517859
0.6400000000	0.5246630673
0.6450000000	0.5701111783
0.6500000000	0.6227955786
0.6550000000	0.6840682009
0.6600000000	0.7560088051
0.6650000000	0.8412830918
0.6700000000	0.9430244288
0.6750000000	1.0660134650
0.6800000000	1.2166760003
0.6850000000	1.4034265305
0.6900000000	1.6392968721
0.6950000000	1.9425089623
0.7000000000	2.3420033582
0.7050000000	2.8820110745
0.7100000000	3.6374619476
0.7150000000	4.7417210108
0.7200000000	6.4430034863
0.7250000000	9.2659007743
0.7300000000	14.4452812969
0.7350000000	25.5230779399
0.7400000000	55.8912812757
0.7450000000	185.2710305804
0.7500000000	573.5140606475
0.7550000000	144.1649074100
0.7600000000	47.7058984059
0.7650000000	22.8396371033
0.7700000000	13.2720433999
0.7750000000	8.6553161483
0.7800000000	6.0861950422
0.7850000000	4.5165634567
0.7900000000	3.4865816477
0.7950000000	2.7764967329
0.8000000000	2.2662326611
0.8050000000	1.8863408832
0.8100000000	1.5967579808
0.8150000000	1.3673007877
0.8200000000	1.1862660866
0.8250000000	1.0405462791
0.8300000000	0.9212205276
0.8350000000	0.8231371213
0.8400000000	0.7409386898
0.8450000000	0.6719793639
0.8500000000	0.6136961164
0.8550000000	0.5634150236
0.8600000000	0.5204937385
0.8650000000	0.4838266090
0.8700000000	0.4514373266
0.8750000000	0.4238727897
0.8800000000	0.4004655177
0.8850000000	0.3794816345
0.8900000000	0.3626078734
0.8950000000	0.3472590602
0.9000000000	0.3350488035
0.9050000000	0.3265542474
0.9100000000	0.3187640281
0.9150000000	0.3139318620
0.9200000000	0.3130950524
0.9250000000	0.3124168934
0.9300000000	0.3076224303
0.9350000000	0.2938065038
0.9400000000	0.2178933215
0.9450000000	-0.1261938897
0.9500000000	-1.9400817108
0.9550000000	-11.1332389005
0.9600000000	2.6258041236
0.9650000000	4.6087631757
0.9700000000	2.0431890636
0.9750000000	1.0724899584
0.9800000000	0.6722516559
0.9850000000	0.4851091882
0.9900000000	0.3773330865
0.9950000000	0.3119997586
1.0000000000	0.2702896930
1.0050000000	0.2438342110
1.0100000000	0.2233447610
1.0150000000	0.2083821363
1.0200000000	0.1982976137
1.0250000000	0.1898520767
1.0300000000	0.1834471482
1.0350000000	0.1786154401
1.0400000000	0.1755535615
1.0450000000	0.1730315974
1.0500000000	0.1713957329
1.0550000000	0.1705463018
1.0600000000	0.1707034100
1.0650000000	0.1712536209
1.0700000000	0.1724487226
1.0750000000	0.1742939610
1.0800000000	0.1769555585
1.0850000000	0.1803308224
1.0900000000	0.1852776924
1.0950000000	0.1911449419
1.1000000000	0.1981232507
1.1050000000	0.2061795705
1.1100000000	0.2155609881
1.1150000000	0.2264806300
1.1200000000	0.2391832427
1.1250000000	0.2540228759
1.1300000000	0.2714337456
1.1350000000	0.2919700180
1.1400000000	0.3162539109
1.1450000000	0.3454582257
1.1500000000	0.3808279241
1.1550000000	0.4241766543
1.1600000000	0.4780633397
1.1650000000	0.5457994559
1.1700000000	0.6336293330
1.1750000000	0.7498062162
1.1800000000	0.9079867654
1.1850000000	1.1306279370
1.1900000000	1.4600043132
1.1950000000	1.9773906016
1.2000000000	2.8552976178
1.2050000000	4.5146331183
1.2100000000	8.1648388572
1.2150000000	18.0286619017
1.2200000000	44.2522145482
1.2250000000	39.7199337477
1.2300000000	15.8079337768
1.2350000000	7.3857381633
1.2400000000	4.1950974921
1.2450000000	2.7284776322
1.2500000000	1.9527606493
1.2550000000	1.5027399159
1.2600000000	1.2262090010
1.2650000000	1.0498887843
1.2700000000	0.9406876704
1.2750000000	0.8770966259
1.2800000000	0.8485386803
1.2850000000	0.8499501945
1.2900000000	0.8800328497
1.2950000000	0.9401118798
1.3000000000	1.0382565539
1.3050000000	1.1846771762
1.3100000000	1.3990554219
1.3150000000	1.7156098086
1.3200000000	2.1961110800
1.3250000000	2.9581087825
1.3300000000	4.2598868144
1.3350000000	6.6994570562
1.3400000000	11.9139428766
1.3450000000	24.8560012287
1.3500000000	52.6943812360
1.3550000000	49.1118827648
1.3600000000	22.6394944115
1.3650000000	11.1224769798
1.3700000000	6.3791650720
1.3750000000	4.1032638577
1.3800000000	2.8623975648
1.3850000000	2.1148272055
1.3900000000	1.6327944318
1.3950000000	1.3037475912
1.4000000000	1.0693520669
1.4050000000	0.8967584974
1.4100000000	0.7658945000
1.4150000000	0.6644667823
1.4200000000	0.5833273616
1.4250000000	0.5183385607
1.4300000000	0.4657633728
1.4350000000	0.4123058398
1.4400000000	0.2430637705
1.4450000000	-0.1952195168
1.4500000000	-0.9970060722
1.4550000000	-0.3620947493
1.4600000000	0.9096831885
1.4650000000	0.5535661688
1.4700000000	-0.2362220057
1.4750000000	-1.4435698950
1.4800000000	-0.6292222089
1.4850000000	1.1332057916
1.4900000000	0.9167743105
1.4950000000	0.5973415517
1.5000000000	0.4224967963
1.5050000000	0.3275153772
1.5100000000	0.2730633899
1.5150000000	0.2395478678
1.5200000000	0.2175022954
1.5250000000	0.2034702804
1.5300000000	0.1923222942
1.5350000000	0.1841632075
1.5400000000	0.1781880257
1.5450000000	0.1739050236
1.5500000000	0.1709917523
1.5550000000	0.1692852116
1.5600000000	0.1690596820
1.5650000000	0.1696861276
1.5700000000	0.1717379341
1.5750000000	0.1756057186
1.5800000000	0.1820818723
1.5850000000	0.1927269897
1.5900000000	0.2108323906
1.5950000000	0.2436306383
1.6000000000	0.3061936307
1.6050000000	0.4074761827
1.6100000000	0.4524037461
1.6150000000	0.3653808094
1.6200000000	0.2866947517
1.6250000000	0.2476703780
1.6300000000	0.2306096302
1.6350000000	0.2245038368
1.6400000000	0.2244233454
1.6450000000	0.2281383427
1.6500000000	0.2345959598
1.6550000000	0.2433562309
1.6600000000	0.2542485862
1.6650000000	0.2672926439
1.6700000000	0.2826364419
1.6750000000	0.3005376806
1.6800000000	0.3213622177
1.6850000000	0.3455971048
1.6900000000	0.3738672530
1.6950000000	0.4067665347
1.7000000000	0.4455482355
1.7050000000	0.4924973967
1.7100000000	0.5503233269
1.7150000000	0.6324252889
1.7200000000	0.7461950889
1.7250000000	0.8841069235
1.7300000000	1.0573084555
1.7350000000	1.2423943054
1.7400000000	1.4057967694
1.7450000000	1.6089914753
1.7500000000	1.9242358240
1.7550000000	2.4001150293
1.7600000000	3.1156970808
1.7650000000	4.2203247906
1.7700000000	5.9996985039
1.7750000000	8.9957170048
1.7800000000	14.0958812087
1.7850000000	21.6053552724
1.7900000000	26.8122603085
1.7950000000	22.7949426886
1.8000000000	15.1428390058
1.8050000000	9.5426312367
1.8100000000	6.2760817117
1.8150000000	4.3626649882
1.8200000000	3.1854899481
1.8250000000	2.4222489508
1.8300000000	1.9036801013
1.8350000000	1.5370925309
1.8400000000	1.2692972114
1.8450000000	1.0679624704
1.8500000000	0.9126840068
1.8550000000	0.7906607584
1.8600000000	0.6928405758
1.8650000000	0.6129680672
1.8700000000	0.5464251560
1.8750000000	0.4895910821
1.8800000000	0.4392821160
1.8850000000	0.3922694274
1.8900000000	0.3444496962
1.8950000000	0.2895836249
1.9000000000	0.2171708477
1.9050000000	0.0939196503
1.9100000000	-0.0850497984
1.9150000000	-0.2777979506
1.9200000000	-0.1916092684
1.9250000000	0.3715140130
1.9300000000	0.8238367660
1.9350000000	0.8605477003
1.9400000000	0.7093696570
1.9450000000	0.5566180651
1.9500000000	0.4467854577
1.9550000000	0.3730953469
1.9600000000	0.3233775013
1.9650000000	0.2904616844
1.9700000000	0.2655353466
1.9750000000	0.2472414425
1.9800000000	0.2334624083
1.9850000000	0.2227023592
1.9900000000	0.2138953330
1.9950000000	0.2061778538
2.0000000000	0.1993416606
2.0050000000	0.1958583626
2.0100000000	0.1990538170
2.0150000000	0.2066939304
2.0200000000	0.2127078115
2.0250000000	0.2168080347
2.0300000000	0.2211857100
2.0350000000	0.2267860937
2.0400000000	0.2343305134
2.0450000000	0.2442885177
2.0500000000	0.2572245713
2.0550000000	0.2737111341
2.0600000000	0.2937754752
2.0650000000	0.3155114501
2.0700000000	0.3341902429
2.0750000000	0.3460560915
2.0800000000	0.3536729973
2.0850000000	0.3627675278
2.0900000000	0.3768847780
2.0950000000	0.3971083010
2.1000000000	0.4240209263
2.1050000000	0.4570070474
2.1100000000	0.4983680991
2.1150000000	0.5497017626
2.1200000000	0.6133792252
2.1250000000	0.6928090970
2.1300000000	0.7928515440
2.1350000000	0.9204775030
2.1400000000	1.0857632003
2.1450000000	1.3034368920
2.1500000000	1.5949387105
2.1550000000	1.9905724405
2.1600000000	2.5290832602
2.1650000000	3.2432367232
2.1700000000	4.1206215306
2.1750000000	4.9962598697
2.1800000000	5.5498983907
2.1850000000	5.6122255217
2.1900000000	5.4216384824
2.1950000000	5.2951090384
2.2000000000	5.2586713806
2.2050000000	5.0057635302
2.2100000000	4.4078634801
2.2150000000	3.6483979698
2.2200000000	2.9535104766
2.2250000000	2.3969471319
2.2300000000	1.9588867888
2.2350000000	1.6109498974
2.2400000000	1.3349013143
2.2450000000	1.1194403051
2.2500000000	0.9514062812
2.2550000000	0.8188291918
2.2600000000	0.7117175355
2.2650000000	0.6217582397
2.2700000000	0.5419664883
2.2750000000	0.4674399626
2.2800000000	0.3985255713
2.2850000000	0.3438749713
2.2900000000	0.3163033958
2.2950000000	0.3202277950
2.3000000000	0.3430062392
2.3050000000	0.3652670764
2.3100000000	0.3748757244
2.3150000000	0.3724482297
2.3200000000	0.3632974697
2.3250000000	0.3528471843
2.3300000000	0.3440283506
2.3350000000	0.3378568234
2.3400000000	0.3341222155
2.3450000000	0.3317372270
2.3500000000	0.3292502045
2.3550000000	0.3257328455
2.3600000000	0.3214426093
2.3650000000	0.3175054514
2.3700000000	0.3150376050
2.3750000000	0.3145845452
2.3800000000	0.3160537296
2.3850000000	0.3188854953
2.3900000000	0.3224563669
2.3950000000	0.3262331143
2.4000000000	0.3305340061
2.4050000000	0.3365447200
2.4100000000	0.3448679969
2.4150000000	0.3562681186
2.4200000000	0.3712649094
2.4250000000	0.3903312837
2.4300000000	0.4139976991
2.4350000000	0.4429290637
2.4400000000	0.4779808739
2.4450000000	0.5202568393
2.4500000000	0.5711616525
2.4550000000	0.6324724393
2.4600000000	0.7063836622
2.4650000000	0.7955505606
2.4700000000	0.9030488201
2.4750000000	1.0320092446
2.4800000000	1.1858182883
2.4850000000	1.3659987385
2.4900000000	1.5710593076
2.4950000000	1.7935830329
2.5000000000	2.0170924291
2.5050000000	2.2236687204
2.5100000000	2.3571225149
2.5150000000	2.3863395921
2.5200000000	2.3072968241
2.5250000000	2.1447250798
2.5300000000	1.9362491732
2.5350000000	1.7148713692
2.5400000000	1.5014950816
2.5450000000	1.3064516346
2.5500000000	1.1336015485
2.5550000000	0.9834353140
2.5600000000	0.8537742349
2.5650000000	0.7443340891
2.5700000000	0.6529312215
2.5750000000	0.5782730876
2.5800000000	0.5193502217
2.5850000000	0.4749120587
2.5900000000	0.4427010112
2.5950000000	0.4194488359
2.6000000000	0.4017371839
2.6050000000	0.3891049765
2.6100000000	0.3777624604
2.6150000000	0.3675701469
2.6200000000	0.3587827314
2.6250000000	0.3516506203
2.6300000000	0.3463250134
2.6350000000	0.3428714666
2.6400000000	0.3413243714
2.6450000000	0.3417225805
2.6500000000	0.3441495191
2.6550000000	0.3486192247
2.6600000000	0.3552489641
2.6650000000	0.3641423289
2.6700000000	0.3754213797
2.6750000000	0.3892309377
2.6800000000	0.4057321862
2.6850000000	0.4251011644
2.6900000000	0.4475079878
2.6950000000	0.4731068466
2.7000000000	0.5020045536
2.7050000000	0.5376807741
2.7100000000	0.5776666634
2.7150000000	0.6216877062
2.7200000000	0.6691505815
2.7250000000	0.7190669084
2.7300000000	0.7699830686
2.7350000000	0.8199186672
2.7400000000	0.8663343934
2.7450000000	0.9065496035
2.7500000000	0.9366729594
2.7550000000	0.9540315774
2.7600000000	0.9566179862
2.7650000000	0.9439158051
2.7700000000	0.9170819440
2.7750000000	0.8787122102
2.7800000000	0.8322492976
2.7850000000	0.7813556416
2.7900000000	0.7293030712
2.7950000000	0.6787110742
2.8000000000	0.6314273222
2.8050000000	0.5833468965
2.8100000000	0.5418419523
2.8150000000	0.5068178127
2.8200000000	0.4777239491
2.8250000000	0.4538286738
2.8300000000	0.4343979951
2.8350000000	0.4188063576
2.8400000000	0.4063887544
2.8450000000	0.3971899796
2.8500000000	0.3907226817
2.8550000000	0.3868052739
2.8600000000	0.3853092931
2.8650000000	0.3861332495
2.8700000000	0.3891867973
2.8750000000	0.3943774834
2.8800000000	0.4015983505
2.8850000000	0.4107164096
2.8900000000	0.4215679224
2.8950000000	0.4339529079
2.9000000000	0.4476341645
2.9050000000	0.4656060658
2.9100000000	0.4840574629
2.9150000000	0.5022767924
2.9200000000	0.5194083879
2.9250000000	0.5344601254
2.9300000000	0.5464995449
2.9350000000	0.5542852498
2.9400000000	0.5571954210
2.9450000000	0.5549116426
2.9500000000	0.5476213496
2.9550000000	0.5359896438
2.9600000000	0.5210295377
2.9650000000	0.5039162283
2.9700000000	0.4858029241
2.9750000000	0.4676902189
2.9800000000	0.4503541249
2.9850000000	0.4343359932
2.9900000000	0.4199689630
2.9950000000	0.4074227290
3.0000000000	0.3967520046
