# energy (eV)    P(omega), $W$ = 300 nm, $h$ = 300 nm, $s$ = 20 nm, $d/W = 5$, $E_{\rm e}$ = 200 keV
0.2000000000	0.1614668383
0.2050000000	0.1638858536
0.2100000000	0.1661470239
0.2150000000	0.1682554996
0.2200000000	0.1702156903
0.2250000000	0.1720313352
0.2300000000	0.1737052994
0.2350000000	0.1752394821
0.2400000000	0.1766346185
0.2450000000	0.1778901886
0.2500000000	0.1790041364
0.2550000000	0.1799725111
0.2600000000	0.1807893745
0.2650000000	0.1814460989
0.2700000000	0.1819309898
0.2750000000	0.1822285459
0.2800000000	0.1823186401
0.2850000000	0.1821753872
0.2900000000	0.1817656352
0.2950000000	0.1810473090
0.3000000000	0.1799666670
0.3050000000	0.1784552229
0.3100000000	0.1764252993
0.3150000000	0.1864630841
0.3200000000	0.1983842862
0.3250000000	0.2134627182
0.3300000000	0.2336568546
0.3350000000	0.2587931405
0.3400000000	0.2917095533
0.3450000000	0.3316325162
0.3500000000	0.3838571997
0.3550000000	0.4529574709
0.3600000000	0.5431769454
0.3650000000	0.6689478563
0.3700000000	0.8347755482
0.3750000000	1.0654363058
0.3800000000	1.3990212321
0.3850000000	1.9187886559
0.3900000000	2.7398672396
0.3950000000	4.1345030946
0.4000000000	6.7930658433
0.4050000000	12.7532669652
0.4100000000	29.0157464680
0.4150000000	93.1138293253
0.4200000000	59.3278603792
0.4250000000	-111.6582850263
0.4300000000	31.0465754864
0.4350000000	19.3456864740
0.4400000000	11.8251707735
0.4450000000	7.7771218821
0.4500000000	5.4468447678
0.4550000000	4.0128557122
0.4600000000	3.0789356148
0.4650000000	2.4425409586
0.4700000000	1.9927580366
0.4750000000	1.6674700451
0.4800000000	1.4262977160
0.4850000000	1.2448210880
0.4900000000	1.1062927263
0.4950000000	0.9994702724
0.5000000000	0.9166691662
0.5050000000	0.8522515351
0.5100000000	0.8025867954
0.5150000000	0.7650018598
0.5200000000	0.7367037643
0.5250000000	0.7164332179
0.5300000000	0.7028393451
0.5350000000	0.6949339302
0.5400000000	0.6919883755
0.5450000000	0.6933940988
0.5500000000	0.6989578877
0.5550000000	0.7083365192
0.5600000000	0.7213542264
0.5650000000	0.7379318165
0.5700000000	0.7579969470
0.5750000000	0.7816896452
0.5800000000	0.8092376428
0.5850000000	0.8407892833
0.5900000000	0.8766326747
0.5950000000	0.9171304402
0.6000000000	0.9627444812
0.6050000000	1.0141447513
0.6100000000	1.0719700732
0.6150000000	1.1370935395
0.6200000000	1.2106798560
0.6250000000	1.2938456095
0.6300000000	1.3882413865
0.6350000000	1.4959244025
0.6400000000	1.6190350316
0.6450000000	1.7606630934
0.6500000000	1.9248709984
0.6550000000	2.1158874083
0.6600000000	2.3402120615
0.6650000000	2.6061842061
0.6700000000	2.9236081542
0.6750000000	3.3074342715
0.6800000000	3.7777685769
0.6850000000	4.3609483812
0.6900000000	5.0977659226
0.6950000000	6.0452713157
0.7000000000	7.2940893758
0.7050000000	8.9827597650
0.7100000000	11.3460199725
0.7150000000	14.8017273116
0.7200000000	20.1277975462
0.7250000000	28.9686169421
0.7300000000	45.1958462631
0.7350000000	79.9169952026
0.7400000000	175.1395373101
0.7450000000	581.0086662770
0.7500000000	1799.9263203689
0.7550000000	452.8001170762
0.7600000000	149.9535211343
0.7650000000	71.8475666455
0.7700000000	41.7830374416
0.7750000000	27.2700025274
0.7800000000	19.1906234396
0.7850000000	14.2525709281
0.7900000000	11.0110319247
0.7950000000	8.7754392479
0.8000000000	7.1683706349
0.8050000000	5.9714755122
0.8100000000	5.0587859329
0.8150000000	4.3352915769
0.8200000000	3.7642947532
0.8250000000	3.3045395450
0.8300000000	2.9279314079
0.8350000000	2.6182923735
0.8400000000	2.3587269457
0.8450000000	2.1409192888
0.8500000000	1.9568098868
0.8550000000	1.7979325837
0.8600000000	1.6623046703
0.8650000000	1.5464554189
0.8700000000	1.4440938635
0.8750000000	1.3570200116
0.8800000000	1.2831349430
0.8850000000	1.2168930475
0.8900000000	1.1637533234
0.8950000000	1.1154125787
0.9000000000	1.0770980176
0.9050000000	1.0507065004
0.9100000000	1.0265208232
0.9150000000	1.0118451767
0.9200000000	1.0100667579
0.9250000000	1.0087450481
0.9300000000	0.9939378354
0.9350000000	0.9495327998
0.9400000000	0.7022087170
0.9450000000	-0.4218975106
0.9500000000	-6.3541470265
0.9550000000	-36.4430089253
0.9600000000	8.5992242378
0.9650000000	15.1055068028
0.9700000000	6.6998097221
0.9750000000	3.5172360282
0.9800000000	2.2043100511
0.9850000000	1.5902540786
0.9900000000	1.2364509695
0.9950000000	1.0219141314
1.0000000000	0.8849318387
1.0050000000	0.7980875620
1.0100000000	0.7307625338
1.0150000000	0.6815773660
1.0200000000	0.6484479003
1.0250000000	0.6206412369
1.0300000000	0.5995171717
1.0350000000	0.5835373089
1.0400000000	0.5733779828
1.0450000000	0.5649312442
1.0500000000	0.5593600903
1.0550000000	0.5563345535
1.0600000000	0.5566000311
1.0650000000	0.5580817852
1.0700000000	0.5616257364
1.0750000000	0.5672465471
1.0800000000	0.5754993713
1.0850000000	0.5859727265
1.0900000000	0.6014216777
1.0950000000	0.6197679635
1.1000000000	0.6416269216
1.1050000000	0.6668205757
1.1100000000	0.6961443883
1.1150000000	0.7302578005
1.1200000000	0.7699422137
1.1250000000	0.8162202809
1.1300000000	0.8704603670
1.1350000000	0.9343664563
1.1400000000	1.0098786292
1.1450000000	1.1005404646
1.1500000000	1.2102036212
1.1550000000	1.3444371635
1.1600000000	1.5110979688
1.1650000000	1.7203802694
1.1700000000	1.9913830042
1.1750000000	2.3494581699
1.1800000000	2.8365181933
1.1850000000	3.5214553308
1.1900000000	4.5341067716
1.1950000000	6.1237739622
1.2000000000	8.8200801840
1.2050000000	13.9153813250
1.2100000000	25.1239897203
1.2150000000	55.4205495850
1.2200000000	136.0126968576
1.2250000000	122.1970810675
1.2300000000	48.7422094271
1.2350000000	22.8597651459
1.2400000000	13.0561425899
1.2450000000	8.5547694901
1.2500000000	6.1800471850
1.2550000000	4.8094677650
1.2600000000	3.9753714551
1.2650000000	3.4528064320
1.2700000000	3.1410768210
1.2750000000	2.9748938528
1.2800000000	2.9231669452
1.2850000000	2.9723044810
1.2900000000	3.1211818541
1.2950000000	3.3775348899
1.3000000000	3.7730342266
1.3050000000	4.3482923811
1.3100000000	5.1790466377
1.3150000000	6.3963457962
1.3200000000	8.2357892721
1.3250000000	11.1464214894
1.3300000000	16.1117244959
1.3350000000	25.4118727504
1.3400000000	45.2890168328
1.3450000000	94.6342876898
1.3500000000	200.8349385495
1.3550000000	187.3065294478
1.3600000000	86.3758022330
1.3650000000	42.4395829917
1.3700000000	24.3386557912
1.3750000000	15.6520201849
1.3800000000	10.9155992760
1.3850000000	8.0624288402
1.3900000000	6.2235208450
1.3950000000	4.9688881957
1.4000000000	4.0764367356
1.4050000000	3.4209464384
1.4100000000	2.9265727185
1.4150000000	2.5480016182
1.4200000000	2.2532569688
1.4250000000	2.0338133776
1.4300000000	1.8939264881
1.4350000000	1.8009835649
1.4400000000	1.2369503543
1.4450000000	-0.3247166616
1.4500000000	-3.0431917009
1.4550000000	-1.0177381556
1.4600000000	3.0920610188
1.4650000000	1.7921401449
1.4700000000	-1.1394562281
1.4750000000	-5.7756695153
1.4800000000	-2.5477907633
1.4850000000	4.3675930878
1.4900000000	3.5356952663
1.4950000000	2.2940854925
1.5000000000	1.6152718381
1.5050000000	1.2477883149
1.5100000000	1.0374315934
1.5150000000	0.9084581470
1.5200000000	0.8239849086
1.5250000000	0.7703741141
1.5300000000	0.7281308588
1.5350000000	0.6974513275
1.5400000000	0.6752365269
1.5450000000	0.6596391533
1.5500000000	0.6493838484
1.5550000000	0.6439407536
1.5600000000	0.6444158226
1.5650000000	0.6485925312
1.5700000000	0.6588555948
1.5750000000	0.6770891899
1.5800000000	0.7070423948
1.5850000000	0.7560959591
1.5900000000	0.8398621336
1.5950000000	0.9928522166
1.6000000000	1.2877871321
1.6050000000	1.7718043822
1.6100000000	1.9972839154
1.6150000000	1.5889539044
1.6200000000	1.2104147656
1.6250000000	1.0179418572
1.6300000000	0.9295151233
1.6350000000	0.8929539302
1.6400000000	0.8846235557
1.6450000000	0.8937119735
1.6500000000	0.9149559446
1.6550000000	0.9461875132
1.6600000000	0.9863015826
1.6650000000	1.0351429716
1.6700000000	1.0931124382
1.6750000000	1.1610430786
1.6800000000	1.2401563679
1.6850000000	1.3320834568
1.6900000000	1.4387221027
1.6950000000	1.5611751371
1.7000000000	1.7021445340
1.7050000000	1.8652636249
1.7100000000	2.0629661916
1.7150000000	2.3951316164
1.7200000000	2.8967972616
1.7250000000	3.4392835081
1.7300000000	4.0844400036
1.7350000000	4.7823939712
1.7400000000	5.4265520744
1.7450000000	6.2383272082
1.7500000000	7.4828501636
1.7550000000	9.3495828347
1.7600000000	12.1503292084
1.7650000000	16.4711888228
1.7700000000	23.4316077677
1.7750000000	35.1549524944
1.7800000000	55.1217511155
1.7850000000	84.5448333996
1.7900000000	104.9962521665
1.7950000000	89.3345273925
1.8000000000	59.3969826430
1.8050000000	37.4667141880
1.8100000000	24.6682245113
1.8150000000	17.1686011016
1.8200000000	12.5535914752
1.8250000000	9.5611434896
1.8300000000	7.5282701865
1.8350000000	6.0918371051
1.8400000000	5.0434177024
1.8450000000	4.2564177724
1.8500000000	3.6509721877
1.8550000000	3.1770070891
1.8600000000	2.7993013857
1.8650000000	2.4936456518
1.8700000000	2.2423991532
1.8750000000	2.0320299767
1.8800000000	1.8510195316
1.8850000000	1.6881370993
1.8900000000	1.5294824014
1.8950000000	1.3539991204
1.9000000000	1.1260093405
1.9050000000	0.7290939700
1.9100000000	0.1591013961
1.9150000000	-0.3897706694
1.9200000000	0.2724107500
1.9250000000	2.9224670769
1.9300000000	5.0394323163
1.9350000000	5.0870346756
1.9400000000	4.0837857646
1.9450000000	3.0952782614
1.9500000000	2.3946378796
1.9550000000	1.9311840708
1.9600000000	1.6223367791
1.9650000000	1.4165428691
1.9700000000	1.2650433261
1.9750000000	1.1539508764
1.9800000000	1.0696340577
1.9850000000	1.0023174762
1.9900000000	0.9447251372
1.9950000000	0.8906897345
2.0000000000	0.8391020702
2.0050000000	0.8084336064
2.0100000000	0.8290581494
2.0150000000	0.8828378771
2.0200000000	0.9191871047
2.0250000000	0.9350087444
2.0300000000	0.9470919534
2.0350000000	0.9632045968
2.0400000000	0.9871285597
2.0450000000	1.0204719214
2.0500000000	1.0648709263
2.0550000000	1.1219527692
2.0600000000	1.1918098612
2.0650000000	1.2688581398
2.0700000000	1.3391989205
2.0750000000	1.3919767680
2.0800000000	1.4352565853
2.0850000000	1.4865683873
2.0900000000	1.5570598389
2.0950000000	1.6505910475
2.1000000000	1.7701115622
2.1050000000	1.9138138427
2.1100000000	2.0917104654
2.1150000000	2.3109763328
2.1200000000	2.5819333355
2.1250000000	2.9192278561
2.1300000000	3.3436140933
2.1350000000	3.8847866111
2.1400000000	4.5856334923
2.1450000000	5.5088441813
2.1500000000	6.7457086581
2.1550000000	8.4253470177
2.1600000000	10.7129584481
2.1650000000	13.7485373378
2.1700000000	17.4787057590
2.1750000000	21.1982418323
2.1800000000	23.5341098470
2.1850000000	23.7529552313
2.1900000000	22.8660210437
2.1950000000	22.2368190205
2.2000000000	22.0169514358
2.2050000000	20.9821851800
2.2100000000	18.6087168877
2.2150000000	15.6223333696
2.2200000000	12.9060166166
2.2250000000	10.7050882566
2.2300000000	8.8984924266
2.2350000000	7.3867905954
2.2400000000	6.1457086331
2.2450000000	5.1657648676
2.2500000000	4.4063529369
2.2550000000	3.8185857604
2.2600000000	3.3572236104
2.2650000000	2.9814975209
2.2700000000	2.6528254746
2.2750000000	2.3386131588
2.2800000000	2.0313085061
2.2850000000	1.7684369896
2.2900000000	1.6138917462
2.2950000000	1.5962960803
2.3000000000	1.6662951577
2.3050000000	1.7400400279
2.3100000000	1.7661254744
2.3150000000	1.7461735032
2.3200000000	1.7024128952
2.3250000000	1.6576889794
2.3300000000	1.6241299162
2.3350000000	1.6052782920
2.3400000000	1.5984735962
2.3450000000	1.5959716771
2.3500000000	1.5877968267
2.3550000000	1.5675763411
2.3600000000	1.5370732948
2.3650000000	1.5040608517
2.3700000000	1.4764392157
2.3750000000	1.4585985297
2.3800000000	1.4512415118
2.3850000000	1.4526005700
2.3900000000	1.4604186037
2.3950000000	1.4725336253
2.4000000000	1.4900230229
2.4050000000	1.5174571176
2.4100000000	1.5567813762
2.4150000000	1.6106791215
2.4200000000	1.6809995581
2.4250000000	1.7697249492
2.4300000000	1.8792868781
2.4350000000	2.0128024901
2.4400000000	2.1742838962
2.4450000000	2.3688759075
2.4500000000	2.6030992772
2.4550000000	2.8851807135
2.4600000000	3.2252378197
2.4650000000	3.6354660683
2.4700000000	4.1299015818
2.4750000000	4.7226962259
2.4800000000	5.4287878424
2.4850000000	6.2543834073
2.4900000000	7.1917537402
2.4950000000	8.2067097094
2.5000000000	9.2254279529
2.5050000000	10.1696139480
2.5100000000	10.7886966283
2.5150000000	10.9421217114
2.5200000000	10.6064038689
2.5250000000	9.8856668272
2.5300000000	8.9453451869
2.5350000000	7.9355106009
2.5400000000	6.9551939570
2.5450000000	6.0560675669
2.5500000000	5.2589357801
2.5550000000	4.5673702808
2.5600000000	3.9715057879
2.5650000000	3.4691742117
2.5700000000	3.0497110337
2.5750000000	2.7066722486
2.5800000000	2.4351311195
2.5850000000	2.2292740754
2.5900000000	2.0789353111
2.5950000000	1.9695241397
2.6000000000	1.8857893082
2.6050000000	1.8260414984
2.6100000000	1.7730685385
2.6150000000	1.7261597133
2.6200000000	1.6864161774
2.6250000000	1.6549663639
2.6300000000	1.6325337267
2.6350000000	1.6194644431
2.6400000000	1.6159414511
2.6450000000	1.6221503726
2.6500000000	1.6384726480
2.6550000000	1.6649938077
2.6600000000	1.7022961879
2.6650000000	1.7509335448
2.6700000000	1.8115586240
2.6750000000	1.8849342122
2.6800000000	1.9718756600
2.6850000000	2.0732186493
2.6900000000	2.1897022739
2.6950000000	2.3218924643
2.7000000000	2.4699983428
2.7050000000	2.6513506205
2.7100000000	2.8521641520
2.7150000000	3.0699901131
2.7200000000	3.3007126728
2.7250000000	3.5384775879
2.7300000000	3.7757049090
2.7350000000	4.0031146588
2.7400000000	4.2096657648
2.7450000000	4.3843392491
2.7500000000	4.5107737903
2.7550000000	4.5781387640
2.7600000000	4.5782549426
2.7650000000	4.5093209340
2.7700000000	4.3768286120
2.7750000000	4.1926364552
2.7800000000	3.9723952533
2.7850000000	3.7327511784
2.7900000000	3.4886170759
2.7950000000	3.2519457647
2.8000000000	3.0311945785
2.8050000000	2.8069703019
2.8100000000	2.6139508674
2.8150000000	2.4517036989
2.8200000000	2.3176937404
2.8250000000	2.2085509761
2.8300000000	2.1208764455
2.8350000000	2.0517765285
2.8400000000	1.9981738138
2.8450000000	1.9602546764
2.8500000000	1.9357588619
2.8550000000	1.9238312344
2.8600000000	1.9238415702
2.8650000000	1.9352557138
2.8700000000	1.9575522538
2.8750000000	1.9901358331
2.8800000000	2.0322803234
2.8850000000	2.0830646107
2.8900000000	2.1413884299
2.8950000000	2.2059498484
2.9000000000	2.2753143883
2.9050000000	2.3630368072
2.9100000000	2.4507127794
2.9150000000	2.5352114076
2.9200000000	2.6129370957
2.9250000000	2.6797413910
2.9300000000	2.7317590651
2.9350000000	2.7635713599
2.9400000000	2.7725947912
2.9450000000	2.7575674269
2.9500000000	2.7195204805
2.9550000000	2.6616893505
2.9600000000	2.5888869724
2.9650000000	2.5066549722
2.9700000000	2.4204125345
2.9750000000	2.3348332540
2.9800000000	2.2535309453
2.9850000000	2.1790030618
2.9900000000	2.1127879864
2.9950000000	2.0556324306
3.0000000000	2.0077525890
