# energy (eV)    P(omega), $W$ = 300 nm, $h$ = 300 nm, $s$ = 20 nm, $d/W = 5$, $E_{\rm e}$ = 200 keV
0.2000000000	0.0775408621
0.2050000000	0.0787216551
0.2100000000	0.0798189574
0.2150000000	0.0808355571
0.2200000000	0.0817739640
0.2250000000	0.0826362502
0.2300000000	0.0834240706
0.2350000000	0.0841385773
0.2400000000	0.0847803568
0.2450000000	0.0853493271
0.2500000000	0.0858446575
0.2550000000	0.0862645607
0.2600000000	0.0866062557
0.2650000000	0.0868656086
0.2700000000	0.0870370016
0.2750000000	0.0871129107
0.2800000000	0.0870835249
0.2850000000	0.0869361813
0.2900000000	0.0866546835
0.2950000000	0.0862183946
0.3000000000	0.0856009761
0.3050000000	0.0847688617
0.3100000000	0.0836790594
0.3150000000	0.0886071637
0.3200000000	0.0944596322
0.3250000000	0.1018669808
0.3300000000	0.1117962462
0.3350000000	0.1241519741
0.3400000000	0.1403314131
0.3450000000	0.1599380668
0.3500000000	0.1855761994
0.3550000000	0.2194824544
0.3600000000	0.2637194295
0.3650000000	0.3253586847
0.3700000000	0.4065522308
0.3750000000	0.5194054488
0.3800000000	0.6824995785
0.3850000000	0.9364653916
0.3900000000	1.3373558501
0.3950000000	2.0177857800
0.4000000000	3.3140006163
0.4050000000	6.2180309310
0.4100000000	14.1359809258
0.4150000000	45.3218229671
0.4200000000	28.8957726484
0.4250000000	-54.2388576920
0.4300000000	15.0528599618
0.4350000000	9.3680598580
0.4400000000	5.7181787958
0.4450000000	3.7549681681
0.4500000000	2.6255822217
0.4550000000	1.9310129041
0.4600000000	1.4789149560
0.4650000000	1.1710048950
0.4700000000	0.9534811566
0.4750000000	0.7962165790
0.4800000000	0.6796414315
0.4850000000	0.5919211940
0.4900000000	0.5249442995
0.4950000000	0.4732678048
0.5000000000	0.4331706337
0.5050000000	0.4019255282
0.5100000000	0.3777733639
0.5150000000	0.3594177585
0.5200000000	0.3455122665
0.5250000000	0.3354427999
0.5300000000	0.3285564901
0.5350000000	0.3243737913
0.5400000000	0.3225406830
0.5450000000	0.3227615663
0.5500000000	0.3249370291
0.5550000000	0.3288985832
0.5600000000	0.3345564349
0.5650000000	0.3418676661
0.5700000000	0.3507908834
0.5750000000	0.3613870591
0.5800000000	0.3737548605
0.5850000000	0.3879573669
0.5900000000	0.4041211756
0.5950000000	0.4224083947
0.6000000000	0.4430247546
0.6050000000	0.4662738157
0.6100000000	0.4924413363
0.6150000000	0.5219209061
0.6200000000	0.5552379696
0.6250000000	0.5928957342
0.6300000000	0.6356395270
0.6350000000	0.6843979953
0.6400000000	0.7401361670
0.6450000000	0.8042493668
0.6500000000	0.8785707313
0.6550000000	0.9650074198
0.6600000000	1.0664933282
0.6650000000	1.1867889399
0.6700000000	1.3303144617
0.6750000000	1.5038139216
0.6800000000	1.7163521340
0.6850000000	1.9797993436
0.6900000000	2.3125394338
0.6950000000	2.7402779189
0.7000000000	3.3038409861
0.7050000000	4.0656249482
0.7100000000	5.1313326651
0.7150000000	6.6891010313
0.7200000000	9.0890850968
0.7250000000	13.0713213870
0.7300000000	20.3778283837
0.7350000000	36.0051803958
0.7400000000	78.8453451147
0.7450000000	261.3602633400
0.7500000000	809.0514876558
0.7550000000	203.3722521399
0.7600000000	67.2983274553
0.7650000000	32.2196963049
0.7700000000	18.7227693747
0.7750000000	12.2099892700
0.7800000000	8.5857505462
0.7850000000	6.3714836071
0.7900000000	4.9184962896
0.7950000000	3.9167849636
0.8000000000	3.1969593403
0.8050000000	2.6610488794
0.8100000000	2.2525364395
0.8150000000	1.9288428759
0.8200000000	1.6734585482
0.8250000000	1.4678926669
0.8300000000	1.2995606896
0.8350000000	1.1611951257
0.8400000000	1.0452383823
0.8450000000	0.9479579464
0.8500000000	0.8657381776
0.8550000000	0.7948069904
0.8600000000	0.7342582322
0.8650000000	0.6825321686
0.8700000000	0.6368408326
0.8750000000	0.5979557347
0.8800000000	0.5649352658
0.8850000000	0.5353334540
0.8900000000	0.5115297724
0.8950000000	0.4898773227
0.9000000000	0.4726524198
0.9050000000	0.4606692463
0.9100000000	0.4496796734
0.9150000000	0.4428630185
0.9200000000	0.4416826059
0.9250000000	0.4407259972
0.9300000000	0.4339625073
0.9350000000	0.4144724108
0.9400000000	0.3073815959
0.9450000000	-0.1780228669
0.9500000000	-2.7368782514
0.9550000000	-15.7056863864
0.9600000000	3.7042283718
0.9650000000	6.5015946049
0.9700000000	2.8823325321
0.9750000000	1.5129645895
0.9800000000	0.9483472395
0.9850000000	0.6843447946
0.9900000000	0.5323047058
0.9950000000	0.4401387662
1.0000000000	0.3812982369
1.0050000000	0.3439774020
1.0100000000	0.3150728608
1.0150000000	0.2939650291
1.0200000000	0.2797387550
1.0250000000	0.2678245965
1.0300000000	0.2587891296
1.0350000000	0.2519730074
1.0400000000	0.2476535912
1.0450000000	0.2440958263
1.0500000000	0.2417880817
1.0550000000	0.2405897583
1.0600000000	0.2408113599
1.0650000000	0.2415875063
1.0700000000	0.2432733956
1.0750000000	0.2458764285
1.0800000000	0.2496310971
1.0850000000	0.2543925235
1.0900000000	0.2613710003
1.0950000000	0.2696478457
1.1000000000	0.2794920522
1.1050000000	0.2908569900
1.1100000000	0.3040912239
1.1150000000	0.3194954085
1.1200000000	0.3374148044
1.1250000000	0.3583488576
1.1300000000	0.3829101107
1.1350000000	0.4118803159
1.1400000000	0.4461372264
1.1450000000	0.4873352857
1.1500000000	0.5372307379
1.1550000000	0.5983820624
1.1600000000	0.6743990824
1.1650000000	0.7699532343
1.1700000000	0.8938532661
1.1750000000	1.0577418699
1.1800000000	1.2808842212
1.1850000000	1.5949599191
1.1900000000	2.0596048851
1.1950000000	2.7894717169
1.2000000000	4.0279180600
1.2050000000	6.3687102239
1.2100000000	11.5179840334
1.2150000000	25.4326866424
1.2200000000	62.4257444148
1.2250000000	56.0321530567
1.2300000000	22.2999610009
1.2350000000	10.4189330402
1.2400000000	5.9179584196
1.2450000000	3.8490268889
1.2500000000	2.7547389736
1.2550000000	2.1199047304
1.2600000000	1.7298095333
1.2650000000	1.4810799708
1.2700000000	1.3270344744
1.2750000000	1.2373307433
1.2800000000	1.1970482104
1.2850000000	1.1990438692
1.2900000000	1.2414864986
1.2950000000	1.3262459616
1.3000000000	1.4647060920
1.3050000000	1.6712712764
1.3100000000	1.9737076120
1.3150000000	2.4202890460
1.3200000000	3.0981589313
1.3250000000	4.1731508610
1.3300000000	6.0096397638
1.3350000000	9.4512733749
1.3400000000	16.8076301764
1.3450000000	35.0656922572
1.3500000000	74.3388071843
1.3550000000	69.2847956623
1.3600000000	31.9387652627
1.3650000000	15.6910831817
1.3700000000	8.9994348203
1.3750000000	5.7886969258
1.3800000000	4.0381391789
1.3850000000	2.9835009427
1.3900000000	2.3034711220
1.3950000000	1.8392669334
1.4000000000	1.5085926148
1.4050000000	1.2651057904
1.4100000000	1.0804893310
1.4150000000	0.9374005750
1.4200000000	0.8229342733
1.4250000000	0.7312539066
1.4300000000	0.6570893376
1.4350000000	0.5816850590
1.4400000000	0.3429342917
1.4450000000	-0.2753646125
1.4500000000	-1.4064541291
1.4550000000	-0.5107902060
1.4600000000	1.2833011917
1.4650000000	0.7809135227
1.4700000000	-0.3332752258
1.4750000000	-2.0365492673
1.4800000000	-0.8876927926
1.4850000000	1.5986789714
1.4900000000	1.2933467412
1.4950000000	0.8427033423
1.5000000000	0.5960391871
1.5050000000	0.4620432228
1.5100000000	0.3852245700
1.5150000000	0.3379422667
1.5200000000	0.3068413117
1.5250000000	0.2870455388
1.5300000000	0.2713184482
1.5350000000	0.2598079665
1.5400000000	0.2513784363
1.5450000000	0.2453361546
1.5500000000	0.2412262120
1.5550000000	0.2388186578
1.5600000000	0.2385004248
1.5650000000	0.2393840952
1.5700000000	0.2422785588
1.5750000000	0.2477348586
1.5800000000	0.2568708257
1.5850000000	0.2718880053
1.5900000000	0.2974294950
1.5950000000	0.3436983625
1.6000000000	0.4319567755
1.6050000000	0.5748377069
1.6100000000	0.6382186586
1.6150000000	0.5154551758
1.6200000000	0.4044520581
1.6250000000	0.3494000419
1.6300000000	0.3253324163
1.6350000000	0.3167191403
1.6400000000	0.3166058943
1.6450000000	0.3218470530
1.6500000000	0.3309573157
1.6550000000	0.3433160345
1.6600000000	0.3586825833
1.6650000000	0.3770846451
1.6700000000	0.3987310690
1.6750000000	0.4239854046
1.6800000000	0.4533637805
1.6850000000	0.4875532940
1.6900000000	0.5274355077
1.6950000000	0.5738481361
1.7000000000	0.6285591001
1.7050000000	0.6947916367
1.7100000000	0.7763681287
1.7150000000	0.8921956311
1.7200000000	1.0527025414
1.7250000000	1.2472635570
1.7300000000	1.4916069813
1.7350000000	1.7527170304
1.7400000000	1.9832398802
1.7450000000	2.2699013318
1.7500000000	2.7146378202
1.7550000000	3.3859915915
1.7600000000	4.3955091470
1.7650000000	5.9538781467
1.7700000000	8.4641545612
1.7750000000	12.6908300107
1.7800000000	19.8859598909
1.7850000000	30.4800605568
1.7900000000	37.8257832898
1.7950000000	32.1583014835
1.8000000000	21.3629884524
1.8050000000	13.4624144220
1.8100000000	8.8540817546
1.8150000000	6.1547007409
1.8200000000	4.4939834866
1.8250000000	3.4172298010
1.8300000000	2.6856510427
1.8350000000	2.1684821858
1.8400000000	1.7906860377
1.8450000000	1.5066502078
1.8500000000	1.2875890461
1.8550000000	1.1154432759
1.8600000000	0.9774424595
1.8650000000	0.8647617337
1.8700000000	0.7708861177
1.8750000000	0.6907076238
1.8800000000	0.6197348389
1.8850000000	0.5534127618
1.8900000000	0.4859527516
1.8950000000	0.4085529091
1.9000000000	0.3064001366
1.9050000000	0.1325288137
1.9100000000	-0.1199441198
1.9150000000	-0.3918493349
1.9200000000	-0.2702303444
1.9250000000	0.5242413572
1.9300000000	1.1623913286
1.9350000000	1.2141738447
1.9400000000	1.0008628920
1.9450000000	0.7853337601
1.9500000000	0.6303632107
1.9550000000	0.5263892034
1.9600000000	0.4562394910
1.9650000000	0.4097965992
1.9700000000	0.3746269036
1.9750000000	0.3488152173
1.9800000000	0.3293737118
1.9850000000	0.3141917181
1.9900000000	0.3017651592
1.9950000000	0.2908756417
2.0000000000	0.2812293363
2.0050000000	0.2763138229
2.0100000000	0.2808225240
2.0150000000	0.2916028810
2.0200000000	0.3000880898
2.0250000000	0.3058725029
2.0300000000	0.3120479326
2.0350000000	0.3199482466
2.0400000000	0.3305911396
2.0450000000	0.3446390100
2.0500000000	0.3628881259
2.0550000000	0.3861460331
2.0600000000	0.4144512027
2.0650000000	0.4451147090
2.0700000000	0.4714657868
2.0750000000	0.4882063402
2.0800000000	0.4989533660
2.0850000000	0.5117851945
2.0900000000	0.5317028370
2.0950000000	0.5602348890
2.1000000000	0.5982036528
2.1050000000	0.6447407175
2.1100000000	0.7030929591
2.1150000000	0.7755144201
2.1200000000	0.8653503865
2.1250000000	0.9774097275
2.1300000000	1.1185491621
2.1350000000	1.2986032579
2.1400000000	1.5317875252
2.1450000000	1.8388805343
2.1500000000	2.2501299572
2.1550000000	2.8082882771
2.1600000000	3.5680170989
2.1650000000	4.5755419917
2.1700000000	5.8133531691
2.1750000000	7.0487003637
2.1800000000	7.8297705211
2.1850000000	7.9176984651
2.1900000000	7.6488137824
2.1950000000	7.4703002326
2.2000000000	7.4188899562
2.2050000000	7.0620926310
2.2100000000	6.2185915424
2.2150000000	5.1471602283
2.2200000000	4.1668348670
2.2250000000	3.3816506279
2.2300000000	2.7636408163
2.2350000000	2.2727694408
2.2400000000	1.8833149386
2.2450000000	1.5793375175
2.2500000000	1.3422715335
2.2550000000	1.1552298408
2.2600000000	1.0041162278
2.2650000000	0.8772021651
2.2700000000	0.7646327952
2.2750000000	0.6594910107
2.2800000000	0.5622655174
2.2850000000	0.4851621009
2.2900000000	0.4462611864
2.2950000000	0.4517949673
2.3000000000	0.4839285876
2.3050000000	0.5153324419
2.3100000000	0.5288870920
2.3150000000	0.5254615639
2.3200000000	0.5125512167
2.3250000000	0.4978078287
2.3300000000	0.4853663899
2.3350000000	0.4766600102
2.3400000000	0.4713917533
2.3450000000	0.4680274499
2.3500000000	0.4645188549
2.3550000000	0.4595561578
2.3600000000	0.4535026251
2.3650000000	0.4479469517
2.3700000000	0.4444641273
2.3750000000	0.4438238499
2.3800000000	0.4458956394
2.3850000000	0.4498899761
2.3900000000	0.4549273003
2.3950000000	0.4602553458
2.4000000000	0.4663231032
2.4050000000	0.4748032894
2.4100000000	0.4865461913
2.4150000000	0.5026300110
2.4200000000	0.5237880904
2.4250000000	0.5506876193
2.4300000000	0.5840769840
2.4350000000	0.6248942606
2.4400000000	0.6743464177
2.4450000000	0.7339906067
2.4500000000	0.8058086162
2.4550000000	0.8923076729
2.4600000000	0.9965837878
2.4650000000	1.1223830507
2.4700000000	1.2740447252
2.4750000000	1.4559858043
2.4800000000	1.6729839384
2.4850000000	1.9271874367
2.4900000000	2.2164922621
2.4950000000	2.5304343016
2.5000000000	2.8457668046
2.5050000000	3.1372097531
2.5100000000	3.3254902402
2.5150000000	3.3667117116
2.5200000000	3.2551979105
2.5250000000	3.0258391249
2.5300000000	2.7317169082
2.5350000000	2.4193916418
2.5400000000	2.1183546122
2.5450000000	1.8431818334
2.5500000000	1.5993200499
2.5550000000	1.3874613344
2.5600000000	1.2045319555
2.5650000000	1.0501308513
2.5700000000	0.9211772219
2.5750000000	0.8158474752
2.5800000000	0.7327174116
2.5850000000	0.6700226994
2.5900000000	0.6245782877
2.5950000000	0.5917732813
2.6000000000	0.5667850128
2.6050000000	0.5489630078
2.6100000000	0.5329605951
2.6150000000	0.5185809750
2.6200000000	0.5061834761
2.6250000000	0.4961213809
2.6300000000	0.4886080131
2.6350000000	0.4837358628
2.6400000000	0.4815534574
2.6450000000	0.4821156083
2.6500000000	0.4855400144
2.6550000000	0.4918464803
2.6600000000	0.5012004516
2.6650000000	0.5137480874
2.6700000000	0.5296616013
2.6750000000	0.5491453191
2.6800000000	0.5724266497
2.6850000000	0.5997539561
2.6900000000	0.6313672371
2.6950000000	0.6674840183
2.7000000000	0.7082549715
2.7050000000	0.7585894156
2.7100000000	0.8150040479
2.7150000000	0.8771114848
2.7200000000	0.9440745521
2.7250000000	1.0144987078
2.7300000000	1.0863330888
2.7350000000	1.1567836762
2.7400000000	1.2222679810
2.7450000000	1.2790041552
2.7500000000	1.3215023033
2.7550000000	1.3459915280
2.7600000000	1.3496397111
2.7650000000	1.3317183669
2.7700000000	1.2938597045
2.7750000000	1.2397259558
2.7800000000	1.1741741669
2.7850000000	1.1023714147
2.7900000000	1.0289336718
2.7950000000	0.9575565996
2.8000000000	0.8908469483
2.8050000000	0.8230133232
2.8100000000	0.7644566603
2.8150000000	0.7150433895
2.8200000000	0.6739968106
2.8250000000	0.6402846365
2.8300000000	0.6128713282
2.8350000000	0.5908743331
2.8400000000	0.5733554397
2.8450000000	0.5603778425
2.8500000000	0.5512539728
2.8550000000	0.5457276386
2.8600000000	0.5436175967
2.8650000000	0.5447806582
2.8700000000	0.5490893470
2.8750000000	0.5564132180
2.8800000000	0.5666013524
2.8850000000	0.5794661031
2.8900000000	0.5947764366
2.8950000000	0.6122501847
2.9000000000	0.6315526728
2.9050000000	0.6569084478
2.9100000000	0.6829405491
2.9150000000	0.7086450875
2.9200000000	0.7328148842
2.9250000000	0.7540502490
2.9300000000	0.7710356652
2.9350000000	0.7820197494
2.9400000000	0.7861252373
2.9450000000	0.7829029100
2.9500000000	0.7726172191
2.9550000000	0.7562065233
2.9600000000	0.7351000270
2.9650000000	0.7109557476
2.9700000000	0.6854006796
2.9750000000	0.6598465016
2.9800000000	0.6353880421
2.9850000000	0.6127890614
2.9900000000	0.5925195618
2.9950000000	0.5748189549
3.0000000000	0.5597644307
