# energy (eV)    P(omega), $W$ = 300 nm, $h$ = 300 nm, $s$ = 20 nm, $d/W = 5$, $E_{\rm e}$ = 200 keV
0.2000000000	0.0741275123
0.2050000000	0.0752563227
0.2100000000	0.0763053151
0.2150000000	0.0772771550
0.2200000000	0.0781742419
0.2250000000	0.0789985567
0.2300000000	0.0797516818
0.2350000000	0.0804347185
0.2400000000	0.0810482276
0.2450000000	0.0815921309
0.2500000000	0.0820656342
0.2550000000	0.0824670292
0.2600000000	0.0827936572
0.2650000000	0.0830415664
0.2700000000	0.0832053863
0.2750000000	0.0832779241
0.2800000000	0.0832498008
0.2850000000	0.0831089109
0.2900000000	0.0828397711
0.2950000000	0.0824226527
0.3000000000	0.0818323767
0.3050000000	0.0810368545
0.3100000000	0.0799949865
0.3150000000	0.0847061599
0.3200000000	0.0903010082
0.3250000000	0.0973822943
0.3300000000	0.1068744895
0.3350000000	0.1186863373
0.3400000000	0.1341535828
0.3450000000	0.1528971761
0.3500000000	0.1774067470
0.3550000000	0.2098204813
0.3600000000	0.2521101758
0.3650000000	0.3110361042
0.3700000000	0.3886555264
0.3750000000	0.4965409375
0.3800000000	0.6524556106
0.3850000000	0.8952417093
0.3900000000	1.2784846418
0.3950000000	1.9289613081
0.4000000000	3.1681150405
0.4050000000	5.9443053715
0.4100000000	13.5136926274
0.4150000000	43.3266682092
0.4200000000	27.6237261407
0.4250000000	-51.8511161671
0.4300000000	14.3901833204
0.4350000000	8.9556427874
0.4400000000	5.4664403932
0.4450000000	3.5896566778
0.4500000000	2.5099902412
0.4550000000	1.8459984455
0.4600000000	1.4138036195
0.4650000000	1.1194490233
0.4700000000	0.9115016090
0.4750000000	0.7611605084
0.4800000000	0.6497175196
0.4850000000	0.5658591191
0.4900000000	0.5018308416
0.4950000000	0.4524293642
0.5000000000	0.4140974251
0.5050000000	0.3842278332
0.5100000000	0.3611389064
0.5150000000	0.3435913336
0.5200000000	0.3302979470
0.5250000000	0.3206716921
0.5300000000	0.3140884418
0.5350000000	0.3100897625
0.5400000000	0.3083372181
0.5450000000	0.3085482225
0.5500000000	0.3106277390
0.5550000000	0.3144146957
0.5600000000	0.3198232506
0.5650000000	0.3268123731
0.5700000000	0.3353424909
0.5750000000	0.3454718887
0.5800000000	0.3572948873
0.5850000000	0.3708717853
0.5900000000	0.3863236033
0.5950000000	0.4038053073
0.6000000000	0.4235135660
0.6050000000	0.4457385678
0.6100000000	0.4707534838
0.6150000000	0.4989345668
0.6200000000	0.5307841159
0.6250000000	0.5667831738
0.6300000000	0.6076442372
0.6350000000	0.6542550488
0.6400000000	0.7075381288
0.6450000000	0.7688273412
0.6500000000	0.8398750767
0.6550000000	0.9225044879
0.6600000000	1.0195202399
0.6650000000	1.1345171733
0.6700000000	1.2717207952
0.6750000000	1.4375780686
0.6800000000	1.6407545232
0.6850000000	1.8925975433
0.6900000000	2.2106812284
0.6950000000	2.6195788127
0.7000000000	3.1583181583
0.7050000000	3.8865471146
0.7100000000	4.9053124937
0.7150000000	6.3944640360
0.7200000000	8.6887329517
0.7250000000	12.4955581653
0.7300000000	19.4802243730
0.7350000000	34.4192128612
0.7400000000	75.3723213091
0.7450000000	249.8476572223
0.7500000000	773.4135455288
0.7550000000	194.4138509156
0.7600000000	64.3338686175
0.7650000000	30.8004266455
0.7700000000	17.8980316386
0.7750000000	11.6721365659
0.7800000000	8.2075443618
0.7850000000	6.0908154146
0.7900000000	4.7018320525
0.7950000000	3.7442461349
0.8000000000	3.0561289227
0.8050000000	2.5438254501
0.8100000000	2.1533081304
0.8150000000	1.8438734255
0.8200000000	1.5997389280
0.8250000000	1.4032283680
0.8300000000	1.2423115456
0.8350000000	1.1100411070
0.8400000000	0.9991923685
0.8450000000	0.9061972362
0.8500000000	0.8275993374
0.8550000000	0.7597927516
0.8600000000	0.7019112382
0.8650000000	0.6524637686
0.8700000000	0.6087851933
0.8750000000	0.5716130285
0.8800000000	0.5400471431
0.8850000000	0.5117493204
0.8900000000	0.4889941998
0.8950000000	0.4682955487
0.9000000000	0.4518293934
0.9050000000	0.4403740409
0.9100000000	0.4298685218
0.9150000000	0.4233520791
0.9200000000	0.4222235632
0.9250000000	0.4213089959
0.9300000000	0.4148434011
0.9350000000	0.3962119446
0.9400000000	0.2938394568
0.9450000000	-0.1701781185
0.9500000000	-2.6162896874
0.9550000000	-15.0136859636
0.9600000000	3.5410180293
0.9650000000	6.2151290271
0.9700000000	2.7553342983
0.9750000000	1.4463019623
0.9800000000	0.9065622430
0.9850000000	0.6541920382
0.9900000000	0.5088510202
0.9950000000	0.4207460282
1.0000000000	0.3644980872
1.0050000000	0.3288216492
1.0100000000	0.3011906792
1.0150000000	0.2810128855
1.0200000000	0.2674134348
1.0250000000	0.2560242307
1.0300000000	0.2473868802
1.0350000000	0.2408710888
1.0400000000	0.2367419931
1.0450000000	0.2333409953
1.0500000000	0.2311349426
1.0550000000	0.2299894307
1.0600000000	0.2302012808
1.0650000000	0.2309432475
1.0700000000	0.2325548768
1.0750000000	0.2350432430
1.0800000000	0.2386325050
1.0850000000	0.2431841757
1.0900000000	0.2498552246
1.0950000000	0.2577674430
1.1000000000	0.2671779713
1.1050000000	0.2780422404
1.1100000000	0.2906934574
1.1150000000	0.3054190319
1.1200000000	0.3225490137
1.1250000000	0.3425608525
1.1300000000	0.3660401056
1.1350000000	0.3937340872
1.1400000000	0.4264818828
1.1450000000	0.4658650605
1.1500000000	0.5135624982
1.1550000000	0.5720199712
1.1600000000	0.6446882864
1.1650000000	0.7360330953
1.1700000000	0.8544751185
1.1750000000	1.0111441726
1.1800000000	1.2244567840
1.1850000000	1.5246970275
1.1900000000	1.9688737885
1.1950000000	2.6665891073
1.2000000000	3.8504804133
1.2050000000	6.0881578497
1.2100000000	11.0105996437
1.2150000000	24.3123405819
1.2200000000	59.6757966276
1.2250000000	53.5638380827
1.2300000000	21.3175977560
1.2350000000	9.9599480189
1.2400000000	5.6572486445
1.2450000000	3.6794566373
1.2500000000	2.6333733171
1.2550000000	2.0265037138
1.2600000000	1.6535917194
1.2650000000	1.4158176776
1.2700000000	1.2685563407
1.2750000000	1.1828019818
1.2800000000	1.1442911923
1.2850000000	1.1461954845
1.2900000000	1.1867640789
1.2950000000	1.2677841835
1.3000000000	1.4001376138
1.3050000000	1.5975935085
1.3100000000	1.8866936229
1.3150000000	2.3135833428
1.3200000000	2.9615636340
1.3250000000	3.9891560041
1.3300000000	5.7446692458
1.3350000000	9.0345524883
1.3400000000	16.0665489672
1.3450000000	33.5195661128
1.3500000000	71.0610238507
1.3550000000	66.2298468115
1.3600000000	30.5304987839
1.3650000000	14.9992206715
1.3700000000	8.6026255073
1.3750000000	5.5334580149
1.3800000000	3.8600872837
1.3850000000	2.8519510035
1.3900000000	2.2019055621
1.3950000000	1.7581693780
1.4000000000	1.4420753034
1.4050000000	1.2093243243
1.4100000000	1.0328478522
1.4150000000	0.8960678268
1.4200000000	0.7866478713
1.4250000000	0.6990084381
1.4300000000	0.6281107858
1.4350000000	0.5560253605
1.4400000000	0.3277964274
1.4450000000	-0.2632489880
1.4500000000	-1.3444895300
1.4550000000	-0.4882915422
1.4600000000	1.2267430279
1.4650000000	0.7465028320
1.4700000000	-0.3185639221
1.4750000000	-1.9467341855
1.4800000000	-0.8485417055
1.4850000000	1.5281867850
1.4900000000	1.2363178621
1.4950000000	0.8055460462
1.5000000000	0.5697587721
1.5050000000	0.4416714368
1.5100000000	0.3682401575
1.5150000000	0.3230428084
1.5200000000	0.2933132969
1.5250000000	0.2743904913
1.5300000000	0.2593569716
1.5350000000	0.2483541591
1.5400000000	0.2402964817
1.5450000000	0.2345208338
1.5500000000	0.2305923844
1.5550000000	0.2282913414
1.5600000000	0.2279876117
1.5650000000	0.2288329556
1.5700000000	0.2316006827
1.5750000000	0.2368176824
1.5800000000	0.2455527563
1.5850000000	0.2599108734
1.5900000000	0.2843314408
1.5950000000	0.3285699139
1.6000000000	0.4129556659
1.6050000000	0.5495673433
1.6100000000	0.6101664737
1.6150000000	0.4927872781
1.6200000000	0.3866524298
1.6250000000	0.3340138980
1.6300000000	0.3110002247
1.6350000000	0.3027626500
1.6400000000	0.3026519147
1.6450000000	0.3076603599
1.6500000000	0.3163678125
1.6550000000	0.3281807918
1.6600000000	0.3428691727
1.6650000000	0.3604593507
1.6700000000	0.3811509239
1.6750000000	0.4052913843
1.6800000000	0.4333740860
1.6850000000	0.4660558153
1.6900000000	0.5041792594
1.6950000000	0.5485452016
1.7000000000	0.6008436160
1.7050000000	0.6641556483
1.7100000000	0.7421350091
1.7150000000	0.8528542430
1.7200000000	1.0062821711
1.7250000000	1.1922638319
1.7300000000	1.4258334158
1.7350000000	1.6754298815
1.7400000000	1.8957866857
1.7450000000	2.1698059822
1.7500000000	2.5949297296
1.7550000000	3.2366775574
1.7600000000	4.2016768130
1.7650000000	5.6913240313
1.7700000000	8.0909008735
1.7750000000	12.1311857593
1.7800000000	19.0090195673
1.7850000000	29.1359322839
1.7900000000	36.1577134896
1.7950000000	30.7401559979
1.8000000000	20.4209012163
1.8050000000	12.8687328957
1.8100000000	8.4636225828
1.8150000000	5.8832815015
1.8200000000	4.2958002804
1.8250000000	3.2665304591
1.8300000000	2.5672136839
1.8350000000	2.0728515279
1.8400000000	1.7117158571
1.8450000000	1.4402057397
1.8500000000	1.2308049409
1.8550000000	1.0662505743
1.8600000000	0.9343353641
1.8650000000	0.8266236076
1.8700000000	0.7368876177
1.8750000000	0.6602446493
1.8800000000	0.5924013339
1.8850000000	0.5290035087
1.8900000000	0.4645177577
1.8950000000	0.3905302608
1.9000000000	0.2928810457
1.9050000000	0.1266753327
1.9100000000	-0.1146667392
1.9150000000	-0.3745859085
1.9200000000	-0.2583381304
1.9250000000	0.5010865295
1.9300000000	1.1110855015
1.9350000000	1.1605865765
1.9400000000	0.9566925629
1.9450000000	0.7506777530
1.9500000000	0.6025480020
1.9550000000	0.5031635219
1.9600000000	0.4361102052
1.9650000000	0.3917173260
1.9700000000	0.3580999334
1.9750000000	0.3334275076
1.9800000000	0.3148441136
1.9850000000	0.3003322591
1.9900000000	0.2884542721
1.9950000000	0.2780455587
2.0000000000	0.2688252522
2.0050000000	0.2641269111
2.0100000000	0.2684365548
2.0150000000	0.2787408940
2.0200000000	0.2868515895
2.0250000000	0.2923809273
2.0300000000	0.2982841666
2.0350000000	0.3058362531
2.0400000000	0.3160099846
2.0450000000	0.3294385623
2.0500000000	0.3468831670
2.0550000000	0.3691157599
2.0600000000	0.3961731127
2.0650000000	0.4254847768
2.0700000000	0.4506739163
2.0750000000	0.4666758738
2.0800000000	0.4769482454
2.0850000000	0.4892133726
2.0900000000	0.5082518698
2.0950000000	0.5355249431
2.1000000000	0.5718185974
2.1050000000	0.6163026825
2.1100000000	0.6720808438
2.1150000000	0.7413076769
2.1200000000	0.8271808922
2.1250000000	0.9342972296
2.1300000000	1.0692109478
2.1350000000	1.2413228051
2.1400000000	1.4642212572
2.1450000000	1.7577683177
2.1500000000	2.1508774122
2.1550000000	2.6844151813
2.1600000000	3.4106320471
2.1650000000	4.3737145038
2.1700000000	5.5569250544
2.1750000000	6.7377801190
2.1800000000	7.4843965216
2.1850000000	7.5684459084
2.1900000000	7.3114223980
2.1950000000	7.1407839527
2.2000000000	7.0916415807
2.2050000000	6.7505808118
2.2100000000	5.9442826147
2.2150000000	4.9201069583
2.2200000000	3.9830187652
2.2250000000	3.2324657901
2.2300000000	2.6417159535
2.2350000000	2.1724987178
2.2400000000	1.8002256606
2.2450000000	1.5096590626
2.2500000000	1.2830518239
2.2550000000	1.1042616663
2.2600000000	0.9598142581
2.2650000000	0.8384985860
2.2700000000	0.7308947202
2.2750000000	0.6303909623
2.2800000000	0.5374546780
2.2850000000	0.4637532223
2.2900000000	0.4265692408
2.2950000000	0.4318597720
2.3000000000	0.4625765755
2.3050000000	0.4925956507
2.3100000000	0.5055527420
2.3150000000	0.5022785782
2.3200000000	0.4899378974
2.3250000000	0.4758449488
2.3300000000	0.4639523262
2.3350000000	0.4556299368
2.3400000000	0.4505939751
2.3450000000	0.4473780004
2.3500000000	0.4440241859
2.3550000000	0.4392805406
2.3600000000	0.4334942941
2.3650000000	0.4281840066
2.3700000000	0.4248551343
2.3750000000	0.4242433821
2.3800000000	0.4262240040
2.3850000000	0.4300422929
2.3900000000	0.4348574766
2.3950000000	0.4399504688
2.4000000000	0.4457504622
2.4050000000	0.4538563956
2.4100000000	0.4650810713
2.4150000000	0.4804551433
2.4200000000	0.5006796096
2.4250000000	0.5263922250
2.4300000000	0.5583083549
2.4350000000	0.5973246837
2.4400000000	0.6445949233
2.4450000000	0.7016075188
2.4500000000	0.7702568166
2.4550000000	0.8529394190
2.4600000000	0.9526147365
2.4650000000	1.0728635743
2.4700000000	1.2178337455
2.4750000000	1.3917473675
2.4800000000	1.5991713133
2.4850000000	1.8421591348
2.4900000000	2.1186996552
2.4950000000	2.4187904654
2.5000000000	2.7202104416
2.5050000000	2.9987948572
2.5100000000	3.1787681843
2.5150000000	3.2181705393
2.5200000000	3.1115761965
2.5250000000	2.8923362691
2.5300000000	2.6111904854
2.5350000000	2.3126449889
2.5400000000	2.0248898463
2.5450000000	1.7618578866
2.5500000000	1.5287554763
2.5550000000	1.3262441321
2.5600000000	1.1513857225
2.5650000000	1.0037969011
2.5700000000	0.8805328019
2.5750000000	0.7798502975
2.5800000000	0.7003880280
2.5850000000	0.6404595035
2.5900000000	0.5970201946
2.5950000000	0.5656626341
2.6000000000	0.5417769267
2.6050000000	0.5247412905
2.6100000000	0.5094449493
2.6150000000	0.4956997868
2.6200000000	0.4838492760
2.6250000000	0.4742311087
2.6300000000	0.4670491914
2.6350000000	0.4623919315
2.6400000000	0.4603057124
2.6450000000	0.4608429293
2.6500000000	0.4641160898
2.6550000000	0.4701441272
2.6600000000	0.4790851882
2.6650000000	0.4910789818
2.6700000000	0.5062901216
2.6750000000	0.5249139160
2.6800000000	0.5471677379
2.6850000000	0.5732889909
2.6900000000	0.6035070850
2.6950000000	0.6380299505
2.7000000000	0.6770016165
2.7050000000	0.7251147597
2.7100000000	0.7790398200
2.7150000000	0.8384065300
2.7200000000	0.9024146799
2.7250000000	0.9697312863
2.7300000000	1.0383959917
2.7350000000	1.1057380603
2.7400000000	1.1683330592
2.7450000000	1.2225659872
2.7500000000	1.2631891441
2.7550000000	1.2865979978
2.7600000000	1.2900853719
2.7650000000	1.2729549164
2.7700000000	1.2367668225
2.7750000000	1.1850217409
2.7800000000	1.1223624124
2.7850000000	1.0537279241
2.7900000000	0.9835305845
2.7950000000	0.9153029847
2.8000000000	0.8515368568
2.8050000000	0.7866963577
2.8100000000	0.7307234739
2.8150000000	0.6834905265
2.8200000000	0.6442550844
2.8250000000	0.6120304073
2.8300000000	0.5858266471
2.8350000000	0.5648001915
2.8400000000	0.5480542250
2.8450000000	0.5356491539
2.8500000000	0.5269277461
2.8550000000	0.5216451150
2.8600000000	0.5196280153
2.8650000000	0.5207395772
2.8700000000	0.5248579537
2.8750000000	0.5318584575
2.8800000000	0.5415968346
2.8850000000	0.5538937235
2.8900000000	0.5685282920
2.8950000000	0.5852308296
2.9000000000	0.6036814350
2.9050000000	0.6279182500
2.9100000000	0.6528015897
2.9150000000	0.6773718594
2.9200000000	0.7004751407
2.9250000000	0.7207734969
2.9300000000	0.7370094514
2.9350000000	0.7475088961
2.9400000000	0.7514332721
2.9450000000	0.7483531804
2.9500000000	0.7385214009
2.9550000000	0.7228348859
2.9600000000	0.7026597725
2.9650000000	0.6795809153
2.9700000000	0.6551535144
2.9750000000	0.6307269553
2.9800000000	0.6073477550
2.9850000000	0.5857459704
2.9900000000	0.5663708654
2.9950000000	0.5494512859
3.0000000000	0.5350610162
