# energy (eV)    P(omega), $W$ = 300 nm, $h$ = 300 nm, $s$ = 20 nm, $d/W = 5$, $E_{\rm e}$ = 200 keV
0.2000000000	0.1044060801
0.2050000000	0.1059056304
0.2100000000	0.1073153074
0.2150000000	0.1086379188
0.2200000000	0.1098758845
0.2250000000	0.1110312045
0.2300000000	0.1121053466
0.2350000000	0.1130992266
0.2400000000	0.1140131031
0.2450000000	0.1148463522
0.2500000000	0.1155975939
0.2550000000	0.1162641804
0.2600000000	0.1168422433
0.2650000000	0.1173263936
0.2700000000	0.1177092435
0.2750000000	0.1179811236
0.2800000000	0.1181295007
0.2850000000	0.1181383513
0.2900000000	0.1179870891
0.2950000000	0.1176497554
0.3000000000	0.1170929251
0.3050000000	0.1162743689
0.3100000000	0.1151398728
0.3150000000	0.1213401044
0.3200000000	0.1287048052
0.3250000000	0.1380145415
0.3300000000	0.1504723720
0.3350000000	0.1659842996
0.3400000000	0.1862995423
0.3450000000	0.2109620588
0.3500000000	0.2432385995
0.3550000000	0.2859680746
0.3600000000	0.3418021197
0.3650000000	0.4196779838
0.3700000000	0.5224650803
0.3750000000	0.6655562250
0.3800000000	0.8726575897
0.3850000000	1.1955619779
0.3900000000	1.7060722046
0.3950000000	2.5738802478
0.4000000000	4.2293584698
0.4050000000	7.9434136864
0.4100000000	18.0850589434
0.4150000000	58.0885199959
0.4200000000	36.9745649979
0.4250000000	-69.7989477125
0.4300000000	19.4512169988
0.4350000000	12.1369598218
0.4400000000	7.4307136481
0.4450000000	4.8955962127
0.4500000000	3.4352223793
0.4550000000	2.5359674559
0.4600000000	1.9499492160
0.4650000000	1.5504030574
0.4700000000	1.2678801081
0.4750000000	1.0634865052
0.4800000000	0.9119130313
0.4850000000	0.7978567588
0.4900000000	0.7108149205
0.4950000000	0.6437338743
0.5000000000	0.5917936711
0.5050000000	0.5514536874
0.5100000000	0.5204387367
0.5150000000	0.4970747048
0.5200000000	0.4796012145
0.5250000000	0.4672343290
0.5300000000	0.4591255495
0.5350000000	0.4546560969
0.5400000000	0.4533705497
0.5450000000	0.4548886934
0.5500000000	0.4590973685
0.5550000000	0.4657845119
0.5600000000	0.4748468731
0.5650000000	0.4862408866
0.5700000000	0.4999297192
0.5750000000	0.5160113542
0.5800000000	0.5346450489
0.5850000000	0.5559354697
0.5900000000	0.5800816906
0.5950000000	0.6073305565
0.6000000000	0.6379961013
0.6050000000	0.6725284192
0.6100000000	0.7113611198
0.6150000000	0.7550826529
0.6200000000	0.8044784659
0.6250000000	0.8603005818
0.6300000000	0.9236605320
0.6350000000	0.9959437553
0.6400000000	1.0785924232
0.6450000000	1.1736871578
0.6500000000	1.2839645151
0.6550000000	1.4122738082
0.6600000000	1.5629925523
0.6650000000	1.7417421773
0.6700000000	1.9551313381
0.6750000000	2.2132337686
0.6800000000	2.5296127502
0.6850000000	2.9220231172
0.6900000000	3.4179864534
0.6950000000	4.0559814310
0.7000000000	4.8971674200
0.7050000000	6.0350385310
0.7100000000	7.6280589637
0.7150000000	9.9583488136
0.7200000000	13.5512443277
0.7250000000	19.5174473941
0.7300000000	30.4726636197
0.7350000000	53.9227464956
0.7400000000	118.2611804039
0.7450000000	392.6185444905
0.7500000000	1217.2434895654
0.7550000000	306.4563784151
0.7600000000	101.5694063891
0.7650000000	48.7042417546
0.7700000000	28.3470777496
0.7750000000	18.5161759977
0.7800000000	13.0412022953
0.7850000000	9.6936797005
0.7900000000	7.4954140429
0.7950000000	5.9787686262
0.8000000000	4.8881313206
0.8050000000	4.0755721989
0.8100000000	3.4557368924
0.8150000000	2.9641884300
0.8200000000	2.5761223485
0.8250000000	2.2635675001
0.8300000000	2.0074496748
0.8350000000	1.7968269635
0.8400000000	1.6202218760
0.8450000000	1.4719948511
0.8500000000	1.3466897780
0.8550000000	1.2385262355
0.8600000000	1.1461888917
0.8650000000	1.0673358567
0.8700000000	0.9976415068
0.8750000000	0.9383877468
0.8800000000	0.8881554425
0.8850000000	0.8431146304
0.8900000000	0.8070808157
0.8950000000	0.7742972228
0.9000000000	0.7484205284
0.9050000000	0.7307986947
0.9100000000	0.7146597830
0.9150000000	0.7051143882
0.9200000000	0.7045533436
0.9250000000	0.7042605299
0.9300000000	0.6944168737
0.9350000000	0.6635839217
0.9400000000	0.4895105989
0.9450000000	-0.3037360713
0.9500000000	-4.4942390272
0.9550000000	-25.7644842967
0.9600000000	6.0855776760
0.9650000000	10.6961393002
0.9700000000	4.7473651807
0.9750000000	2.4933847072
0.9800000000	1.5630142724
0.9850000000	1.1277559678
0.9900000000	0.8768411645
0.9950000000	0.7246411850
1.0000000000	0.6274428992
1.0050000000	0.5658482658
1.0100000000	0.5180432080
1.0150000000	0.4830980373
1.0200000000	0.4595711905
1.0250000000	0.4397719855
1.0300000000	0.4246972565
1.0350000000	0.4132521966
1.0400000000	0.4059416133
1.0450000000	0.3997946506
1.0500000000	0.3956575084
1.0550000000	0.3932933117
1.0600000000	0.3932485940
1.0650000000	0.3940026075
1.0700000000	0.3961693488
1.0750000000	0.3997560092
1.0800000000	0.4051650331
1.0850000000	0.4120416005
1.0900000000	0.4222920968
1.0950000000	0.4344822291
1.1000000000	0.4490400528
1.1050000000	0.4657781754
1.1100000000	0.4852434484
1.1150000000	0.5078672171
1.1200000000	0.5341788881
1.1250000000	0.5647820794
1.1300000000	0.6005898336
1.1350000000	0.6427045487
1.1400000000	0.6924023923
1.1450000000	0.7519192702
1.1500000000	0.8237642470
1.1550000000	0.9115280628
1.1600000000	1.0202757822
1.1650000000	1.1565991634
1.1700000000	1.3327468216
1.1750000000	1.5650662226
1.1800000000	1.8805434321
1.1850000000	2.3235103501
1.1900000000	2.9776428931
1.1950000000	4.0033173765
1.2000000000	5.7416079929
1.2050000000	9.0248207493
1.2100000000	16.2455260001
1.2150000000	35.7655290477
1.2200000000	87.7180399716
1.2250000000	78.8875511945
1.2300000000	31.5618478982
1.2350000000	14.8815690405
1.2400000000	8.5667422239
1.2450000000	5.6728171028
1.2500000000	4.1524748983
1.2550000000	3.2821742304
1.2600000000	2.7606905592
1.2650000000	2.4433496390
1.2700000000	2.2662303386
1.2750000000	2.1880947565
1.2800000000	2.1903029234
1.2850000000	2.2660311805
1.2900000000	2.4173500239
1.2950000000	2.6528848319
1.3000000000	2.9996960887
1.3050000000	3.4930135097
1.3100000000	4.1965476087
1.3150000000	5.2200633492
1.3200000000	6.7600770045
1.3250000000	9.1918739087
1.3300000000	13.3345519904
1.3350000000	21.0899401497
1.3400000000	37.6642542965
1.3450000000	78.8194069404
1.3500000000	167.4410222141
1.3550000000	156.2647611050
1.3600000000	72.0887537491
1.3650000000	35.4250885998
1.3700000000	20.3158330361
1.3750000000	13.0636743382
1.3800000000	9.1092560920
1.3850000000	6.7275532734
1.3900000000	5.1933289382
1.3950000000	4.1472578583
1.4000000000	3.4044331300
1.4050000000	2.8605031045
1.4100000000	2.4528955790
1.4150000000	2.1453500299
1.4200000000	1.9141175549
1.4250000000	1.7593335395
1.4300000000	1.7028938090
1.4350000000	1.7349935401
1.4400000000	1.3369589105
1.4450000000	0.1171424491
1.4500000000	-1.8624909808
1.4550000000	-0.5215091595
1.4600000000	2.2578502988
1.4650000000	1.2218636064
1.4700000000	-1.1563133642
1.4750000000	-5.0571109776
1.4800000000	-2.2508610840
1.4850000000	3.6986215676
1.4900000000	2.9981304467
1.4950000000	1.9405669005
1.5000000000	1.3634494708
1.5050000000	1.0526985469
1.5100000000	0.8755819303
1.5150000000	0.7680221601
1.5200000000	0.6985429884
1.5250000000	0.6553754205
1.5300000000	0.6224031709
1.5350000000	0.5996784983
1.5400000000	0.5847132589
1.5450000000	0.5761728490
1.5500000000	0.5731955540
1.5550000000	0.5758043017
1.5600000000	0.5855355051
1.5650000000	0.6016032622
1.5700000000	0.6276138076
1.5750000000	0.6679678030
1.5800000000	0.7309278057
1.5850000000	0.8325772962
1.5900000000	1.0068017871
1.5950000000	1.3285879160
1.6000000000	1.9563320160
1.6050000000	2.9943038065
1.6100000000	3.4750448000
1.6150000000	2.5738950938
1.6200000000	1.7284871184
1.6250000000	1.2822123151
1.6300000000	1.0581225125
1.6350000000	0.9427379860
1.6400000000	0.8842368965
1.6450000000	0.8585330976
1.6500000000	0.8535645074
1.6550000000	0.8636805324
1.6600000000	0.8855080836
1.6650000000	0.9175062893
1.6700000000	0.9590884653
1.6750000000	1.0102564995
1.6800000000	1.0714664040
1.6850000000	1.1434261278
1.6900000000	1.2267600957
1.6950000000	1.3202770686
1.7000000000	1.4223942317
1.7050000000	1.5269934733
1.7100000000	1.6463187589
1.7150000000	1.9433211336
1.7200000000	2.4646283018
1.7250000000	2.9420142833
1.7300000000	3.4541543503
1.7350000000	4.0169323835
1.7400000000	4.5692926714
1.7450000000	5.2788181393
1.7500000000	6.3517352971
1.7550000000	7.9486097942
1.7600000000	10.3378025054
1.7650000000	14.0207513334
1.7700000000	19.9533369306
1.7750000000	29.9482157513
1.7800000000	46.9793334893
1.7850000000	72.0963533588
1.7900000000	89.5967517285
1.7950000000	76.2936762959
1.8000000000	50.7758056367
1.8050000000	32.0662520518
1.8100000000	21.1421732416
1.8150000000	14.7391297150
1.8200000000	10.7986064496
1.8250000000	8.2439526143
1.8300000000	6.5094338235
1.8350000000	5.2851427187
1.8400000000	4.3931948157
1.8450000000	3.7256823919
1.8500000000	3.2145999425
1.8550000000	2.8173951085
1.8600000000	2.5043845737
1.8650000000	2.2553958929
1.8700000000	2.0560832081
1.8750000000	1.8959161941
1.8800000000	1.7665443459
1.8850000000	1.6605920453
1.8900000000	1.5695633300
1.8950000000	1.4807811615
1.9000000000	1.3723528130
1.9050000000	1.1669864913
1.9100000000	0.8844191415
1.9150000000	0.7354964756
1.9200000000	1.7949207546
1.9250000000	4.7205727315
1.9300000000	7.0407719051
1.9350000000	6.9321035222
1.9400000000	5.4520439996
1.9450000000	4.0171300855
1.9500000000	3.0096753319
1.9550000000	2.3495724803
1.9600000000	1.9133635000
1.9650000000	1.6213989664
1.9700000000	1.4106324203
1.9750000000	1.2561327214
1.9800000000	1.1381771293
1.9850000000	1.0424560531
1.9900000000	0.9580192879
1.9950000000	0.8753095591
2.0000000000	0.7929341072
2.0050000000	0.7403010248
2.0100000000	0.7704489791
2.0150000000	0.8535070345
2.0200000000	0.9047117738
2.0250000000	0.9182980461
2.0300000000	0.9213350741
2.0350000000	0.9268747889
2.0400000000	0.9397642180
2.0450000000	0.9612368305
2.0500000000	0.9920910021
2.0550000000	1.0330512049
2.0600000000	1.0841178490
2.0650000000	1.1422034272
2.0700000000	1.1996510296
2.0750000000	1.2507242934
2.0800000000	1.3004909478
2.0850000000	1.3594279705
2.0900000000	1.4345607901
2.0950000000	1.5288510999
2.1000000000	1.6454895956
2.1050000000	1.7834230707
2.1100000000	1.9523457485
2.1150000000	2.1593449167
2.1200000000	2.4143587605
2.1250000000	2.7313265736
2.1300000000	3.1298967657
2.1350000000	3.6381208762
2.1400000000	4.2965045040
2.1450000000	5.1642669712
2.1500000000	6.3276931372
2.1550000000	7.9089000209
2.1600000000	10.0641783893
2.1650000000	12.9258881924
2.1700000000	16.4410776523
2.1750000000	19.9358930263
2.1800000000	22.0951795109
2.1850000000	22.2071876326
2.1900000000	21.2250674169
2.1950000000	20.4606847796
2.2000000000	20.1216067766
2.2050000000	19.1805899614
2.2100000000	17.1830911687
2.2150000000	14.7273044995
2.2200000000	12.5227934312
2.2250000000	10.7007452702
2.2300000000	9.0960476214
2.2350000000	7.6448989888
2.2400000000	6.3982972466
2.2450000000	5.4008243690
2.2500000000	4.6361928092
2.2550000000	4.0618319381
2.2600000000	3.6318311291
2.2650000000	3.3001733894
2.2700000000	3.0171012932
2.2750000000	2.7335806793
2.2800000000	2.4282697551
2.2850000000	2.1376798628
2.2900000000	1.9368073848
2.2950000000	1.8681216580
2.3000000000	1.8925387764
2.3050000000	1.9298927629
2.3100000000	1.9329868309
2.3150000000	1.9022007381
2.3200000000	1.8579643308
2.3250000000	1.8213797896
2.3300000000	1.8032435731
2.3350000000	1.8054071971
2.3400000000	1.8218148453
2.3450000000	1.8387645073
2.3500000000	1.8390032755
2.3550000000	1.8115238566
2.3600000000	1.7594413278
2.3650000000	1.6963680342
2.3700000000	1.6363354191
2.3750000000	1.5877244809
2.3800000000	1.5532592455
2.3850000000	1.5321725872
2.3900000000	1.5227114548
2.3950000000	1.5228440760
2.4000000000	1.5331229081
2.4050000000	1.5569334662
2.4100000000	1.5954089457
2.4150000000	1.6501188983
2.4200000000	1.7220063254
2.4250000000	1.8127242763
2.4300000000	1.9246846396
2.4350000000	2.0611229681
2.4400000000	2.2262145198
2.4450000000	2.4252904005
2.4500000000	2.6650764615
2.4550000000	2.9540264074
2.4600000000	3.3025266272
2.4650000000	3.7230385375
2.4700000000	4.2298539491
2.4750000000	4.8372882482
2.4800000000	5.5601249230
2.4850000000	6.4042146773
2.4900000000	7.3613049341
2.4950000000	8.3971452860
2.5000000000	9.4393076417
2.5050000000	10.4142194802
2.5100000000	11.0728788810
2.5150000000	11.2716610520
2.5200000000	10.9763182997
2.5250000000	10.2780161874
2.5300000000	9.3356141740
2.5350000000	8.3023464027
2.5400000000	7.2864863157
2.5450000000	6.3492177278
2.5500000000	5.5177526953
2.5550000000	4.7982881875
2.5600000000	4.1809327300
2.5650000000	3.6618956827
2.5700000000	3.2289546001
2.5750000000	2.8744577317
2.5800000000	2.5926896973
2.5850000000	2.3774386762
2.5900000000	2.2184891741
2.5950000000	2.1014797573
2.6000000000	2.0114571986
2.6050000000	1.9474795881
2.6100000000	1.8920856689
2.6150000000	1.8443972453
2.6200000000	1.8053560028
2.6250000000	1.7760056347
2.6300000000	1.7570431616
2.6350000000	1.7488242490
2.6400000000	1.7515556209
2.6450000000	1.7654294138
2.6500000000	1.7908219574
2.6550000000	1.8278387579
2.6600000000	1.8770477316
2.6650000000	1.9390227294
2.6700000000	2.0144686852
2.6750000000	2.1042396588
2.6800000000	2.2092822771
2.6850000000	2.3305647021
2.6900000000	2.4688796884
2.6950000000	2.6246865802
2.7000000000	2.7978266614
2.7050000000	3.0079904751
2.7100000000	3.2373482899
2.7150000000	3.4814307804
2.7200000000	3.7337387511
2.7250000000	3.9861091177
2.7300000000	4.2293332392
2.7350000000	4.4536884512
2.7400000000	4.6490662614
2.7450000000	4.8064965750
2.7500000000	4.9120633061
2.7550000000	4.9573439534
2.7600000000	4.9359474975
2.7650000000	4.8471324490
2.7700000000	4.6968490414
2.7750000000	4.4970171729
2.7800000000	4.2631732513
2.7850000000	4.0117991977
2.7900000000	3.7576835189
2.7950000000	3.5126852324
2.8000000000	3.2851898597
2.8050000000	3.0550192167
2.8100000000	2.8580253973
2.8150000000	2.6936801299
2.8200000000	2.5593378350
2.8250000000	2.4515117655
2.8300000000	2.3666895664
2.8350000000	2.3018651792
2.8400000000	2.2538743026
2.8450000000	2.2228269181
2.8500000000	2.2064233619
2.8550000000	2.2037873236
2.8600000000	2.2142643860
2.8650000000	2.2372649003
2.8700000000	2.2721291668
2.8750000000	2.3180200345
2.8800000000	2.3738400388
2.8850000000	2.4381618710
2.8900000000	2.5092697426
2.8950000000	2.5852233518
2.9000000000	2.6639823785
2.9050000000	2.7586165790
2.9100000000	2.8493930329
2.9150000000	2.9334572032
2.9200000000	3.0078137925
2.9250000000	3.0690645591
2.9300000000	3.1140804662
2.9350000000	3.1379941326
2.9400000000	3.1387053052
2.9450000000	3.1153196165
2.9500000000	3.0691860894
2.9550000000	3.0038103012
2.9600000000	2.9242518168
2.9650000000	2.8362434612
2.9700000000	2.7453286605
2.9750000000	2.6562447806
2.9800000000	2.5726217020
2.9850000000	2.4969359385
2.9900000000	2.4306769606
2.9950000000	2.3745438242
3.0000000000	2.3286835166
