# energy (eV)    P(omega), $W$ = 300 nm, $h$ = 300 nm, $s$ = 20 nm, $d/W = 5$, $E_{\rm e}$ = 200 keV
0.2000000000	0.0566728826
0.2050000000	0.0575359033
0.2100000000	0.0583379018
0.2150000000	0.0590809158
0.2200000000	0.0597667796
0.2250000000	0.0603970078
0.2300000000	0.0609728098
0.2350000000	0.0614950278
0.2400000000	0.0619640904
0.2450000000	0.0623799377
0.2500000000	0.0627419625
0.2550000000	0.0630488585
0.2600000000	0.0632985933
0.2650000000	0.0634881453
0.2700000000	0.0636134087
0.2750000000	0.0636688841
0.2800000000	0.0636474012
0.2850000000	0.0635397046
0.2900000000	0.0633339568
0.2950000000	0.0630150746
0.3000000000	0.0625638077
0.3050000000	0.0619556231
0.3100000000	0.0611590988
0.3150000000	0.0647609607
0.3200000000	0.0690384235
0.3250000000	0.0744523201
0.3300000000	0.0817094406
0.3350000000	0.0907400180
0.3400000000	0.1025652767
0.3450000000	0.1168954223
0.3500000000	0.1356338652
0.3550000000	0.1604153253
0.3600000000	0.1927473164
0.3650000000	0.2377983118
0.3700000000	0.2971411691
0.3750000000	0.3796234853
0.3800000000	0.4988259379
0.3850000000	0.6844447892
0.3900000000	0.9774480808
0.3950000000	1.4747614611
0.4000000000	2.4221403027
0.4050000000	4.5446408045
0.4100000000	10.3317191782
0.4150000000	33.1248531940
0.4200000000	21.1193713489
0.4250000000	-39.6421326193
0.4300000000	11.0018410533
0.4350000000	6.8469305863
0.4400000000	4.1793034655
0.4450000000	2.7444311185
0.4500000000	1.9189850375
0.4550000000	1.4113379670
0.4600000000	1.0809084776
0.4650000000	0.8558630951
0.4700000000	0.6968793006
0.4750000000	0.5819377386
0.4800000000	0.4967352765
0.4850000000	0.4326222947
0.4900000000	0.3836702081
0.4950000000	0.3459008785
0.5000000000	0.3165946410
0.5050000000	0.2937581999
0.5100000000	0.2761058439
0.5150000000	0.2626900729
0.5200000000	0.2525267967
0.5250000000	0.2451671904
0.5300000000	0.2401340842
0.5350000000	0.2370769889
0.5400000000	0.2357371569
0.5450000000	0.2358985404
0.5500000000	0.2374884809
0.5550000000	0.2403838333
0.5600000000	0.2445189680
0.5650000000	0.2498625168
0.5700000000	0.2563842256
0.5750000000	0.2641286562
0.5800000000	0.2731679221
0.5850000000	0.2835481251
0.5900000000	0.2953617913
0.5950000000	0.3087274001
0.6000000000	0.3237953147
0.6050000000	0.3407873978
0.6100000000	0.3599125020
0.6150000000	0.3814582913
0.6200000000	0.4058087968
0.6250000000	0.4333317993
0.6300000000	0.4645720368
0.6350000000	0.5002082310
0.6400000000	0.5409456933
0.6450000000	0.5878042267
0.6500000000	0.6421236178
0.6550000000	0.7052977545
0.6600000000	0.7794709388
0.6650000000	0.8673915977
0.6700000000	0.9722903377
0.6750000000	1.0990961683
0.6800000000	1.2544343045
0.6850000000	1.4469803724
0.6900000000	1.6901706111
0.6950000000	2.0027924470
0.7000000000	2.4146845615
0.7050000000	2.9714506089
0.7100000000	3.7503457532
0.7150000000	4.8888737971
0.7200000000	6.6429529182
0.7250000000	9.5534543533
0.7300000000	14.8935686365
0.7350000000	26.3151466572
0.7400000000	57.6257770022
0.7450000000	191.0206096122
0.7500000000	591.3120920846
0.7550000000	148.6388131926
0.7600000000	49.1863654501
0.7650000000	23.5484233147
0.7700000000	13.6839163367
0.7750000000	8.9239172609
0.7800000000	6.2750681633
0.7850000000	4.6567259558
0.7900000000	3.5947805837
0.7950000000	2.8626595235
0.8000000000	2.3365603802
0.8050000000	1.9448793941
0.8100000000	1.6463098507
0.8150000000	1.4097319069
0.8200000000	1.2230791547
0.8250000000	1.0728372259
0.8300000000	0.9498084420
0.8350000000	0.8486812180
0.8400000000	0.7639319278
0.8450000000	0.6928325925
0.8500000000	0.6327406460
0.8550000000	0.5808991854
0.8600000000	0.5366459288
0.8650000000	0.4988409122
0.8700000000	0.4654464972
0.8750000000	0.4370265530
0.8800000000	0.4128928850
0.8850000000	0.3912578108
0.8900000000	0.3738604062
0.8950000000	0.3580352732
0.9000000000	0.3454460937
0.9050000000	0.3366879214
0.9100000000	0.3286559435
0.9150000000	0.3236738136
0.9200000000	0.3228110240
0.9250000000	0.3221118085
0.9300000000	0.3171685539
0.9350000000	0.3029238868
0.9400000000	0.2246549906
0.9450000000	-0.1301097792
0.9500000000	-2.0002852467
0.9550000000	-11.4787194893
0.9600000000	2.7072866400
0.9650000000	4.7517795783
0.9700000000	2.1065920613
0.9750000000	1.1057708116
0.9800000000	0.6931125648
0.9850000000	0.5001628107
0.9900000000	0.3890422706
0.9950000000	0.3216815612
1.0000000000	0.2786771757
1.0050000000	0.2514007432
1.0100000000	0.2302754773
1.0150000000	0.2148485413
1.0200000000	0.2044510811
1.0250000000	0.1957434668
1.0300000000	0.1891397838
1.0350000000	0.1841581404
1.0400000000	0.1810012464
1.0450000000	0.1784010215
1.0500000000	0.1767143933
1.0550000000	0.1758386025
1.0600000000	0.1760005852
1.0650000000	0.1765678693
1.0700000000	0.1778000562
1.0750000000	0.1797025545
1.0800000000	0.1824467447
1.0850000000	0.1859267476
1.0900000000	0.1910271264
1.0950000000	0.1970764453
1.1000000000	0.2042713015
1.1050000000	0.2125776213
1.1100000000	0.2222501588
1.1150000000	0.2335086543
1.1200000000	0.2466054489
1.1250000000	0.2619055795
1.1300000000	0.2798567364
1.1350000000	0.3010302825
1.1400000000	0.3260677438
1.1450000000	0.3561783163
1.1500000000	0.3926455945
1.1550000000	0.4373395074
1.1600000000	0.4928983860
1.1650000000	0.5627364662
1.1700000000	0.6532918510
1.1750000000	0.7730738969
1.1800000000	0.9361630527
1.1850000000	1.1657131518
1.1900000000	1.5053106252
1.1950000000	2.0387522683
1.2000000000	2.9439021876
1.2050000000	4.6547295850
1.2100000000	8.4182071250
1.2150000000	18.5881203730
1.2200000000	45.6254309395
1.2250000000	40.9525046305
1.2300000000	16.2984774697
1.2350000000	7.6149280409
1.2400000000	4.3252768847
1.2450000000	2.8131455592
1.2500000000	2.0133568749
1.2550000000	1.5493712780
1.2600000000	1.2642591379
1.2650000000	1.0824673701
1.2700000000	0.9698774919
1.2750000000	0.9043130093
1.2800000000	0.8748687269
1.2850000000	0.8763238644
1.2900000000	0.9073398025
1.2950000000	0.9692828857
1.3000000000	1.0704727545
1.3050000000	1.2214365166
1.3100000000	1.4424665373
1.3150000000	1.7688430782
1.3200000000	2.2642535338
1.3250000000	3.0498948299
1.3300000000	4.3920650178
1.3350000000	6.9073313636
1.3400000000	12.2836146441
1.3450000000	25.6272450869
1.3500000000	54.3294068118
1.3550000000	50.6357484498
1.3600000000	23.3419627591
1.3650000000	11.4675901584
1.3700000000	6.5771006657
1.3750000000	4.2305817890
1.3800000000	2.9512133549
1.3850000000	2.1804470577
1.3900000000	1.6834575618
1.3950000000	1.3442009138
1.4000000000	1.1025324647
1.4050000000	0.9245835886
1.4100000000	0.7896590885
1.4150000000	0.6850842305
1.4200000000	0.6014271866
1.4250000000	0.5344218987
1.4300000000	0.4802154150
1.4350000000	0.4250992208
1.4400000000	0.2506056897
1.4450000000	-0.2012773553
1.4500000000	-1.0279429753
1.4550000000	-0.3733305786
1.4600000000	0.9379101260
1.4650000000	0.5707431929
1.4700000000	-0.2435510593
1.4750000000	-1.4883610239
1.4800000000	-0.6487456136
1.4850000000	1.1683674217
1.4900000000	0.9452204198
1.4950000000	0.6158762052
1.5000000000	0.4356063162
1.5050000000	0.3376777894
1.5100000000	0.2815362559
1.5150000000	0.2469808128
1.5200000000	0.2242512151
1.5250000000	0.2097838250
1.5300000000	0.1982899538
1.5350000000	0.1898777272
1.5400000000	0.1837171741
1.5450000000	0.1793013137
1.5500000000	0.1762976942
1.5550000000	0.1745382617
1.5600000000	0.1743058124
1.5650000000	0.1749518012
1.5700000000	0.1770674187
1.5750000000	0.1810554259
1.5800000000	0.1877328433
1.5850000000	0.1987087705
1.5900000000	0.2173768235
1.5950000000	0.2511943585
1.6000000000	0.3157017206
1.6050000000	0.4201320562
1.6100000000	0.4664558758
1.6150000000	0.3767280435
1.6200000000	0.2955961335
1.6250000000	0.2553585719
1.6300000000	0.2377672410
1.6350000000	0.2314713102
1.6400000000	0.2313879056
1.6450000000	0.2352179037
1.6500000000	0.2418757055
1.6550000000	0.2509076612
1.6600000000	0.2621378898
1.6650000000	0.2755866068
1.6700000000	0.2914064363
1.6750000000	0.3098630694
1.6800000000	0.3313337121
1.6850000000	0.3563205245
1.6900000000	0.3854678036
1.6950000000	0.4193878405
1.7000000000	0.4593727935
1.7050000000	0.5077785717
1.7100000000	0.5673985465
1.7150000000	0.6520479822
1.7200000000	0.7693481215
1.7250000000	0.9115391606
1.7300000000	1.0901147151
1.7350000000	1.2809433337
1.7400000000	1.4494158318
1.7450000000	1.6589152693
1.7500000000	1.9839410138
1.7550000000	2.4745857745
1.7600000000	3.2123708581
1.7650000000	4.3512728745
1.7700000000	6.1858568548
1.7750000000	9.2748355670
1.7800000000	14.5332472156
1.7850000000	22.2757245206
1.7900000000	27.6441888010
1.7950000000	23.5022220754
1.8000000000	15.6126895674
1.8050000000	9.8387190760
1.8100000000	6.4708153736
1.8150000000	4.4980293553
1.8200000000	3.2843290588
1.8250000000	2.4974063099
1.8300000000	1.9627473736
1.8350000000	1.5847853770
1.8400000000	1.3086809489
1.8450000000	1.1010992328
1.8500000000	0.9410028267
1.8550000000	0.8151934784
1.8600000000	0.7143381708
1.8650000000	0.6319874215
1.8700000000	0.5633798669
1.8750000000	0.5047824049
1.8800000000	0.4529125257
1.8850000000	0.4044412209
1.8900000000	0.3551378623
1.8950000000	0.2985695745
1.9000000000	0.2239102110
1.9050000000	0.0968351476
1.9100000000	-0.0876867959
1.9150000000	-0.2864146656
1.9200000000	-0.1975504758
1.9250000000	0.3830469296
1.9300000000	0.8494055158
1.9350000000	0.8872551018
1.9400000000	0.7313847442
1.9450000000	0.5738921072
1.9500000000	0.4606506006
1.9550000000	0.3846733806
1.9600000000	0.3334124651
1.9650000000	0.2994750501
1.9700000000	0.2737750982
1.9750000000	0.2549134247
1.9800000000	0.2407067419
1.9850000000	0.2296127364
1.9900000000	0.2205323597
1.9950000000	0.2125753336
2.0000000000	0.2055269340
2.0050000000	0.2019354903
2.0100000000	0.2052301179
2.0150000000	0.2131073713
2.0200000000	0.2193078950
2.0250000000	0.2235353378
2.0300000000	0.2280488245
2.0350000000	0.2338229560
2.0400000000	0.2416014449
2.0450000000	0.2518684090
2.0500000000	0.2652058263
2.0550000000	0.2822039178
2.0600000000	0.3028907982
2.0650000000	0.3253011807
2.0700000000	0.3445595278
2.0750000000	0.3567935477
2.0800000000	0.3646467955
2.0850000000	0.3740235180
2.0900000000	0.3885788045
2.0950000000	0.4094298276
2.1000000000	0.4371775013
2.1050000000	0.4711871182
2.1100000000	0.5138315226
2.1150000000	0.5667579692
2.1200000000	0.6324112183
2.1250000000	0.7143056431
2.1300000000	0.8174522114
2.1350000000	0.9490381543
2.1400000000	1.1194523444
2.1450000000	1.3438800272
2.1500000000	1.6444265818
2.1550000000	2.0523360612
2.1600000000	2.6075558322
2.1650000000	3.3438680982
2.1700000000	4.2484764504
2.1750000000	5.1512841033
2.1800000000	5.7221008071
2.1850000000	5.7863615365
2.1900000000	5.5898605254
2.1950000000	5.4594046316
2.2000000000	5.4218360006
2.2050000000	5.1610809606
2.2100000000	4.5446298243
2.2150000000	3.7616004848
2.2200000000	3.0451528913
2.2250000000	2.4713211143
2.2300000000	2.0196688656
2.2350000000	1.6609361084
2.2400000000	1.3763220838
2.2450000000	1.1541755522
2.2500000000	0.9809276315
2.2550000000	0.8442368725
2.2600000000	0.7338017491
2.2650000000	0.6410512320
2.2700000000	0.5587837503
2.2750000000	0.4819448352
2.2800000000	0.4108921280
2.2850000000	0.3545457309
2.2900000000	0.3261185393
2.2950000000	0.3301645850
2.3000000000	0.3536497005
2.3050000000	0.3766011679
2.3100000000	0.3865078972
2.3150000000	0.3840050470
2.3200000000	0.3745703411
2.3250000000	0.3637958051
2.3300000000	0.3547033569
2.3350000000	0.3483403680
2.3400000000	0.3444899171
2.3450000000	0.3420309565
2.3500000000	0.3394667778
2.3550000000	0.3358402662
2.3600000000	0.3314168715
2.3650000000	0.3273574954
2.3700000000	0.3248130159
2.3750000000	0.3243458399
2.3800000000	0.3258605576
2.3850000000	0.3287801433
2.3900000000	0.3324617783
2.3950000000	0.3363556880
2.4000000000	0.3407900156
2.4050000000	0.3469872259
2.4100000000	0.3555687599
2.4150000000	0.3673226115
2.4200000000	0.3827847324
2.4250000000	0.4024427102
2.4300000000	0.4268434618
2.4350000000	0.4566725263
2.4400000000	0.4928119455
2.4450000000	0.5363996753
2.4500000000	0.5888839945
2.4550000000	0.6520971706
2.4600000000	0.7283017572
2.4650000000	0.8202353817
2.4700000000	0.9310691641
2.4750000000	1.0640310509
2.4800000000	1.2226125707
2.4850000000	1.4083837578
2.4900000000	1.6198070485
2.4950000000	1.8492353398
2.5000000000	2.0796798805
2.5050000000	2.2926659138
2.5100000000	2.4302605966
2.5150000000	2.4603842882
2.5200000000	2.3788890136
2.5250000000	2.2112729738
2.5300000000	1.9963284024
2.5350000000	1.7680815735
2.5400000000	1.5480845142
2.5450000000	1.3469891302
2.5500000000	1.1687757382
2.5550000000	1.0139500520
2.5600000000	0.8802657737
2.5650000000	0.7674298590
2.5700000000	0.6731908941
2.5750000000	0.5962162263
2.5800000000	0.5354650666
2.5850000000	0.4896480461
2.5900000000	0.4564375283
2.5950000000	0.4324638627
2.6000000000	0.4142026358
2.6050000000	0.4011784637
2.6100000000	0.3894840034
2.6150000000	0.3789754377
2.6200000000	0.3699153641
2.6250000000	0.3625619584
2.6300000000	0.3570711117
2.6350000000	0.3535104139
2.6400000000	0.3519153237
2.6450000000	0.3523258993
2.6500000000	0.3548281551
2.6550000000	0.3594365644
2.6600000000	0.3662720330
2.6650000000	0.3754413676
2.6700000000	0.3870704164
2.6750000000	0.4013084946
2.6800000000	0.4183217871
2.6850000000	0.4382917951
2.6900000000	0.4613939124
2.6950000000	0.4877871127
2.7000000000	0.5175815217
2.7050000000	0.5543647777
2.7100000000	0.5955914229
2.7150000000	0.6409784195
2.7200000000	0.6899140317
2.7250000000	0.7413792053
2.7300000000	0.7938752162
2.7350000000	0.8453602197
2.7400000000	0.8932161168
2.7450000000	0.9346790930
2.7500000000	0.9657370743
2.7550000000	0.9836342475
2.7600000000	0.9863008573
2.7650000000	0.9732045037
2.7700000000	0.9455379937
2.7750000000	0.9059776785
2.7800000000	0.8580730722
2.7850000000	0.8056002490
2.7900000000	0.7519325560
2.7950000000	0.6997707590
2.8000000000	0.6510198597
2.8050000000	0.6014475685
2.8100000000	0.5586547887
2.8150000000	0.5225439055
2.8200000000	0.4925473085
2.8250000000	0.4679106065
2.8300000000	0.4478770334
2.8350000000	0.4318016236
2.8400000000	0.4189987362
2.8450000000	0.4095145550
2.8500000000	0.4028466066
2.8550000000	0.3988076700
2.8600000000	0.3972652957
2.8650000000	0.3981148448
2.8700000000	0.4012631676
2.8750000000	0.4066149419
2.8800000000	0.4140598906
2.8850000000	0.4234608972
2.8900000000	0.4346491417
2.8950000000	0.4474184363
2.9000000000	0.4615242184
2.9050000000	0.4800537704
2.9100000000	0.4990776874
2.9150000000	0.5178623279
2.9200000000	0.5355254770
2.9250000000	0.5510442289
2.9300000000	0.5634571925
2.9350000000	0.5714844543
2.9400000000	0.5744849026
2.9450000000	0.5721302426
2.9500000000	0.5646137256
2.9550000000	0.5526210913
2.9600000000	0.5371967845
2.9650000000	0.5195524668
2.9700000000	0.5008771290
2.9750000000	0.4822024115
2.9800000000	0.4643284050
2.9850000000	0.4478132576
2.9900000000	0.4330004449
2.9950000000	0.4200649269
3.0000000000	0.4090631144
