# energy (eV)    P(omega), $W$ = 300 nm, $h$ = 300 nm, $s$ = 20 nm, $d/W = 5$, $E_{\rm e}$ = 200 keV
0.2000000000	0.3816188074
0.2050000000	0.3871082883
0.2100000000	0.3922678537
0.2150000000	0.3971078104
0.2200000000	0.4016370461
0.2250000000	0.4058629166
0.2300000000	0.4097908314
0.2350000000	0.4134241797
0.2400000000	0.4167639223
0.2450000000	0.4198078242
0.2500000000	0.4225508418
0.2550000000	0.4249832972
0.2600000000	0.4270910674
0.2650000000	0.4288544142
0.2700000000	0.4302462959
0.2750000000	0.4312313464
0.2800000000	0.4317637011
0.2850000000	0.4317846749
0.2900000000	0.4312188995
0.2950000000	0.4299713705
0.3000000000	0.4279197088
0.3050000000	0.4249093146
0.3100000000	0.4207416997
0.3150000000	0.4434418147
0.3200000000	0.4704051460
0.3250000000	0.5044902632
0.3300000000	0.5501023377
0.3350000000	0.6068958595
0.3400000000	0.6812753404
0.3450000000	0.7715687848
0.3500000000	0.8897365073
0.3550000000	1.0461709698
0.3600000000	1.2505762067
0.3650000000	1.5356708473
0.3700000000	1.9119494247
0.3750000000	2.4357577179
0.3800000000	3.1938664538
0.3850000000	4.3758550824
0.3900000000	6.2445236166
0.3950000000	9.4209630837
0.4000000000	15.4803709217
0.4050000000	29.0743053071
0.4100000000	66.1931695559
0.4150000000	212.6039743388
0.4200000000	135.3313291672
0.4250000000	-255.4477925037
0.4300000000	71.1816397519
0.4350000000	44.4132013645
0.4400000000	27.1900533449
0.4450000000	17.9126657503
0.4500000000	12.5684770530
0.4550000000	9.2777503634
0.4600000000	7.1333218750
0.4650000000	5.6712808978
0.4700000000	4.6374733810
0.4750000000	3.8895631773
0.4800000000	3.3349355560
0.4850000000	2.9175885596
0.4900000000	2.5990884992
0.4950000000	2.3536237230
0.5000000000	2.1635565055
0.5050000000	2.0159303165
0.5100000000	1.9024196963
0.5150000000	1.8168979051
0.5200000000	1.7529241744
0.5250000000	1.7076290125
0.5300000000	1.6779078066
0.5350000000	1.6614958587
0.5400000000	1.6567265820
0.5450000000	1.6622081413
0.5500000000	1.6775259734
0.5550000000	1.7019036393
0.5600000000	1.7349620754
0.5650000000	1.7765413433
0.5700000000	1.8265060256
0.5750000000	1.8852128695
0.5800000000	1.9532433419
0.5850000000	2.0309785762
0.5900000000	2.1191454986
0.5950000000	2.2186448418
0.6000000000	2.3306228989
0.6050000000	2.4567231783
0.6100000000	2.5985288819
0.6150000000	2.7581885604
0.6200000000	2.9385698229
0.6250000000	3.1424190594
0.6300000000	3.3737943588
0.6350000000	3.6377549979
0.6400000000	3.9395666330
0.6450000000	4.2868270123
0.6500000000	4.6895269740
0.6550000000	5.1580708919
0.6600000000	5.7084446311
0.6650000000	6.3611698906
0.6700000000	7.1403804810
0.6750000000	8.0828573150
0.6800000000	9.2381227511
0.6850000000	10.6710041104
0.6900000000	12.4819917009
0.6950000000	14.8115762159
0.7000000000	17.8830623724
0.7050000000	22.0378148185
0.7100000000	27.8544036404
0.7150000000	36.3628865632
0.7200000000	49.4813291703
0.7250000000	71.2649558993
0.7300000000	111.2638608263
0.7350000000	196.8821107177
0.7400000000	431.7843963184
0.7450000000	1433.4602996280
0.7500000000	4444.0841509820
0.7550000000	1118.8281586497
0.7600000000	370.8065142705
0.7650000000	177.8036791728
0.7700000000	103.4836084521
0.7750000000	67.5933165460
0.7800000000	47.6057092322
0.7850000000	35.3849748447
0.7900000000	27.3598969044
0.7950000000	21.8232335841
0.8000000000	17.8417939324
0.8050000000	14.8755289048
0.8100000000	12.6128300871
0.8150000000	10.8184616961
0.8200000000	9.4018642360
0.8250000000	8.2609223361
0.8300000000	7.3260066428
0.8350000000	6.5571663931
0.8400000000	5.9125074489
0.8450000000	5.3714415136
0.8500000000	4.9140449605
0.8550000000	4.5192246803
0.8600000000	4.1821737775
0.8650000000	3.8943397759
0.8700000000	3.6399406897
0.8750000000	3.4236482725
0.8800000000	3.2402814697
0.8850000000	3.0758659401
0.8900000000	2.9443183440
0.8950000000	2.8246368234
0.9000000000	2.7301578780
0.9050000000	2.6657957276
0.9100000000	2.6068488754
0.9150000000	2.5719566385
0.9200000000	2.5698367665
0.9250000000	2.5687008374
0.9300000000	2.5327437121
0.9350000000	2.4202642158
0.9400000000	1.7854912369
0.9450000000	-1.1069320668
0.9500000000	-16.3863575442
0.9550000000	-93.9403491926
0.9600000000	22.1879525004
0.9650000000	38.9974638289
0.9700000000	17.3082090396
0.9750000000	9.0903615557
0.9800000000	5.6983559024
0.9850000000	4.1114752876
0.9900000000	3.1966948886
0.9950000000	2.6418128251
1.0000000000	2.2874547002
1.0050000000	2.0628948243
1.0100000000	1.8886143509
1.0150000000	1.7612187561
1.0200000000	1.6754484349
1.0250000000	1.6032734375
1.0300000000	1.5483244822
1.0350000000	1.5066103489
1.0400000000	1.4799690148
1.0450000000	1.4575756068
1.0500000000	1.4425129579
1.0550000000	1.4339174398
1.0600000000	1.4337798175
1.0650000000	1.4365612923
1.0700000000	1.4444989392
1.0750000000	1.4576189977
1.0800000000	1.4773877805
1.0850000000	1.5025187234
1.0900000000	1.5399672066
1.0950000000	1.5844999092
1.1000000000	1.6376783158
1.1050000000	1.6988262634
1.1100000000	1.7699389967
1.1150000000	1.8525935801
1.1200000000	1.9487227852
1.1250000000	2.0605404853
1.1300000000	2.1913823402
1.1350000000	2.3452787765
1.1400000000	2.5268939805
1.1450000000	2.7444106686
1.1500000000	3.0070004424
1.1550000000	3.3277950819
1.1600000000	3.7253170994
1.1650000000	4.2236703642
1.1700000000	4.8676546496
1.1750000000	5.7170516850
1.1800000000	6.8705543377
1.1850000000	8.4902919456
1.1900000000	10.8822699024
1.1950000000	14.6330232642
1.2000000000	20.9899000530
1.2050000000	32.9967375207
1.2100000000	59.4034001294
1.2150000000	130.7892651171
1.2200000000	320.7799764013
1.2250000000	288.4783539101
1.2300000000	115.4048933396
1.2350000000	54.4043617847
1.2400000000	31.3103089264
1.2450000000	20.7261904440
1.2500000000	15.1649603027
1.2550000000	11.9806068000
1.2600000000	10.0715190387
1.2650000000	8.9085768512
1.2700000000	8.2578982709
1.2750000000	7.9685693958
1.2800000000	7.9722529670
1.2850000000	8.2437489149
1.2900000000	8.7902931246
1.2950000000	9.6429711337
1.3000000000	10.8999303310
1.3050000000	12.6888864966
1.3100000000	15.2409954246
1.3150000000	18.9545496419
1.3200000000	24.5427070472
1.3250000000	33.3673083963
1.3300000000	48.4009499718
1.3350000000	76.5454275571
1.3400000000	136.6940597725
1.3450000000	286.0463097591
1.3500000000	607.6500458417
1.3550000000	567.0810882142
1.3600000000	261.6055575885
1.3650000000	128.5548371649
1.3700000000	73.7245034663
1.3750000000	47.4070726373
1.3800000000	33.0568646637
1.3850000000	24.4138459865
1.3900000000	18.8461819338
1.3950000000	15.0499417381
1.4000000000	12.3540685369
1.4050000000	10.3798594110
1.4100000000	8.9001664475
1.4150000000	7.7832519314
1.4200000000	6.9426272725
1.4250000000	6.3780545616
1.4300000000	6.1671377987
1.4350000000	6.2725467783
1.4400000000	4.8209292790
1.4450000000	0.3864153165
1.4500000000	-6.8257237912
1.4550000000	-1.9250180529
1.4600000000	8.2250164066
1.4650000000	4.4607579797
1.4700000000	-4.1761117203
1.4750000000	-18.3285563129
1.4800000000	-8.1561331523
1.4850000000	13.4162595952
1.4900000000	10.8748637566
1.4950000000	7.0391791320
1.5000000000	4.9459123097
1.5050000000	3.8186017319
1.5100000000	3.1759841181
1.5150000000	2.7856118321
1.5200000000	2.5333288365
1.5250000000	2.3764637231
1.5300000000	2.2565134878
1.5350000000	2.1736762278
1.5400000000	2.1189089854
1.5450000000	2.0873413500
1.5500000000	2.0758181361
1.5550000000	2.0843630278
1.5600000000	2.1184715941
1.5650000000	2.1751555185
1.5700000000	2.2672916305
1.5750000000	2.4104841821
1.5800000000	2.6340539133
1.5850000000	2.9950850237
1.5900000000	3.6138529375
1.5950000000	4.7565252059
1.6000000000	6.9853174871
1.6050000000	10.6703311859
1.6100000000	12.3774409959
1.6150000000	9.1797156653
1.6200000000	6.1801139639
1.6250000000	4.5974384872
1.6300000000	3.8035978897
1.6350000000	3.3958102240
1.6400000000	3.1901559077
1.6450000000	3.1011700786
1.6500000000	3.0860678996
1.6550000000	3.1248417308
1.6600000000	3.2055635033
1.6650000000	3.3228234225
1.6700000000	3.4746131999
1.6750000000	3.6610230257
1.6800000000	3.8837807679
1.6850000000	4.1455340889
1.6900000000	4.4486628711
1.6950000000	4.7890911350
1.7000000000	5.1615245367
1.7050000000	5.5448296386
1.7100000000	5.9832549373
1.7150000000	7.0589856521
1.7200000000	8.9390945558
1.7250000000	10.6686576055
1.7300000000	12.5301555979
1.7350000000	14.5747812668
1.7400000000	16.5779304774
1.7450000000	19.1496114470
1.7500000000	23.0398569265
1.7550000000	28.8311462269
1.7600000000	37.4965640440
1.7650000000	50.8546509296
1.7700000000	72.3722032493
1.7750000000	108.6234857473
1.7800000000	170.3943528236
1.7850000000	261.4904115794
1.7900000000	324.9580659186
1.7950000000	276.7031292870
1.8000000000	184.1495453401
1.8050000000	116.2913977289
1.8100000000	76.6710637183
1.8150000000	53.4481452978
1.8200000000	39.1564238347
1.8250000000	29.8909998608
1.8300000000	23.5999907737
1.8350000000	19.1593951776
1.8400000000	15.9240424575
1.8450000000	13.5025500980
1.8500000000	11.6482517564
1.8550000000	10.2067913438
1.8600000000	9.0704692159
1.8650000000	8.1660651161
1.8700000000	7.4414703294
1.8750000000	6.8583748303
1.8800000000	6.3863269244
1.8850000000	5.9983268465
1.8900000000	5.6631830482
1.8950000000	5.3343216217
1.9000000000	4.9313710503
1.9050000000	4.1715155917
1.9100000000	3.1237166297
1.9150000000	2.5476331178
1.9200000000	6.3345756860
1.9250000000	16.8713175046
1.9300000000	25.2290194875
1.9350000000	24.8516846624
1.9400000000	19.5536295938
1.9450000000	14.4156481727
1.9500000000	10.8076272971
1.9550000000	8.4431667316
1.9600000000	6.8804343107
1.9650000000	5.8345546262
1.9700000000	5.0792578775
1.9750000000	4.5255970943
1.9800000000	4.1029453024
1.9850000000	3.7600727764
1.9900000000	3.4577960572
1.9950000000	3.1619380458
2.0000000000	2.8674966078
2.0050000000	2.6795880292
2.0100000000	2.7875058427
2.0150000000	3.0845351778
2.0200000000	3.2679542188
2.0250000000	3.3172042966
2.0300000000	3.3290229899
2.0350000000	3.3500196466
2.0400000000	3.3975850539
2.0450000000	3.4762048787
2.0500000000	3.5888340896
2.0550000000	3.7381682829
2.0600000000	3.9242183591
2.0650000000	4.1356278792
2.0700000000	4.3442248336
2.0750000000	4.5288620126
2.0800000000	4.7080922665
2.0850000000	4.9203505491
2.0900000000	5.1913526554
2.0950000000	5.5318721228
2.1000000000	5.9534121722
2.1050000000	6.4521080138
2.1100000000	7.0629982342
2.1150000000	7.8116887135
2.1200000000	8.7341071189
2.1250000000	9.8806610849
2.1300000000	11.3224040189
2.1350000000	13.1607967024
2.1400000000	15.5423279459
2.1450000000	18.6811789604
2.1500000000	22.8894079961
2.1550000000	28.6086559774
2.1600000000	36.4041628830
2.1650000000	46.7546054830
2.1700000000	59.4688087366
2.1750000000	72.1105330992
2.1800000000	79.9252417696
2.1850000000	80.3407905202
2.1900000000	76.8045281297
2.1950000000	74.0585111540
2.2000000000	72.8467131172
2.2050000000	69.4402249013
2.2100000000	62.1908595182
2.2150000000	53.2712414574
2.2200000000	45.2607700203
2.2250000000	38.6441852748
2.2300000000	32.8295507194
2.2350000000	27.5829986284
2.2400000000	23.0814710028
2.2450000000	19.4807671979
2.2500000000	16.7197114798
2.2550000000	14.6439537421
2.2600000000	13.0877526769
2.2650000000	11.8854469281
2.2700000000	10.8584760459
2.2750000000	9.8314237023
2.2800000000	8.7286090072
2.2850000000	7.6819694861
2.2900000000	6.9611866452
2.2950000000	6.7182181919
2.3000000000	6.8108989830
2.3050000000	6.9493693869
2.3100000000	6.9627604405
2.3150000000	6.8525592505
2.3200000000	6.6927107819
2.3250000000	6.5595848160
2.3300000000	6.4922961070
2.3350000000	6.4977110777
2.3400000000	6.5543312795
2.3450000000	6.6133313419
2.3500000000	6.6132089450
2.3550000000	6.5147254454
2.3600000000	6.3289826707
2.3650000000	6.1044826844
2.3700000000	5.8912168879
2.3750000000	5.7190127177
2.3800000000	5.5974892158
2.3850000000	5.5237797444
2.3900000000	5.4915147430
2.3950000000	5.4933484742
2.4000000000	5.5313315641
2.4050000000	5.6178103400
2.4100000000	5.7569526622
2.4150000000	5.9545386957
2.4200000000	6.2140736163
2.4250000000	6.5415655812
2.4300000000	6.9457243947
2.4350000000	7.4382261508
2.4400000000	8.0341409233
2.4450000000	8.7526974166
2.4500000000	9.6181743433
2.4550000000	10.6610768514
2.4600000000	11.9188942293
2.4650000000	13.4366047446
2.4700000000	15.2657935024
2.4750000000	17.4581451138
2.4800000000	20.0670510192
2.4850000000	23.1136561456
2.4900000000	26.5681754934
2.4950000000	30.3068800443
2.5000000000	34.0680274093
2.5050000000	37.5854113968
2.5100000000	39.9596701153
2.5150000000	40.6725280054
2.5200000000	39.6014625229
2.5250000000	37.0771019876
2.5300000000	33.6738441626
2.5350000000	29.9447367786
2.5400000000	26.2797933702
2.5450000000	22.8989722521
2.5500000000	19.8998506270
2.5550000000	17.3045270783
2.5600000000	15.0772754504
2.5650000000	13.2045751278
2.5700000000	11.6424579596
2.5750000000	10.3634141909
2.5800000000	9.3468938929
2.5850000000	8.5705043410
2.5900000000	7.9973617375
2.5950000000	7.5755743346
2.6000000000	7.2511065154
2.6050000000	7.0204785041
2.6100000000	6.8206556910
2.6150000000	6.6484828857
2.6200000000	6.5073792544
2.6250000000	6.4011266247
2.6300000000	6.3322431845
2.6350000000	6.3020182733
2.6400000000	6.3111912009
2.6450000000	6.3604612906
2.6500000000	6.4511878800
2.6550000000	6.5837528979
2.6600000000	6.7602131365
2.6650000000	6.9826455453
2.6700000000	7.2535944422
2.6750000000	7.5761430453
2.6800000000	7.9536916873
2.6850000000	8.3897214803
2.6900000000	8.8870823773
2.6950000000	9.4474445235
2.7000000000	10.0702632265
2.7050000000	10.8264193926
2.7100000000	11.6519284762
2.7150000000	12.5308540172
2.7200000000	13.4399748732
2.7250000000	14.3500492732
2.7300000000	15.2279883420
2.7350000000	16.0387178607
2.7400000000	16.7456340159
2.7450000000	17.3161163349
2.7500000000	17.6996475532
2.7550000000	17.8655488576
2.7600000000	17.7905488789
2.7650000000	17.4718537637
2.7700000000	16.9309076280
2.7750000000	16.2107566589
2.7800000000	15.3675273143
2.7850000000	14.4607745030
2.7900000000	13.5439254530
2.7950000000	12.6598280492
2.8000000000	11.8387788819
2.8050000000	11.0079695395
2.8100000000	10.2967902904
2.8150000000	9.7033425717
2.8200000000	9.2180878808
2.8250000000	8.8284453909
2.8300000000	8.5217385305
2.8350000000	8.2871266854
2.8400000000	8.1131888707
2.8450000000	8.0003287289
2.8500000000	7.9402443671
2.8550000000	7.9297733378
2.8600000000	7.9665516181
2.8650000000	8.0484516556
2.8700000000	8.1731048962
2.8750000000	8.3375101700
2.8800000000	8.5377426803
2.8850000000	8.7686979678
2.8900000000	9.0242445831
2.8950000000	9.2974416461
2.9000000000	9.5809823329
2.9050000000	9.9221307289
2.9100000000	10.2497431715
2.9150000000	10.5534772904
2.9200000000	10.8224533257
2.9250000000	11.0443108504
2.9300000000	11.2076739513
2.9350000000	11.2948998723
2.9400000000	11.2983504029
2.9450000000	11.2147608039
2.9500000000	11.0489670630
2.9550000000	10.8136050912
2.9600000000	10.5269269991
2.9650000000	10.2096198902
2.9700000000	9.8816980453
2.9750000000	9.5602693210
2.9800000000	9.2584419355
2.9850000000	8.9851675348
2.9900000000	8.7458293446
2.9950000000	8.5429588722
3.0000000000	8.3770939870
