# energy (eV)    P(omega), $W$ = 400 nm, $h$ = 300 nm, $s$ = 20 nm, $d/W = 5$, $E_{\rm e}$ = 200 keV
0.2000000000	0.0965361567
0.2050000000	0.0974144953
0.2100000000	0.0980334402
0.2150000000	0.0983825662
0.2200000000	0.0984473033
0.2250000000	0.0982078622
0.2300000000	0.0976382164
0.2350000000	0.0967044803
0.2400000000	0.0953630894
0.2450000000	0.0935578905
0.2500000000	0.0912171068
0.2550000000	0.0882483780
0.2600000000	0.0845326965
0.2650000000	0.0884289136
0.2700000000	0.0983244991
0.2750000000	0.1124851290
0.2800000000	0.1322155454
0.2850000000	0.1613041346
0.2900000000	0.1973487915
0.2950000000	0.2490233697
0.3000000000	0.3184914583
0.3050000000	0.4249720615
0.3100000000	0.5733017834
0.3150000000	0.8603160366
0.3200000000	1.3085919034
0.3250000000	1.6155378352
0.3300000000	2.0401528123
0.3350000000	2.6421194315
0.3400000000	3.5871002373
0.3450000000	5.2084086996
0.3500000000	8.4414854461
0.3550000000	15.9257905525
0.3600000000	39.1408156235
0.3650000000	0.1756009398
0.3700000000	18.1419433370
0.3750000000	23.8565776277
0.3800000000	11.1167747113
0.3850000000	6.2624361440
0.3900000000	4.0169692719
0.3950000000	2.8307980628
0.4000000000	2.1439991911
0.4050000000	1.6962490679
0.4100000000	1.4047539215
0.4150000000	1.2124998480
0.4200000000	1.0909983219
0.4250000000	0.9955757270
0.4300000000	0.8828061206
0.4350000000	0.7935555989
0.4400000000	0.7229689589
0.4450000000	0.6668452485
0.4500000000	0.6225373716
0.4550000000	0.5874042122
0.4600000000	0.5599996923
0.4650000000	0.5387941221
0.4700000000	0.5227748608
0.4750000000	0.5112334784
0.4800000000	0.5035517401
0.4850000000	0.4991875205
0.4900000000	0.4978203117
0.4950000000	0.4992035083
0.5000000000	0.5031265232
0.5050000000	0.5094955346
0.5100000000	0.5182337258
0.5150000000	0.5292955561
0.5200000000	0.5427040869
0.5250000000	0.5584783217
0.5300000000	0.5768497805
0.5350000000	0.5979215618
0.5400000000	0.6218790946
0.5450000000	0.6489654496
0.5500000000	0.6795246017
0.5550000000	0.7139326916
0.5600000000	0.7526476359
0.5650000000	0.7962581248
0.5700000000	0.8455768925
0.5750000000	0.9012063606
0.5800000000	0.9642735651
0.5850000000	1.0363183287
0.5900000000	1.1183795831
0.5950000000	1.2126429085
0.6000000000	1.3219957800
0.6050000000	1.4486027595
0.6100000000	1.5974246094
0.6150000000	1.7725757474
0.6200000000	1.9811184836
0.6250000000	2.2331846586
0.6300000000	2.5391081546
0.6350000000	2.9183051105
0.6400000000	3.3921984546
0.6450000000	3.9996610198
0.6500000000	4.7903508487
0.6550000000	5.8483826401
0.6600000000	7.3157822168
0.6650000000	9.4169425960
0.6700000000	12.5986236133
0.6750000000	17.7143262581
0.6800000000	26.7573632045
0.6850000000	44.9029449407
0.6900000000	89.9941097580
0.6950000000	252.6308957429
0.7000000000	1225.3003024745
0.7050000000	595.7192630699
0.7100000000	153.0302351602
0.7150000000	65.0781181041
0.7200000000	35.5405629529
0.7250000000	22.3261844038
0.7300000000	15.3129221621
0.7350000000	11.1670016966
0.7400000000	8.5120842491
0.7450000000	6.7100171982
0.7500000000	5.4334570835
0.7550000000	4.4955987463
0.7600000000	3.7887087731
0.7650000000	3.2405218447
0.7700000000	2.8077813447
0.7750000000	2.4603694829
0.7800000000	2.1780491849
0.7850000000	1.9455857282
0.7900000000	1.7508341348
0.7950000000	1.5881800363
0.8000000000	1.4498795067
0.8050000000	1.3313907522
0.8100000000	1.2305210614
0.8150000000	1.1421124990
0.8200000000	1.0651430944
0.8250000000	1.0005527545
0.8300000000	0.9440148377
0.8350000000	0.8948634702
0.8400000000	0.8557230582
0.8450000000	0.8215713284
0.8500000000	0.7926149627
0.8550000000	0.7743153354
0.8600000000	0.7596584701
0.8650000000	0.7491663141
0.8700000000	0.7528319074
0.8750000000	0.7541212808
0.8800000000	0.7500694195
0.8850000000	0.7174575889
0.8900000000	0.5567492854
0.8950000000	-0.2486735212
0.9000000000	-4.5676420052
0.9050000000	-30.0124472584
0.9100000000	5.7149829351
0.9150000000	13.5379218192
0.9200000000	5.6198619864
0.9250000000	2.9235902304
0.9300000000	1.7845921183
0.9350000000	1.2404051494
0.9400000000	0.9468298735
0.9450000000	0.7840934068
0.9500000000	0.6685137726
0.9550000000	0.5911329055
0.9600000000	0.5432587400
0.9650000000	0.5037396918
0.9700000000	0.4755125128
0.9750000000	0.4562341585
0.9800000000	0.4444322555
0.9850000000	0.4421225245
0.9900000000	0.4461275210
0.9950000000	0.4629163770
1.0000000000	0.5033024667
1.0050000000	0.5978005204
1.0100000000	0.8455834048
1.0150000000	1.6950493856
1.0200000000	3.2504292221
1.0250000000	1.4807117234
1.0300000000	0.7610236618
1.0350000000	0.5465232120
1.0400000000	0.4621879745
1.0450000000	0.4226474871
1.0500000000	0.4028627433
1.0550000000	0.3925138805
1.0600000000	0.3879139468
1.0650000000	0.3871247663
1.0700000000	0.3890717556
1.0750000000	0.3933801025
1.0800000000	0.3992933569
1.0850000000	0.4073174114
1.0900000000	0.4188914328
1.0950000000	0.4323754626
1.1000000000	0.4479025048
1.1050000000	0.4655017148
1.1100000000	0.4854517676
1.1150000000	0.5080185224
1.1200000000	0.5335171073
1.1250000000	0.5622081285
1.1300000000	0.5948352485
1.1350000000	0.6318990218
1.1400000000	0.6741499709
1.1450000000	0.7225417854
1.1500000000	0.7778161689
1.1550000000	0.8422845279
1.1600000000	0.9174075575
1.1650000000	1.0050981768
1.1700000000	1.1057545603
1.1750000000	1.2078438117
1.1800000000	1.3045223365
1.1850000000	1.8132266637
1.1900000000	2.2500008128
1.1950000000	3.0839555156
1.2000000000	4.1997618565
1.2050000000	3.6844423481
1.2100000000	3.5265686780
1.2150000000	3.9263432177
1.2200000000	4.6960994861
1.2250000000	5.8781159626
1.2300000000	7.6754233245
1.2350000000	10.5185647408
1.2400000000	15.3078440192
1.2450000000	24.3260543030
1.2500000000	43.8570415797
1.2550000000	94.9375730758
1.2600000000	229.3158295528
1.2650000000	232.2894870229
1.2700000000	96.6285738912
1.2750000000	44.6042628975
1.2800000000	24.7028862085
1.2850000000	15.5348085853
1.2900000000	10.6478154417
1.2950000000	7.7603842366
1.3000000000	5.9212161503
1.3050000000	4.6829117909
1.3100000000	3.8097120853
1.3150000000	3.1787888240
1.3200000000	2.7110947108
1.3250000000	2.3591516141
1.3300000000	2.0941240345
1.3350000000	1.8983211508
1.3400000000	1.7625635161
1.3450000000	1.6843466831
1.3500000000	1.6751252843
1.3550000000	1.7609686091
1.3600000000	2.0081899776
1.3650000000	2.5855243176
1.3700000000	3.9640847469
1.3750000000	7.3938800438
1.3800000000	12.0781991489
1.3850000000	8.4373206218
1.3900000000	4.2993365221
1.3950000000	2.4943532468
1.4000000000	1.6334100367
1.4050000000	1.1043907773
1.4100000000	0.6257731198
1.4150000000	-0.0879509698
1.4200000000	-1.6855653983
1.4250000000	-5.9185961718
1.4300000000	-7.9582034342
1.4350000000	3.6464121575
1.4400000000	4.6642483342
1.4450000000	2.7964977178
1.4500000000	1.7401490915
1.4550000000	1.1995872426
1.4600000000	0.8858149197
1.4650000000	0.6377660476
1.4700000000	0.3723419555
1.4750000000	0.4377673246
1.4800000000	0.6421285889
1.4850000000	0.5830640742
1.4900000000	0.5162603141
1.4950000000	0.4730532287
1.5000000000	0.4446705312
1.5050000000	0.4259023500
1.5100000000	0.4131321346
1.5150000000	0.4061586840
1.5200000000	0.4010129935
1.5250000000	0.3991435175
1.5300000000	0.4007175612
1.5350000000	0.4064616372
1.5400000000	0.4181915328
1.5450000000	0.4399411974
1.5500000000	0.4807779663
1.5550000000	0.5587751424
1.5600000000	0.6758442711
1.5650000000	0.6946206227
1.5700000000	0.5890361881
1.5750000000	0.5149737569
1.5800000000	0.4830652179
1.5850000000	0.4730783033
1.5900000000	0.4744653529
1.5950000000	0.4826465414
1.6000000000	0.4956274871
1.6050000000	0.5127233867
1.6100000000	0.5334221484
1.6150000000	0.5576489986
1.6200000000	0.5857907001
1.6250000000	0.6181809525
1.6300000000	0.6553671843
1.6350000000	0.6980548711
1.6400000000	0.7471459280
1.6450000000	0.8037921500
1.6500000000	0.8694392880
1.6550000000	0.9459194024
1.6600000000	1.0356060995
1.6650000000	1.1415631801
1.6700000000	1.2667700142
1.6750000000	1.4185364689
1.6800000000	1.6033249071
1.6850000000	1.8313015003
1.6900000000	2.1169002085
1.6950000000	2.4813034569
1.7000000000	2.9563993034
1.7050000000	3.6118205740
1.7100000000	4.5262748508
1.7150000000	5.8554992746
1.7200000000	7.8813635559
1.7250000000	11.0954321979
1.7300000000	16.0345279203
1.7350000000	22.3718184176
1.7400000000	30.3807383094
1.7450000000	44.4355056052
1.7500000000	62.6811423531
1.7550000000	63.6891937047
1.7600000000	44.6823119466
1.7650000000	27.8331884672
1.7700000000	17.8423679480
1.7750000000	12.1611848826
1.7800000000	8.8038350341
1.7850000000	6.7386504901
1.7900000000	5.4579403884
1.7950000000	4.7251748273
1.8000000000	4.4294897272
1.8050000000	4.3359501476
1.8100000000	3.8577725673
1.8150000000	2.9891615910
1.8200000000	2.2952186368
1.8250000000	1.9374862654
1.8300000000	1.6868115428
1.8350000000	1.4640082027
1.8400000000	1.2823247774
1.8450000000	1.1381496475
1.8500000000	1.0219629182
1.8550000000	0.9259835103
1.8600000000	0.8377009814
1.8650000000	0.7630743571
1.8700000000	0.6876626496
1.8750000000	0.5789489804
1.8800000000	0.3310838045
1.8850000000	-0.2122368228
1.8900000000	-0.9430682738
1.8950000000	-1.0685031690
1.9000000000	0.1144158009
1.9050000000	1.2173341075
1.9100000000	1.3460233193
1.9150000000	1.1371354121
1.9200000000	0.9324028041
1.9250000000	0.7871159083
1.9300000000	0.6991164541
1.9350000000	0.6319161189
1.9400000000	0.5871857920
1.9450000000	0.5575461242
1.9500000000	0.5368228730
1.9550000000	0.5195321732
1.9600000000	0.5046530376
1.9650000000	0.4941066334
1.9700000000	0.4884847936
1.9750000000	0.4874114437
1.9800000000	0.4905851127
1.9850000000	0.4980997426
1.9900000000	0.5104485736
1.9950000000	0.5282473910
2.0000000000	0.5510344798
2.0050000000	0.5768936286
2.0100000000	0.5954675554
2.0150000000	0.6078928523
2.0200000000	0.6228777447
2.0250000000	0.6459745782
2.0300000000	0.6788202351
2.0350000000	0.7222379274
2.0400000000	0.7777206608
2.0450000000	0.8478559524
2.0500000000	0.9363580908
2.0550000000	1.0473534077
2.0600000000	1.1828425800
2.0650000000	1.3406968721
2.0700000000	1.5232897220
2.0750000000	1.7509909857
2.0800000000	2.0574300406
2.0850000000	2.4753963555
2.0900000000	3.0239582029
2.0950000000	3.6637017311
2.1000000000	4.2338835229
2.1050000000	4.5101512030
2.1100000000	4.3788945587
2.1150000000	4.0769021780
2.1200000000	3.8634224083
2.1250000000	3.8542332307
2.1300000000	4.0836769868
2.1350000000	4.5789687658
2.1400000000	5.3946253330
2.1450000000	6.6271006764
2.1500000000	8.4114665246
2.1550000000	10.8491876814
2.1600000000	13.7436859251
2.1650000000	16.1764916443
2.1700000000	16.7513804711
2.1750000000	14.9952588847
2.1800000000	12.1061277322
2.1850000000	9.3405012250
2.1900000000	7.1781874179
2.1950000000	5.6159838036
2.2000000000	4.5199783933
2.2050000000	3.7638398627
2.2100000000	3.2389365340
2.2150000000	2.8363258485
2.2200000000	2.4755372633
2.2250000000	2.1323452463
2.2300000000	1.8215967738
2.2350000000	1.5547728824
2.2400000000	1.3287827494
2.2450000000	1.1336499408
2.2500000000	0.9594428834
2.2550000000	0.8006058426
2.2600000000	0.6417630943
2.2650000000	0.5262016833
2.2700000000	0.4634194381
2.2750000000	0.4792039549
2.2800000000	0.5703525411
2.2850000000	0.6864243856
2.2900000000	0.7713806912
2.2950000000	0.8090214029
2.3000000000	0.8133051480
2.3050000000	0.8002841644
2.3100000000	0.7831464880
2.3150000000	0.7679726261
2.3200000000	0.7571660173
2.3250000000	0.7520409718
2.3300000000	0.7536572047
2.3350000000	0.7628930829
2.3400000000	0.7805010741
2.3450000000	0.8072445027
2.3500000000	0.8439330565
2.3550000000	0.8917808065
2.3600000000	0.9500031286
2.3650000000	1.0189634539
2.3700000000	1.0984712149
2.3750000000	1.1893903580
2.3800000000	1.2950026898
2.3850000000	1.4192016078
2.3900000000	1.5628472173
2.3950000000	1.7195426718
2.4000000000	1.8728445482
2.4050000000	2.0049538003
2.4100000000	2.0781751833
2.4150000000	2.0851675412
2.4200000000	2.0438352554
2.4250000000	1.9847074749
2.4300000000	1.9348797351
2.4350000000	1.9107091468
2.4400000000	1.9187248447
2.4450000000	1.9599844469
2.4500000000	2.0346228345
2.4550000000	2.1443030025
2.4600000000	2.2960533008
2.4650000000	2.4970775358
2.4700000000	2.7553988484
2.4750000000	3.0760281154
2.4800000000	3.4564356430
2.4850000000	3.8803916716
2.4900000000	4.3107709476
2.4950000000	4.6859659917
2.5000000000	4.9288821121
2.5050000000	4.9601258782
2.5100000000	4.7479945184
2.5150000000	4.3503923320
2.5200000000	3.8598420789
2.5250000000	3.3576275828
2.5300000000	2.8932971324
2.5350000000	2.4876693922
2.5400000000	2.1438094703
2.5450000000	1.8566164941
2.5500000000	1.6186971543
2.5550000000	1.4234089275
2.5600000000	1.2601121778
2.5650000000	1.1379013253
2.5700000000	1.0500859210
2.5750000000	0.9935348835
2.5800000000	0.9619728244
2.5850000000	0.9468168962
2.5900000000	0.9400124863
2.5950000000	0.9365440841
2.6000000000	0.9347945652
2.6050000000	0.9422432034
2.6100000000	0.9540484027
2.6150000000	0.9720175277
2.6200000000	0.9971107364
2.6250000000	1.0293870313
2.6300000000	1.0679354359
2.6350000000	1.1108226549
2.6400000000	1.1550948880
2.6450000000	1.1970062668
2.6500000000	1.2325896254
2.6550000000	1.2585920195
2.6600000000	1.2735022529
2.6650000000	1.2782074803
2.6700000000	1.2758059142
2.6750000000	1.2708266370
2.6800000000	1.2676584501
2.6850000000	1.2704021604
2.6900000000	1.2819136349
2.6950000000	1.3039481936
2.7000000000	1.3373476048
2.7050000000	1.3873340680
2.7100000000	1.4516581210
2.7150000000	1.5292803353
2.7200000000	1.6180518813
2.7250000000	1.7143245836
2.7300000000	1.8125909404
2.7350000000	1.9054257287
2.7400000000	1.9839957911
2.7450000000	2.0393331241
2.7500000000	2.0642090106
2.7550000000	2.0549817526
2.7600000000	2.0125811938
2.7650000000	1.9421743753
2.7700000000	1.8516677069
2.7750000000	1.7498213994
2.7800000000	1.6446673209
2.7850000000	1.5426319487
2.7900000000	1.4474407184
2.7950000000	1.3631703642
2.8000000000	1.2906646491
2.8050000000	1.2235084918
2.8100000000	1.1705585872
2.8150000000	1.1297313332
2.8200000000	1.0987630503
2.8250000000	1.0755765225
2.8300000000	1.0584061329
2.8350000000	1.0457872737
2.8400000000	1.0364822709
2.8450000000	1.0294402546
2.8500000000	1.0238173135
2.8550000000	1.0190531848
2.8600000000	1.0149580221
2.8650000000	1.0117404252
2.8700000000	1.0099543542
2.8750000000	1.0103618917
2.8800000000	1.0137642622
2.8850000000	1.0208498751
2.8900000000	1.0320879875
2.8950000000	1.0476651011
2.9000000000	1.0674531086
2.9050000000	1.0970482483
2.9100000000	1.1295008338
2.9150000000	1.1626444967
2.9200000000	1.1937414507
2.9250000000	1.2198506280
2.9300000000	1.2382413297
2.9350000000	1.2468719142
2.9400000000	1.2447848605
2.9450000000	1.2322896704
2.9500000000	1.2108471963
2.9550000000	1.1826973559
2.9600000000	1.1503871206
2.9650000000	1.1163290309
2.9700000000	1.0825071449
2.9750000000	1.0503484380
2.9800000000	1.0207314179
2.9850000000	0.9940810532
2.9900000000	0.9704962122
2.9950000000	0.9498734497
3.0000000000	0.9320081232
