# energy (eV)    P(omega), $W$ = 300 nm, $h$ = 300 nm, $s$ = 20 nm, $d/W = 5$, $E_{\rm e}$ = 200 keV
0.2000000000	0.0614521773
0.2050000000	0.0623349103
0.2100000000	0.0631646812
0.2150000000	0.0639431457
0.2200000000	0.0646717311
0.2250000000	0.0653516175
0.2300000000	0.0659836712
0.2350000000	0.0665684335
0.2400000000	0.0671060587
0.2450000000	0.0675961813
0.2500000000	0.0680379904
0.2550000000	0.0684299286
0.2600000000	0.0687697201
0.2650000000	0.0690541929
0.2700000000	0.0692789990
0.2750000000	0.0694384466
0.2800000000	0.0695251580
0.2850000000	0.0695297003
0.2900000000	0.0694399543
0.2950000000	0.0692406388
0.3000000000	0.0689120753
0.3050000000	0.0684294035
0.3100000000	0.0677607072
0.3150000000	0.0714108965
0.3200000000	0.0757466298
0.3250000000	0.0812274851
0.3300000000	0.0885617703
0.3350000000	0.0976940667
0.3400000000	0.1096541997
0.3450000000	0.1241735547
0.3500000000	0.1431753674
0.3550000000	0.1683308891
0.3600000000	0.2012010108
0.3650000000	0.2470471564
0.3700000000	0.3075581016
0.3750000000	0.3917954159
0.3800000000	0.5137143895
0.3850000000	0.7038044295
0.3900000000	1.0043333567
0.3950000000	1.5151934802
0.4000000000	2.4897311004
0.4050000000	4.6760843673
0.4100000000	10.6461208196
0.4150000000	34.1945921591
0.4200000000	21.7656964917
0.4250000000	-41.0871996896
0.4300000000	11.4497457641
0.4350000000	7.1441937490
0.4400000000	4.3738847068
0.4450000000	2.8816115047
0.4500000000	2.0219821766
0.4550000000	1.4926513394
0.4600000000	1.1477039577
0.4650000000	0.9125207714
0.4700000000	0.7462212547
0.4750000000	0.6259108914
0.4800000000	0.5366917656
0.4850000000	0.4695560117
0.4900000000	0.4183213647
0.4950000000	0.3788358393
0.5000000000	0.3482622659
0.5050000000	0.3245165451
0.5100000000	0.3062594229
0.5150000000	0.2925054514
0.5200000000	0.2822184640
0.5250000000	0.2749369796
0.5300000000	0.2701615572
0.5350000000	0.2675279549
0.5400000000	0.2667680892
0.5450000000	0.2676581478
0.5500000000	0.2701314769
0.5550000000	0.2740632341
0.5600000000	0.2793926036
0.5650000000	0.2860939066
0.5700000000	0.2941454169
0.5750000000	0.3036047524
0.5800000000	0.3145655698
0.5850000000	0.3270894113
0.5900000000	0.3412933603
0.5950000000	0.3573226092
0.6000000000	0.3753618737
0.6050000000	0.3956759256
0.6100000000	0.4185198237
0.6150000000	0.4442397216
0.6200000000	0.4732976561
0.6250000000	0.5061360076
0.6300000000	0.5434086333
0.6350000000	0.5859305282
0.6400000000	0.6345500455
0.6450000000	0.6904911200
0.6500000000	0.7553635394
0.6550000000	0.8308434134
0.6600000000	0.9195058411
0.6650000000	1.0246575950
0.6700000000	1.1501862423
0.6750000000	1.3020176351
0.6800000000	1.4881303531
0.6850000000	1.7189686242
0.6900000000	2.0107219352
0.6950000000	2.3860251621
0.7000000000	2.8808550021
0.7050000000	3.5502087677
0.7100000000	4.4873018075
0.7150000000	5.8580890710
0.7200000000	7.9715948657
0.7250000000	11.4811781391
0.7300000000	17.9254989426
0.7350000000	31.7197852457
0.7400000000	69.5661303254
0.7450000000	230.9531207563
0.7500000000	716.0244901622
0.7550000000	180.2670988307
0.7600000000	59.7458999516
0.7650000000	28.6489932032
0.7700000000	16.6743245967
0.7750000000	10.8915234920
0.7800000000	7.6710063463
0.7850000000	5.7019150552
0.7900000000	4.4088474439
0.7950000000	3.5167262037
0.8000000000	2.8751932417
0.8050000000	2.3972323313
0.8100000000	2.0326357868
0.8150000000	1.7435004298
0.8200000000	1.5152353748
0.8250000000	1.3313873328
0.8300000000	1.1807365492
0.8350000000	1.0568466010
0.8400000000	0.9529663273
0.8450000000	0.8657783555
0.8500000000	0.7920732821
0.8550000000	0.7284510734
0.8600000000	0.6741379321
0.8650000000	0.6277562351
0.8700000000	0.5867618160
0.8750000000	0.5519084617
0.8800000000	0.5223614040
0.8850000000	0.4958680447
0.8900000000	0.4746722915
0.8950000000	0.4553883904
0.9000000000	0.4401668270
0.9050000000	0.4298002597
0.9100000000	0.4203060147
0.9150000000	0.4146896160
0.9200000000	0.4143570298
0.9250000000	0.4141823543
0.9300000000	0.4083912588
0.9350000000	0.3902574154
0.9400000000	0.2878889507
0.9450000000	-0.1785923266
0.9500000000	-2.6428662090
0.9550000000	-15.1510172007
0.9600000000	3.5786600668
0.9650000000	6.2898965039
0.9700000000	2.7916924803
0.9750000000	1.4662349510
0.9800000000	0.9191307284
0.9850000000	0.6631775474
0.9900000000	0.5156278124
0.9950000000	0.4261272050
1.0000000000	0.3689701695
1.0050000000	0.3327495885
1.0100000000	0.3046381023
1.0150000000	0.2840888443
1.0200000000	0.2702539812
1.0250000000	0.2586113009
1.0300000000	0.2497468751
1.0350000000	0.2430169189
1.0400000000	0.2387181965
1.0450000000	0.2351038991
1.0500000000	0.2326715577
1.0550000000	0.2312818842
1.0600000000	0.2312562072
1.0650000000	0.2317004156
1.0700000000	0.2329755217
1.0750000000	0.2350857562
1.0800000000	0.2382677473
1.0850000000	0.2423130467
1.0900000000	0.2483428467
1.0950000000	0.2555135728
1.1000000000	0.2640769641
1.1050000000	0.2739230104
1.1100000000	0.2853733294
1.1150000000	0.2986816758
1.1200000000	0.3141594288
1.1250000000	0.3321619065
1.1300000000	0.3532261781
1.1350000000	0.3780008048
1.1400000000	0.4072365095
1.1450000000	0.4422489212
1.1500000000	0.4845141074
1.1550000000	0.5361446119
1.1600000000	0.6001203727
1.1650000000	0.6803194563
1.1700000000	0.7839483018
1.1750000000	0.9206246369
1.1800000000	1.1062252677
1.1850000000	1.3668322459
1.1900000000	1.7516746290
1.1950000000	2.3551076668
1.2000000000	3.3777963160
1.2050000000	5.3094126902
1.2100000000	9.5575796881
1.2150000000	21.0417861522
1.2200000000	51.6068767798
1.2250000000	46.4113176251
1.2300000000	18.5682035572
1.2350000000	8.7547312807
1.2400000000	5.0395367264
1.2450000000	3.3369410674
1.2500000000	2.4424518156
1.2550000000	1.9303899885
1.2600000000	1.6235364541
1.2650000000	1.4367745383
1.2700000000	1.3324945212
1.2750000000	1.2864323776
1.2800000000	1.2876172137
1.2850000000	1.3320282328
1.2900000000	1.4208745421
1.2950000000	1.5592189814
1.3000000000	1.7629603430
1.3050000000	2.0527959530
1.3100000000	2.4661602190
1.3150000000	3.0675489259
1.3200000000	3.9724332197
1.3250000000	5.4013258943
1.3300000000	7.8355242813
1.3350000000	12.3925269028
1.3400000000	22.1314610648
1.3450000000	46.3138762175
1.3500000000	98.3870611479
1.3550000000	91.8197272526
1.3600000000	42.3586196791
1.3650000000	20.8154123165
1.3700000000	11.9373742925
1.3750000000	7.6760859290
1.3800000000	5.3525141743
1.3850000000	3.9530515443
1.3900000000	3.0515564219
1.3950000000	2.4368939818
1.4000000000	2.0004139016
1.4050000000	1.6807999764
1.4100000000	1.4412838898
1.4150000000	1.2605561432
1.4200000000	1.1246561400
1.4250000000	1.0336486799
1.4300000000	1.0003619646
1.4350000000	1.0189981969
1.4400000000	0.7849542223
1.4450000000	0.0679877286
1.4500000000	-1.0958979411
1.4550000000	-0.3071611143
1.4600000000	1.3274373290
1.4650000000	0.7185866721
1.4700000000	-0.6789657203
1.4750000000	-2.9709705807
1.4800000000	-1.3222922198
1.4850000000	2.1731739833
1.4900000000	1.7615854860
1.4950000000	1.1402185923
1.5000000000	0.8011339951
1.5050000000	0.6185498916
1.5100000000	0.5144827277
1.5150000000	0.4512832425
1.5200000000	0.4104578568
1.5250000000	0.3850921230
1.5300000000	0.3657160776
1.5350000000	0.3523607849
1.5400000000	0.3435642180
1.5450000000	0.3385419981
1.5500000000	0.3367877246
1.5550000000	0.3383144341
1.5600000000	0.3440244252
1.5650000000	0.3534549583
1.5700000000	0.3687236849
1.5750000000	0.3924139872
1.5800000000	0.4293764791
1.5850000000	0.4890531435
1.5900000000	0.5913368041
1.5950000000	0.7802488442
1.6000000000	1.1487757466
1.6050000000	1.7581239894
1.6100000000	2.0403328969
1.6150000000	1.5112999939
1.6200000000	1.0150040979
1.6250000000	0.7530263166
1.6300000000	0.6214849632
1.6350000000	0.5537606332
1.6400000000	0.5194311535
1.6450000000	0.5043568815
1.6500000000	0.5014570606
1.6550000000	0.5074146687
1.6600000000	0.5202499537
1.6650000000	0.5390587739
1.6700000000	0.5634972336
1.6750000000	0.5935671006
1.6800000000	0.6295369491
1.6850000000	0.6718235020
1.6900000000	0.7207949647
1.6950000000	0.7757544287
1.7000000000	0.8357772812
1.7050000000	0.8972817850
1.7100000000	0.9674582282
1.7150000000	1.1419338070
1.7200000000	1.4480850979
1.7250000000	1.7285519273
1.7300000000	2.0295181169
1.7350000000	2.3602239563
1.7400000000	2.6847456973
1.7450000000	3.1015824937
1.7500000000	3.7319349691
1.7550000000	4.6701422250
1.7600000000	6.0738703671
1.7650000000	8.2377276117
1.7700000000	11.7233220685
1.7750000000	17.5956444833
1.7800000000	27.6019718114
1.7850000000	42.3589808096
1.7900000000	52.6409015207
1.7950000000	44.8247939544
1.8000000000	29.8321892484
1.8050000000	18.8397374208
1.8100000000	12.4215094211
1.8150000000	8.6595319710
1.8200000000	6.3443594864
1.8250000000	4.8434258003
1.8300000000	3.8243444636
1.8350000000	3.1050353521
1.8400000000	2.5809859702
1.8450000000	2.1887970533
1.8500000000	1.8885131226
1.8550000000	1.6551330993
1.8600000000	1.4712166104
1.8650000000	1.3249110066
1.8700000000	1.2077866176
1.8750000000	1.1136550323
1.8800000000	1.0376078601
1.8850000000	0.9753084342
1.8900000000	0.9217601092
1.8950000000	0.8695068787
1.9000000000	0.8056734017
1.9050000000	0.6848159019
1.9100000000	0.5184957614
1.9150000000	0.4305229666
1.9200000000	1.0522227646
1.9250000000	2.7701217054
1.9300000000	4.1325254475
1.9350000000	4.0689015494
1.9400000000	3.2002625264
1.9450000000	2.3580996334
1.9500000000	1.7668078468
1.9550000000	1.3793771153
1.9600000000	1.1233519825
1.9650000000	0.9519897352
1.9700000000	0.8282811267
1.9750000000	0.7375980574
1.9800000000	0.6683650194
1.9850000000	0.6121836700
1.9900000000	0.5626275574
1.9950000000	0.5140879198
2.0000000000	0.4657471549
2.0050000000	0.4348630435
2.0100000000	0.4525571241
2.0150000000	0.5013009154
2.0200000000	0.5313553903
2.0250000000	0.5393379531
2.0300000000	0.5411335934
2.0350000000	0.5444012269
2.0400000000	0.5519862995
2.0450000000	0.5646139365
2.0500000000	0.5827542959
2.0550000000	0.6068342504
2.0600000000	0.6368541084
2.0650000000	0.6709963918
2.0700000000	0.7047538219
2.0750000000	0.7347488660
2.0800000000	0.7639626818
2.0850000000	0.7985600030
2.0900000000	0.8426735490
2.0950000000	0.8980441333
2.1000000000	0.9665450672
2.1050000000	1.0475564882
2.1100000000	1.1467719835
2.1150000000	1.2683537534
2.1200000000	1.4181387239
2.1250000000	1.6043140226
2.1300000000	1.8384201878
2.1350000000	2.1369335167
2.1400000000	2.5236452503
2.1450000000	3.0333383372
2.1500000000	3.7166928199
2.1550000000	4.6454348246
2.1600000000	5.9113625532
2.1650000000	7.5922178375
2.1700000000	9.6569009930
2.1750000000	11.7096264938
2.1800000000	12.9779479769
2.1850000000	13.0438388850
2.1900000000	12.4671439536
2.1950000000	12.0183692505
2.2000000000	11.8193511401
2.2050000000	11.2665705222
2.2100000000	10.0930008691
2.2150000000	8.6501039195
2.2200000000	7.3548034506
2.2250000000	6.2842834814
2.2300000000	5.3416329738
2.2350000000	4.4893370541
2.2400000000	3.7572504859
2.2450000000	3.1714867072
2.2500000000	2.7224499559
2.2550000000	2.3851318664
2.2600000000	2.1325711954
2.2650000000	1.9377495730
2.2700000000	1.7714586553
2.2750000000	1.6049206230
2.2800000000	1.4256179224
2.2850000000	1.2549944271
2.2900000000	1.1370815692
2.2950000000	1.0968048570
2.3000000000	1.1111990987
2.3050000000	1.1331803506
2.3100000000	1.1350262219
2.3150000000	1.1169615407
2.3200000000	1.0909867168
2.3250000000	1.0694968165
2.3300000000	1.0588339599
2.3350000000	1.0600872977
2.3400000000	1.0697036183
2.3450000000	1.0796415548
2.3500000000	1.0797755122
2.3550000000	1.0636454343
2.3600000000	1.0330795530
2.3650000000	0.9960668140
2.3700000000	0.9608420064
2.3750000000	0.9323234014
2.3800000000	0.9121087430
2.3850000000	0.8997462667
2.3900000000	0.8942056710
2.3950000000	0.8942934270
2.4000000000	0.9003345456
2.4050000000	0.9143185420
2.4100000000	0.9369121006
2.4150000000	0.9690381927
2.4200000000	1.0112515119
2.4250000000	1.0645231304
2.4300000000	1.1302693905
2.4350000000	1.2103902673
2.4400000000	1.3073375194
2.4450000000	1.4242416389
2.4500000000	1.5650521973
2.4550000000	1.7347334453
2.4600000000	1.9393845897
2.4650000000	2.1863234499
2.4700000000	2.4839427809
2.4750000000	2.8406494537
2.4800000000	3.2651257214
2.4850000000	3.7608084141
2.4900000000	4.3228524566
2.4950000000	4.9311446383
2.5000000000	5.5431494676
2.5050000000	6.1156556655
2.5100000000	6.5024292871
2.5150000000	6.6191259936
2.5200000000	6.4456431556
2.5250000000	6.0355324712
2.5300000000	5.4820936949
2.5350000000	4.8753135687
2.5400000000	4.2787681444
2.5450000000	3.7283794345
2.5500000000	3.2401218565
2.5550000000	2.8176321470
2.5600000000	2.4551014531
2.5650000000	2.1503052971
2.5700000000	1.8960673794
2.5750000000	1.6878952245
2.5800000000	1.5224331465
2.5850000000	1.3960334859
2.5900000000	1.3026970419
2.5950000000	1.2339895949
2.6000000000	1.1811293300
2.6050000000	1.1435624035
2.6100000000	1.1110346579
2.6150000000	1.0830304657
2.6200000000	1.0601030315
2.6250000000	1.0428652851
2.6300000000	1.0317265283
2.6350000000	1.0268956078
2.6400000000	1.0284938377
2.6450000000	1.0366340787
2.6500000000	1.0515372645
2.6550000000	1.0732652908
2.6600000000	1.1021515828
2.6650000000	1.1385329800
2.6700000000	1.1828232699
2.6750000000	1.2355238707
2.6800000000	1.2971905316
2.6850000000	1.3683917380
2.6900000000	1.4495931153
2.6950000000	1.5410646651
2.7000000000	1.6427136567
2.7050000000	1.7661009019
2.7100000000	1.9007602558
2.7150000000	2.0440691767
2.7200000000	2.1922134800
2.7250000000	2.3404017696
2.7300000000	2.4832279004
2.7350000000	2.6149826632
2.7400000000	2.7297288582
2.7450000000	2.8221966408
2.7500000000	2.8842112878
2.7550000000	2.9108242368
2.7600000000	2.8982805620
2.7650000000	2.8461438026
2.7700000000	2.7579078103
2.7750000000	2.6405725201
2.7800000000	2.5032618289
2.7850000000	2.3556549363
2.7900000000	2.2064364667
2.7950000000	2.0625706900
2.8000000000	1.9289820289
2.8050000000	1.7938218318
2.8100000000	1.6781427100
2.8150000000	1.5816343922
2.8200000000	1.5027433456
2.8250000000	1.4394220350
2.8300000000	1.3896079076
2.8350000000	1.3515357822
2.8400000000	1.3233474702
2.8450000000	1.3051076406
2.8500000000	1.2954658672
2.8550000000	1.2939075908
2.8600000000	1.3000485733
2.8650000000	1.3135426570
2.8700000000	1.3340026098
2.8750000000	1.3609371248
2.8800000000	1.3937021030
2.8850000000	1.4314598814
2.8900000000	1.4732035280
2.8950000000	1.5177942417
2.9000000000	1.5640344568
2.9050000000	1.6195997602
2.9100000000	1.6729035605
2.9150000000	1.7222692779
2.9200000000	1.7659374005
2.9250000000	1.8019115509
2.9300000000	1.8283534776
2.9350000000	1.8424042956
2.9400000000	1.8428301428
2.9450000000	1.8291054537
2.9500000000	1.8020220755
2.9550000000	1.7636383447
2.9600000000	1.7169252068
2.9650000000	1.6652489808
2.9700000000	1.6118648536
2.9750000000	1.5595547150
2.9800000000	1.5104501424
2.9850000000	1.4660054450
2.9900000000	1.4270953345
2.9950000000	1.3941304058
3.0000000000	1.3671970398
