# energy (eV)    P(omega), $W$ = 300 nm, $h$ = 300 nm, $s$ = 20 nm, $d/W = 5$, $E_{\rm e}$ = 200 keV
0.2000000000	0.0568520033
0.2050000000	0.0577040360
0.2100000000	0.0585008067
0.2150000000	0.0592441151
0.2200000000	0.0599354921
0.2250000000	0.0605762401
0.2300000000	0.0611673514
0.2350000000	0.0617094838
0.2400000000	0.0622028814
0.2450000000	0.0626473524
0.2500000000	0.0630421610
0.2550000000	0.0633859081
0.2600000000	0.0636764972
0.2650000000	0.0639108833
0.2700000000	0.0640849445
0.2750000000	0.0641932184
0.2800000000	0.0642286157
0.2850000000	0.0641820238
0.2900000000	0.0640417687
0.2950000000	0.0637930409
0.3000000000	0.0634169210
0.3050000000	0.0628893017
0.3100000000	0.0621793187
0.3150000000	0.0657124272
0.3200000000	0.0699084391
0.3250000000	0.0752154576
0.3300000000	0.0823225479
0.3350000000	0.0911690962
0.3400000000	0.1027537757
0.3450000000	0.1168050888
0.3500000000	0.1351865279
0.3550000000	0.1595083331
0.3600000000	0.1912650087
0.3650000000	0.2355368606
0.3700000000	0.2939121845
0.3750000000	0.3751139545
0.3800000000	0.4925541705
0.3850000000	0.6755476436
0.3900000000	0.9646362337
0.3950000000	1.4556870158
0.4000000000	2.3918042370
0.4050000000	4.4905594142
0.4100000000	10.2172891789
0.4150000000	32.7900260839
0.4200000000	20.8920276391
0.4250000000	-39.3254078042
0.4300000000	10.9355189276
0.4350000000	6.8146158626
0.4400000000	4.1658094661
0.4450000000	2.7399813011
0.4500000000	1.9191647063
0.4550000000	1.4140379492
0.4600000000	1.0850509464
0.4650000000	0.8608644977
0.4700000000	0.7024127109
0.4750000000	0.5878163360
0.4800000000	0.5028521996
0.4850000000	0.4389185758
0.4900000000	0.3901160979
0.4950000000	0.3524845055
0.5000000000	0.3233168343
0.5050000000	0.3006269944
0.5100000000	0.2831360841
0.5150000000	0.2699025836
0.5200000000	0.2599423849
0.5250000000	0.2528120625
0.5300000000	0.2480356807
0.5350000000	0.2452651798
0.5400000000	0.2442439573
0.5450000000	0.2447576411
0.5500000000	0.2467384275
0.5550000000	0.2500654793
0.5600000000	0.2546770682
0.5650000000	0.2605454773
0.5700000000	0.2676454694
0.5750000000	0.2760266590
0.5800000000	0.2857696927
0.5850000000	0.2969272126
0.5900000000	0.3096011899
0.5950000000	0.3239199069
0.6000000000	0.3400467764
0.6050000000	0.3582186242
0.6100000000	0.3786614209
0.6150000000	0.4016838756
0.6200000000	0.4276977818
0.6250000000	0.4570979647
0.6300000000	0.4904679941
0.6350000000	0.5285352070
0.6400000000	0.5720564121
0.6450000000	0.6221240017
0.6500000000	0.6801742819
0.6550000000	0.7477024301
0.6600000000	0.8270064025
0.6650000000	0.9210348379
0.6700000000	1.0332542118
0.6750000000	1.1689507618
0.6800000000	1.3352331513
0.6850000000	1.5414139451
0.6900000000	1.8019164970
0.6950000000	2.1369132156
0.7000000000	2.5784477692
0.7050000000	3.1755069582
0.7100000000	4.0110929381
0.7150000000	5.2329593494
0.7200000000	7.1161789729
0.7250000000	10.2422156159
0.7300000000	15.9801212036
0.7350000000	28.2576482163
0.7400000000	61.9293108024
0.7450000000	205.4517032491
0.7500000000	636.4977050961
0.7550000000	160.1266129892
0.7600000000	53.0308333334
0.7650000000	25.4096404753
0.7700000000	14.7775040882
0.7750000000	9.6449663192
0.7800000000	6.7876437699
0.7850000000	5.0412413326
0.7900000000	3.8948122026
0.7950000000	3.1041414514
0.8000000000	2.5357540166
0.8050000000	2.1124299199
0.8100000000	1.7896200094
0.8150000000	1.5337218123
0.8200000000	1.3317589367
0.8250000000	1.1691399984
0.8300000000	1.0359290029
0.8350000000	0.9264045386
0.8400000000	0.8345907143
0.8450000000	0.7575467987
0.8500000000	0.6924223737
0.8550000000	0.6362224822
0.8600000000	0.5882464793
0.8650000000	0.5472669630
0.8700000000	0.5110580529
0.8750000000	0.4802574429
0.8800000000	0.4541227874
0.8850000000	0.4306915988
0.8900000000	0.4118966053
0.8950000000	0.3947989286
0.9000000000	0.3812493217
0.9050000000	0.3719197344
0.9100000000	0.3633702024
0.9150000000	0.3581869305
0.9200000000	0.3575695576
0.9250000000	0.3571132685
0.9300000000	0.3518805008
0.9350000000	0.3361638357
0.9400000000	0.2485793723
0.9450000000	-0.1495418248
0.9500000000	-2.2506381525
0.9550000000	-12.9078877269
0.9600000000	3.0458179186
0.9650000000	5.3505091017
0.9700000000	2.3731689168
0.9750000000	1.2458574323
0.9800000000	0.7807927524
0.9850000000	0.5632799759
0.9900000000	0.4379529600
0.9950000000	0.3619574025
1.0000000000	0.3134340227
1.0050000000	0.2826717459
1.0100000000	0.2588230276
1.0150000000	0.2413999941
1.0200000000	0.2296648833
1.0250000000	0.2198146543
1.0300000000	0.2123314860
1.0350000000	0.2066703535
1.0400000000	0.2030712284
1.0450000000	0.2000781423
1.0500000000	0.1981033932
1.0550000000	0.1970300792
1.0600000000	0.1971224863
1.0650000000	0.1976450316
1.0700000000	0.1988975828
1.0750000000	0.2008853642
1.0800000000	0.2038051173
1.0850000000	0.2075103293
1.0900000000	0.2129763716
1.0950000000	0.2194677029
1.1000000000	0.2272022353
1.1050000000	0.2361162377
1.1100000000	0.2464914282
1.1150000000	0.2585610473
1.1200000000	0.2726017710
1.1250000000	0.2889745707
1.1300000000	0.3081637516
1.1350000000	0.3307719549
1.1400000000	0.3574856225
1.1450000000	0.3895573018
1.1500000000	0.4283494996
1.1550000000	0.4758317330
1.1600000000	0.5347826431
1.1650000000	0.6088078674
1.1700000000	0.7046609943
1.1750000000	0.8313083269
1.1800000000	1.0035721362
1.1850000000	1.2458168269
1.1900000000	1.6039614893
1.1950000000	2.1661723251
1.2000000000	3.1197586507
1.2050000000	4.9217843500
1.2100000000	8.8858926895
1.2150000000	19.6009272976
1.2200000000	48.1048367628
1.2250000000	43.2201770145
1.2300000000	17.2410149713
1.2350000000	8.0868493461
1.2400000000	4.6194706462
1.2450000000	3.0274479263
1.2500000000	2.1876225798
1.2550000000	1.7029806014
1.2600000000	1.4081187533
1.2650000000	1.2234768819
1.2700000000	1.1134505656
1.2750000000	1.0549552349
1.2800000000	1.0370087120
1.2850000000	1.0548226649
1.2900000000	1.1080276540
1.2950000000	1.1993947260
1.3000000000	1.3401935351
1.3050000000	1.5448780484
1.3100000000	1.8403846273
1.3150000000	2.2733167356
1.3200000000	2.9274507028
1.3250000000	3.9624653737
1.3300000000	5.7280620892
1.3350000000	9.0350342978
1.3400000000	16.1029932342
1.3450000000	33.6493827388
1.3500000000	71.4130981634
1.3550000000	66.6036074397
1.3600000000	30.7142742254
1.3650000000	15.0910689689
1.3700000000	8.6545464050
1.3750000000	5.5656466999
1.3800000000	3.8814086704
1.3850000000	2.8668425649
1.3900000000	2.2129452623
1.3950000000	1.7668136437
1.4000000000	1.4494765831
1.4050000000	1.2164070551
1.4100000000	1.0406400571
1.4150000000	0.9060712944
1.4200000000	0.8013467385
1.4250000000	0.7234748954
1.4300000000	0.6740735279
1.4350000000	0.6416538071
1.4400000000	0.4416392008
1.4450000000	-0.1127725093
1.4500000000	-1.0770007493
1.4550000000	-0.3594771262
1.4600000000	1.0968359292
1.4650000000	0.6350225023
1.4700000000	-0.4068467921
1.4750000000	-2.0556202254
1.4800000000	-0.9070194450
1.4850000000	1.5532909470
1.4900000000	1.2574377182
1.4950000000	0.8157814123
1.5000000000	0.5743217003
1.5050000000	0.4436096114
1.5100000000	0.3687858689
1.5150000000	0.3229097194
1.5200000000	0.2928606989
1.5250000000	0.2737861970
1.5300000000	0.2587538650
1.5350000000	0.2478316408
1.5400000000	0.2399166072
1.5450000000	0.2343508824
1.5500000000	0.2306791122
1.5550000000	0.2287110462
1.5600000000	0.2288367608
1.5650000000	0.2302635534
1.5700000000	0.2338315347
1.5750000000	0.2401975409
1.5800000000	0.2506709598
1.5850000000	0.2678307983
1.5900000000	0.2971337268
1.5950000000	0.3506437357
1.6000000000	0.4537884400
1.6050000000	0.6230845718
1.6100000000	0.7020955076
1.6150000000	0.5595305533
1.6200000000	0.4273228883
1.6250000000	0.3601550433
1.6300000000	0.3293754241
1.6350000000	0.3167481670
1.6400000000	0.3140131976
1.6450000000	0.3173929651
1.6500000000	0.3250491453
1.6550000000	0.3362291002
1.6600000000	0.3505498010
1.6650000000	0.3679621540
1.6700000000	0.3886125074
1.6750000000	0.4127996446
1.6800000000	0.4409593219
1.6850000000	0.4736729043
1.6900000000	0.5116152995
1.6950000000	0.5551774963
1.7000000000	0.6053185420
1.7050000000	0.6633246202
1.7100000000	0.7336309524
1.7150000000	0.8518606474
1.7200000000	1.0304537370
1.7250000000	1.2234220869
1.7300000000	1.4528273915
1.7350000000	1.7010545472
1.7400000000	1.9302791031
1.7450000000	2.2191914016
1.7500000000	2.6620454840
1.7550000000	3.3262506422
1.7600000000	4.3227594573
1.7650000000	5.8601160568
1.7700000000	8.3366299983
1.7750000000	12.5078215102
1.7800000000	19.6121188536
1.7850000000	30.0811783697
1.7900000000	37.3583570397
1.7950000000	31.7862661588
1.8000000000	21.1344474584
1.8050000000	13.3314886588
1.8100000000	8.7776398123
1.8150000000	6.1091646259
1.8200000000	4.4670672036
1.8250000000	3.4022987320
1.8300000000	2.6789623545
1.8350000000	2.1678508340
1.8400000000	1.7948031604
1.8450000000	1.5147758298
1.8500000000	1.2993517043
1.8550000000	1.1307137980
1.8600000000	0.9963308171
1.8650000000	0.8875892811
1.8700000000	0.7982133667
1.8750000000	0.7233899227
1.8800000000	0.6590228454
1.8850000000	0.6011194731
1.8900000000	0.5447393655
1.8950000000	0.4823984267
1.9000000000	0.4014148961
1.9050000000	0.2603976053
1.9100000000	0.0579059195
1.9150000000	-0.1368804867
1.9200000000	0.0995868229
1.9250000000	1.0437562291
1.9300000000	1.7979843894
1.9350000000	1.8146903136
1.9400000000	1.4566295781
1.9450000000	1.1038626404
1.9500000000	0.8538402360
1.9550000000	0.6884672534
1.9600000000	0.5782679739
1.9650000000	0.5048369326
1.9700000000	0.4507860357
1.9750000000	0.4111515979
1.9800000000	0.3810689726
1.9850000000	0.3570495145
1.9900000000	0.3364960625
1.9950000000	0.3172069110
2.0000000000	0.2987866484
2.0050000000	0.2878311796
2.0100000000	0.2951930364
2.0150000000	0.3143928096
2.0200000000	0.3273601083
2.0250000000	0.3329881088
2.0300000000	0.3372725139
2.0350000000	0.3429875878
2.0400000000	0.3514809801
2.0450000000	0.3633233297
2.0500000000	0.3790940372
2.0550000000	0.3993692146
2.0600000000	0.4241820219
2.0650000000	0.4515561132
2.0700000000	0.4765713705
2.0750000000	0.4953862407
2.0800000000	0.5108594608
2.0850000000	0.5292018522
2.0900000000	0.5543650795
2.0950000000	0.5877205392
2.1000000000	0.6303213349
2.1050000000	0.6815276927
2.1100000000	0.7449071532
2.1150000000	0.8230174636
2.1200000000	0.9195361835
2.1250000000	1.0396813720
2.1300000000	1.1908459401
2.1350000000	1.3836076162
2.1400000000	1.6332432142
2.1450000000	1.9620826231
2.1500000000	2.4026440607
2.1550000000	3.0009207672
2.1600000000	3.8157588851
2.1650000000	4.8970293321
2.1700000000	6.2257263903
2.1750000000	7.5506539039
2.1800000000	8.3827284877
2.1850000000	8.4606950136
2.1900000000	8.1447393319
2.1950000000	7.9205683584
2.2000000000	7.8422578979
2.2050000000	7.4738653569
2.2100000000	6.6288364675
2.2150000000	5.5656046932
2.2200000000	4.5985466932
2.2250000000	3.8148984823
2.2300000000	3.1714480746
2.2350000000	2.6328269943
2.2400000000	2.1905219184
2.2450000000	1.8412518616
2.2500000000	1.5705892902
2.2550000000	1.3611227809
2.2600000000	1.1967293120
2.2650000000	1.0628725290
2.2700000000	0.9457893637
2.2750000000	0.8338449467
2.2800000000	0.7243308617
2.2850000000	0.6306156742
2.2900000000	0.5754787472
2.2950000000	0.5691369090
2.3000000000	0.5940171106
2.3050000000	0.6202443957
2.3100000000	0.6295045276
2.3150000000	0.6223718257
2.3200000000	0.6067638076
2.3250000000	0.5908183129
2.3300000000	0.5788556918
2.3350000000	0.5721367374
2.3400000000	0.5697119338
2.3450000000	0.5688195011
2.3500000000	0.5659022625
2.3550000000	0.5586877741
2.3600000000	0.5478047252
2.3650000000	0.5360250089
2.3700000000	0.5261660581
2.3750000000	0.5197940196
2.3800000000	0.5171607484
2.3850000000	0.5176378462
2.3900000000	0.5204225231
2.3950000000	0.5247451459
2.4000000000	0.5309888400
2.4050000000	0.5407812276
2.4100000000	0.5548131596
2.4150000000	0.5740394365
2.4200000000	0.5991187520
2.4250000000	0.6307574886
2.4300000000	0.6698227650
2.4350000000	0.7174263045
2.4400000000	0.7749987392
2.4450000000	0.8443744279
2.4500000000	0.9278782098
2.4550000000	1.0284436181
2.4600000000	1.1496773006
2.4650000000	1.2959276396
2.4700000000	1.4721978192
2.4750000000	1.6835328120
2.4800000000	1.9352558235
2.4850000000	2.2295771256
2.4900000000	2.5637377231
2.4950000000	2.9255468641
2.5000000000	3.2886889353
2.5050000000	3.6252575418
2.5100000000	3.8459445055
2.5150000000	3.9006527002
2.5200000000	3.7810061676
2.5250000000	3.5241109882
2.5300000000	3.1889306626
2.5350000000	2.8289593128
2.5400000000	2.4795018913
2.5450000000	2.1589824929
2.5500000000	1.8748207080
2.5550000000	1.6282910432
2.5600000000	1.4158769836
2.5650000000	1.2368051386
2.5700000000	1.0872732631
2.5750000000	0.9649840568
2.5800000000	0.8681814194
2.5850000000	0.7947929972
2.5900000000	0.7411952422
2.5950000000	0.7021873479
2.6000000000	0.6723327042
2.6050000000	0.6510296704
2.6100000000	0.6321425172
2.6150000000	0.6154179713
2.6200000000	0.6012487151
2.6250000000	0.5900374278
2.6300000000	0.5820424007
2.6350000000	0.5773875747
2.6400000000	0.5761380975
2.6450000000	0.5783600907
2.6500000000	0.5841894341
2.6550000000	0.5936564080
2.6600000000	0.6069687615
2.6650000000	0.6243241508
2.6700000000	0.6459553152
2.6750000000	0.6721344992
2.6800000000	0.7031528035
2.6850000000	0.7393079380
2.6900000000	0.7808633056
2.6950000000	0.8280204970
2.7000000000	0.8808534130
2.7050000000	0.9455437166
2.7100000000	1.0171726368
2.7150000000	1.0948658516
2.7200000000	1.1771542612
2.7250000000	1.2619489587
2.7300000000	1.3465462359
2.7350000000	1.4276371265
2.7400000000	1.5012856017
2.7450000000	1.5635642235
2.7500000000	1.6086406534
2.7550000000	1.6326542856
2.7600000000	1.6326896060
2.7650000000	1.6081043909
2.7700000000	1.5608566890
2.7750000000	1.4951744603
2.7800000000	1.4166379926
2.7850000000	1.3311826591
2.7900000000	1.2441259342
2.7950000000	1.1597300845
2.8000000000	1.0810110339
2.8050000000	1.0010520971
2.8100000000	0.9322207984
2.8150000000	0.8743632188
2.8200000000	0.8265756606
2.8250000000	0.7876565787
2.8300000000	0.7563940316
2.8350000000	0.7317564795
2.8400000000	0.7126464885
2.8450000000	0.6991310183
2.8500000000	0.6904037544
2.8550000000	0.6861598967
2.8600000000	0.6861746760
2.8650000000	0.6902571696
2.8700000000	0.6982214541
2.8750000000	0.7098551011
2.8800000000	0.7248984952
2.8850000000	0.7430228264
2.8900000000	0.7638358326
2.8950000000	0.7868722078
2.9000000000	0.8116206235
2.9050000000	0.8429146574
2.9100000000	0.8741899206
2.9150000000	0.9043297973
2.9200000000	0.9320525399
2.9250000000	0.9558788859
2.9300000000	0.9744310943
2.9350000000	0.9857763450
2.9400000000	0.9889939030
2.9450000000	0.9836337759
2.9500000000	0.9700634072
2.9550000000	0.9494370720
2.9600000000	0.9234713262
2.9650000000	0.8941423806
2.9700000000	0.8633835198
2.9750000000	0.8328615046
2.9800000000	0.8038652676
2.9850000000	0.7772856013
2.9900000000	0.7536715335
2.9950000000	0.7332891094
3.0000000000	0.7162155515
