# energy (eV)    P(omega), $W$ = 300 nm, $h$ = 300 nm, $s$ = 20 nm, $d/W = 5$, $E_{\rm e}$ = 200 keV
0.2000000000	0.3474598199
0.2050000000	0.3524570375
0.2100000000	0.3571538795
0.2150000000	0.3615597336
0.2200000000	0.3656826949
0.2250000000	0.3695294629
0.2300000000	0.3731049637
0.2350000000	0.3764122854
0.2400000000	0.3794523056
0.2450000000	0.3822229886
0.2500000000	0.3847197470
0.2550000000	0.3869337717
0.2600000000	0.3888522052
0.2650000000	0.3904570833
0.2700000000	0.3917237893
0.2750000000	0.3926201258
0.2800000000	0.3931043398
0.2850000000	0.3931230106
0.2900000000	0.3926075266
0.2950000000	0.3914713989
0.3000000000	0.3896032187
0.3050000000	0.3868622464
0.3100000000	0.3830677882
0.3150000000	0.4037329593
0.3200000000	0.4282791875
0.3250000000	0.4593088130
0.3300000000	0.5008321707
0.3350000000	0.5525346545
0.3400000000	0.6202467168
0.3450000000	0.7024461421
0.3500000000	0.8100211850
0.3550000000	0.9524326562
0.3600000000	1.1385147211
0.3650000000	1.3980529793
0.3700000000	1.7406012190
0.3750000000	2.2174541390
0.3800000000	2.9076041088
0.3850000000	3.9836359800
0.3900000000	5.6847913347
0.3950000000	8.5764839273
0.4000000000	14.0927041029
0.4050000000	26.4680238266
0.4100000000	60.2593899514
0.4150000000	193.5452350907
0.4200000000	123.1993591939
0.4250000000	-232.5479416201
0.4300000000	64.8005599852
0.4350000000	40.4317685090
0.4400000000	24.7525971094
0.4450000000	16.3068885645
0.4500000000	11.4417852811
0.4550000000	8.4460602894
0.4600000000	6.4938723723
0.4650000000	5.1628985219
0.4700000000	4.2217686247
0.4750000000	3.5409065257
0.4800000000	3.0359996782
0.4850000000	2.6560666550
0.4900000000	2.3661192072
0.4950000000	2.1426596139
0.5000000000	1.9696312861
0.5050000000	1.8352392798
0.5100000000	1.7319044221
0.5150000000	1.6540492516
0.5200000000	1.5958103780
0.5250000000	1.5545755776
0.5300000000	1.5275185202
0.5350000000	1.5125775641
0.5400000000	1.5082355167
0.5450000000	1.5132253498
0.5500000000	1.5271696054
0.5550000000	1.5493614606
0.5600000000	1.5794558919
0.5650000000	1.6173072580
0.5700000000	1.6627922507
0.5750000000	1.7162356965
0.5800000000	1.7781668826
0.5850000000	1.8489328141
0.5900000000	1.9291951939
0.5950000000	2.0197740352
0.6000000000	2.1217128640
0.6050000000	2.2365078661
0.6100000000	2.3656002714
0.6150000000	2.5109460079
0.6200000000	2.6751556550
0.6250000000	2.8607293212
0.6300000000	3.0713613582
0.6350000000	3.3116574127
0.6400000000	3.5864110959
0.6450000000	3.9025389670
0.6500000000	4.2691363351
0.6550000000	4.6956747743
0.6600000000	5.1967067947
0.6650000000	5.7909147630
0.6700000000	6.5002685188
0.6750000000	7.3582517483
0.6800000000	8.4099472266
0.6850000000	9.7143706234
0.6900000000	11.3630029784
0.6950000000	13.4837405594
0.7000000000	16.2798689852
0.7050000000	20.0621496139
0.7100000000	25.3572852070
0.7150000000	33.1029898643
0.7200000000	45.0453758410
0.7250000000	64.8761277574
0.7300000000	101.2891878203
0.7350000000	179.2318985255
0.7400000000	393.0756043960
0.7450000000	1304.9532973115
0.7500000000	4045.6821014865
0.7550000000	1018.5281974194
0.7600000000	337.5648678415
0.7650000000	161.8642269808
0.7700000000	94.2067406431
0.7750000000	61.5339043647
0.7800000000	43.3381220115
0.7850000000	32.2129349484
0.7900000000	24.9072768970
0.7950000000	19.8669544695
0.8000000000	16.2424355080
0.8050000000	13.5420840388
0.8100000000	11.4822265120
0.8150000000	9.8487154154
0.8200000000	8.5591093310
0.8250000000	7.5204475092
0.8300000000	6.6693424147
0.8350000000	5.9694251127
0.8400000000	5.3825566841
0.8450000000	4.8899944302
0.8500000000	4.4736014187
0.8550000000	4.1141747365
0.8600000000	3.8073387096
0.8650000000	3.5453078518
0.8700000000	3.3137144495
0.8750000000	3.1168118000
0.8800000000	2.9498833450
0.8850000000	2.8002072364
0.8900000000	2.6804529652
0.8950000000	2.5715009205
0.9000000000	2.4854924935
0.9050000000	2.4269015967
0.9100000000	2.3732403922
0.9150000000	2.3414778598
0.9200000000	2.3395505958
0.9250000000	2.3385187640
0.9300000000	2.3057856034
0.9350000000	2.2033862473
0.9400000000	1.6254930744
0.9450000000	-1.0077553285
0.9500000000	-14.9180819050
0.9550000000	-85.5229636304
0.9600000000	20.1999062886
0.9650000000	35.5032622745
0.9700000000	15.7574083449
0.9750000000	8.2758897175
0.9800000000	5.1878092456
0.9850000000	3.7431133004
0.9900000000	2.9102966285
0.9950000000	2.4051312810
1.0000000000	2.0825230242
1.0050000000	1.8780833651
1.0100000000	1.7194178157
1.0150000000	1.6034362296
1.0200000000	1.5253504614
1.0250000000	1.4596416030
1.0300000000	1.4096152240
1.0350000000	1.3716377244
1.0400000000	1.3473824978
1.0450000000	1.3269942559
1.0500000000	1.3132797113
1.0550000000	1.3054526347
1.0600000000	1.3053254931
1.0650000000	1.3078554621
1.0700000000	1.3150792286
1.0750000000	1.3270206839
1.0800000000	1.3450148086
1.0850000000	1.3678899024
1.0900000000	1.4019778619
1.0950000000	1.4425144242
1.1000000000	1.4909211212
1.1050000000	1.5465819128
1.1100000000	1.6113131582
1.1150000000	1.6865502884
1.1200000000	1.7740526983
1.1250000000	1.8758350657
1.1300000000	1.9949336572
1.1350000000	2.1350170119
1.1400000000	2.3003305611
1.1450000000	2.4983217824
1.1500000000	2.7373388418
1.1550000000	3.0293340821
1.1600000000	3.3911665255
1.1650000000	3.8447752696
1.1700000000	4.4309363592
1.1750000000	5.2040623064
1.1800000000	6.2539817171
1.1850000000	7.7282623172
1.1900000000	9.9054257954
1.1950000000	13.3193260527
1.2000000000	19.1052793742
1.2050000000	30.0337367987
1.2100000000	54.0686801744
1.2150000000	119.0429768142
1.2200000000	291.9695337465
1.2250000000	262.5692887259
1.2300000000	105.0406755094
1.2350000000	49.5190273903
1.2400000000	28.4992601975
1.2450000000	18.8658503531
1.2500000000	13.8042090619
1.2550000000	10.9059813356
1.2600000000	9.1685015986
1.2650000000	8.1101769649
1.2700000000	7.5181400098
1.2750000000	7.2550387696
1.2800000000	7.2586851888
1.2850000000	7.5061593130
1.2900000000	8.0040687523
1.2950000000	8.7807383137
1.3000000000	9.9255530483
1.3050000000	11.5548322360
1.3100000000	13.8790912024
1.3150000000	17.2610555089
1.3200000000	22.3501933397
1.3250000000	30.3867299559
1.3300000000	44.0777849293
1.3350000000	69.7087735971
1.3400000000	124.4857313418
1.3450000000	260.4998920368
1.3500000000	553.3827160855
1.3550000000	516.4375344764
1.3600000000	238.2429136912
1.3650000000	117.0743232967
1.3700000000	67.1405955102
1.3750000000	43.1734298363
1.3800000000	30.1047590061
1.3850000000	22.2336047743
1.3900000000	17.1631675596
1.3950000000	13.7059617354
1.4000000000	11.2508623223
1.4050000000	9.4529882822
1.4100000000	8.1054838054
1.4150000000	7.0883885559
1.4200000000	6.3229646217
1.4250000000	5.8090579452
1.4300000000	5.6175011761
1.4350000000	5.7144441231
1.4400000000	4.3930224374
1.4450000000	0.3550315162
1.4500000000	-6.2109393493
1.4550000000	-1.7505398015
1.4600000000	7.4881415976
1.4650000000	4.0603926812
1.4700000000	-3.8046772955
1.4750000000	-16.6935315879
1.4800000000	-7.4286427081
1.4850000000	12.2186801140
1.4900000000	9.9041881278
1.4950000000	6.4108750006
1.5000000000	4.5044640152
1.5050000000	3.4778016840
1.5100000000	2.8925689131
1.5150000000	2.5370703143
1.5200000000	2.3073390790
1.5250000000	2.1645117392
1.5300000000	2.0553119865
1.5350000000	1.9799200847
1.5400000000	1.9301026360
1.5450000000	1.9014276916
1.5500000000	1.8910258303
1.5550000000	1.8989261580
1.5600000000	1.9301439082
1.5650000000	1.9819750255
1.5700000000	2.0661735942
1.5750000000	2.1969974374
1.5800000000	2.4012342793
1.5850000000	2.7310353892
1.5900000000	3.2962813099
1.5950000000	4.3401343476
1.6000000000	6.3762160209
1.6050000000	9.7426221926
1.6100000000	11.3020344824
1.6150000000	8.3805280095
1.6200000000	5.6400230863
1.6250000000	4.1939623648
1.6300000000	3.4685326764
1.6350000000	3.0957609300
1.6400000000	2.9076211111
1.6450000000	2.8260315323
1.6500000000	2.8119019049
1.6550000000	2.8469469781
1.6600000000	2.9202642086
1.6650000000	3.0269036399
1.6700000000	3.1650210073
1.6750000000	3.3346879439
1.6800000000	3.5374690013
1.6850000000	3.7757661032
1.6900000000	4.0517336348
1.6950000000	4.3616322111
1.7000000000	4.7005903506
1.7050000000	5.0492435285
1.7100000000	5.4479032469
1.7150000000	6.4277496847
1.7200000000	8.1411870684
1.7250000000	9.7165891082
1.7300000000	11.4115204781
1.7350000000	13.2732739280
1.7400000000	15.0976065372
1.7450000000	17.4398631563
1.7500000000	20.9829236459
1.7550000000	26.2572554537
1.7600000000	34.1490958353
1.7650000000	46.3146511648
1.7700000000	65.9112396560
1.7750000000	98.9262319777
1.7800000000	155.1826324738
1.7850000000	238.1464223571
1.7900000000	295.9485292401
1.7950000000	252.0018764638
1.8000000000	167.7109657190
1.8050000000	105.9107001729
1.8100000000	69.8273488321
1.8150000000	48.6775761149
1.8200000000	35.6617049515
1.8250000000	27.2234326127
1.8300000000	21.4940547016
1.8350000000	17.4499121499
1.8400000000	14.5034307576
1.8450000000	12.2981689677
1.8500000000	10.6094829534
1.8550000000	9.2967990703
1.8600000000	8.2620367544
1.8650000000	7.4385184932
1.8700000000	6.7787959267
1.8750000000	6.2479916410
1.8800000000	5.8183904230
1.8850000000	5.4654296534
1.8900000000	5.1607429890
1.8950000000	4.8619787444
1.9000000000	4.4960452442
1.9050000000	3.8056436842
1.9100000000	2.8538623491
1.9150000000	2.3330845178
1.9200000000	5.7879097893
1.9250000000	15.3919374039
1.9300000000	23.0096440852
1.9350000000	22.6641828149
1.9400000000	17.8315989524
1.9450000000	13.1451945332
1.9500000000	9.8543528857
1.9550000000	7.6977967812
1.9600000000	6.2725011700
1.9650000000	5.3185926642
1.9700000000	4.6297454239
1.9750000000	4.1247944642
1.9800000000	3.7393208652
1.9850000000	3.4265964873
1.9900000000	3.1508787280
1.9950000000	2.8809891511
2.0000000000	2.6123669254
2.0050000000	2.4409110764
2.0100000000	2.5393488096
2.0150000000	2.8103172040
2.0200000000	2.9776110254
2.0250000000	3.0224688892
2.0300000000	3.0331478596
2.0350000000	3.0521753278
2.0400000000	3.0954105557
2.0450000000	3.1669381752
2.0500000000	3.2694439570
2.0550000000	3.4053765588
2.0600000000	3.5747446753
2.0650000000	3.7672184349
2.0700000000	3.9571738152
2.0750000000	4.1253797652
2.0800000000	4.2887187307
2.0850000000	4.4821582057
2.0900000000	4.7290989986
2.0950000000	5.0393503754
2.1000000000	5.4233948923
2.1050000000	5.8777159788
2.1100000000	6.4342359295
2.1150000000	7.1162840007
2.1200000000	7.9565913521
2.1250000000	9.0010796623
2.1300000000	10.3144794609
2.1350000000	11.9892203819
2.1400000000	14.1587545647
2.1450000000	17.0182005106
2.1500000000	20.8518438764
2.1550000000	26.0620211254
2.1600000000	33.1636663070
2.1650000000	42.5928549078
2.1700000000	54.1753836739
2.1750000000	65.6917319745
2.1800000000	72.8102903275
2.1850000000	73.1876117955
2.1900000000	69.9642276348
2.1950000000	67.4604391517
2.2000000000	66.3547630272
2.2050000000	63.2517131648
2.2100000000	56.6502802607
2.2150000000	48.5286928976
2.2200000000	41.2353085269
2.2250000000	35.2105941663
2.2300000000	29.9147315510
2.2350000000	25.1350061338
2.2400000000	21.0334232816
2.2450000000	17.7525041804
2.2500000000	15.2367657905
2.2550000000	13.3456398102
2.2600000000	11.9281054799
2.2650000000	10.8331621737
2.2700000000	9.8979860737
2.2750000000	8.9625567588
2.2800000000	7.9577592255
2.2850000000	7.0038011663
2.2900000000	6.3465376310
2.2950000000	6.1245870842
2.3000000000	6.2085302972
2.3050000000	6.3343009981
2.3100000000	6.3462602387
2.3150000000	6.2457514512
2.3200000000	6.1001324035
2.3250000000	5.9789700255
2.3300000000	5.9178901039
2.3350000000	5.9231277001
2.3400000000	5.9750492095
2.3450000000	6.0290864074
2.3500000000	6.0291021657
2.3550000000	5.9392810266
2.3600000000	5.7697568753
2.3650000000	5.5648037918
2.3700000000	5.3700558377
2.3750000000	5.2127443611
2.3800000000	5.1016599017
2.3850000000	5.0342011995
2.3900000000	5.0045679436
2.3950000000	5.0060672786
2.4000000000	5.0405612209
2.4050000000	5.1192850979
2.4100000000	5.2460289143
2.4150000000	5.4260462840
2.4200000000	5.6625188710
2.4250000000	5.9609160986
2.4300000000	6.3291737014
2.4350000000	6.7779309338
2.4400000000	7.3209194233
2.4450000000	7.9756616972
2.4500000000	8.7642799617
2.4550000000	9.7145711788
2.4600000000	10.8606951570
2.4650000000	12.2436359986
2.4700000000	13.9103979673
2.4750000000	15.9080748833
2.4800000000	18.2853145755
2.4850000000	21.0613834467
2.4900000000	24.2091447041
2.4950000000	27.6158723859
2.5000000000	31.0431057959
2.5050000000	34.2483561916
2.5100000000	36.4121867127
2.5150000000	37.0623194258
2.5200000000	36.0869780135
2.5250000000	33.7872436148
2.5300000000	30.6863915116
2.5350000000	27.2883657845
2.5400000000	23.9486457371
2.5450000000	20.8677641915
2.5500000000	18.1347118102
2.5550000000	15.7696576083
2.5600000000	13.7400509609
2.5650000000	12.0335524023
2.5700000000	10.6100801555
2.5750000000	9.4445539613
2.5800000000	8.5182388716
2.5850000000	7.8107269904
2.5900000000	7.2884108504
2.5950000000	6.9040131681
2.6000000000	6.6083040290
2.6050000000	6.3981225443
2.6100000000	6.2160323460
2.6150000000	6.0591567035
2.6200000000	5.9306085093
2.6250000000	5.8338318979
2.6300000000	5.7711209449
2.6350000000	5.7436496755
2.6400000000	5.7520923277
2.6450000000	5.7970854996
2.6500000000	5.8798675046
2.6550000000	6.0007859626
2.6600000000	6.1617137734
2.6650000000	6.3645421240
2.6700000000	6.6115889792
2.6750000000	6.9056632523
2.6800000000	7.2498652585
2.6850000000	7.6473688674
2.6900000000	8.1007728789
2.6950000000	8.6115980910
2.7000000000	9.1793453790
2.7050000000	9.8686228348
2.7100000000	10.6210853814
2.7150000000	11.4221889123
2.7200000000	12.2507464187
2.7250000000	13.0800867590
2.7300000000	13.8800420200
2.7350000000	14.6186507158
2.7400000000	15.2625739166
2.7450000000	15.7821171981
2.7500000000	16.1312843255
2.7550000000	16.2821543925
2.7600000000	16.2135473687
2.7650000000	15.9229316712
2.7700000000	15.4298510657
2.7750000000	14.7735261136
2.7800000000	14.0050925600
2.7850000000	13.1788083051
2.7900000000	12.3433494295
2.7950000000	11.5377528552
2.8000000000	10.7896206269
2.8050000000	10.0326089494
2.8100000000	9.3846164027
2.8150000000	8.8439118225
2.8200000000	8.4018023433
2.8250000000	8.0468237289
2.8300000000	7.7674251105
2.8350000000	7.5537274261
2.8400000000	7.3953238954
2.8450000000	7.2925815775
2.8500000000	7.2379360350
2.8550000000	7.2285057918
2.8600000000	7.2621373205
2.8650000000	7.3368920268
2.8700000000	7.4506104222
2.8750000000	7.6005557391
2.8800000000	7.7831473833
2.8850000000	7.9937287673
2.8900000000	8.2267056240
2.8950000000	8.4757461965
2.9000000000	8.7341857378
2.9050000000	9.0450791733
2.9100000000	9.3435928846
2.9150000000	9.6203078607
2.9200000000	9.8653189756
2.9250000000	10.0673750985
2.9300000000	10.2161204855
2.9350000000	10.2954883609
2.9400000000	10.2985259142
2.9450000000	10.2222626267
2.9500000000	10.0711089522
2.9550000000	9.8565803366
2.9600000000	9.5953088844
2.9650000000	9.3061446943
2.9700000000	9.0073234606
2.9750000000	8.7144323138
2.9800000000	8.4394142831
2.9850000000	8.1904242308
2.9900000000	7.9723664278
2.9950000000	7.7875464083
3.0000000000	7.6364535390
