# energy (eV)    P(omega), $W$ = 300 nm, $h$ = 300 nm, $s$ = 20 nm, $d/W = 5$, $E_{\rm e}$ = 200 keV
0.2000000000	0.0559284933
0.2050000000	0.0567666794
0.2100000000	0.0575504952
0.2150000000	0.0582817113
0.2200000000	0.0589618344
0.2250000000	0.0595921458
0.2300000000	0.0601736221
0.2350000000	0.0607069107
0.2400000000	0.0611922518
0.2450000000	0.0616294570
0.2500000000	0.0620178027
0.2550000000	0.0623559127
0.2600000000	0.0626417246
0.2650000000	0.0628722430
0.2700000000	0.0630434130
0.2750000000	0.0631498612
0.2800000000	0.0631846134
0.2850000000	0.0631387049
0.2900000000	0.0630006515
0.2950000000	0.0627558841
0.3000000000	0.0623857907
0.3050000000	0.0618666553
0.3100000000	0.0611681150
0.3150000000	0.0646438526
0.3200000000	0.0687717297
0.3250000000	0.0739925781
0.3300000000	0.0809842793
0.3350000000	0.0896871946
0.3400000000	0.1010837852
0.3450000000	0.1149069474
0.3500000000	0.1329899196
0.3550000000	0.1569167887
0.3600000000	0.1881577750
0.3650000000	0.2317106818
0.3700000000	0.2891379664
0.3750000000	0.3690209166
0.3800000000	0.4845536583
0.3850000000	0.6645748059
0.3900000000	0.9489675397
0.3950000000	1.4320414437
0.4000000000	2.3529511734
0.4050000000	4.4176098578
0.4100000000	10.0512980647
0.4150000000	32.2572790971
0.4200000000	20.5525951851
0.4250000000	-38.6863845792
0.4300000000	10.7578000375
0.4350000000	6.7038585219
0.4400000000	4.0980965972
0.4450000000	2.6954400546
0.4500000000	1.8879634479
0.4550000000	1.3910464120
0.4600000000	1.0674065762
0.4650000000	0.8468640618
0.4700000000	0.6909878348
0.4750000000	0.5782542140
0.4800000000	0.4946711820
0.4850000000	0.4317768098
0.4900000000	0.3837676126
0.4950000000	0.3467476974
0.5000000000	0.3180540966
0.5050000000	0.2957330024
0.5100000000	0.2785262991
0.5150000000	0.2655077678
0.5200000000	0.2557093002
0.5250000000	0.2486946745
0.5300000000	0.2439956921
0.5350000000	0.2412699494
0.5400000000	0.2402650134
0.5450000000	0.2407699962
0.5500000000	0.2427181911
0.5550000000	0.2459907238
0.5600000000	0.2505268657
0.5650000000	0.2562993468
0.5700000000	0.2632833357
0.5750000000	0.2715276347
0.5800000000	0.2811115717
0.5850000000	0.2920869257
0.5900000000	0.3045540017
0.5950000000	0.3186389863
0.6000000000	0.3345026231
0.6050000000	0.3523778730
0.6100000000	0.3724870159
0.6150000000	0.3951337215
0.6200000000	0.4207230616
0.6250000000	0.4496434158
0.6300000000	0.4824688284
0.6350000000	0.5199147641
0.6400000000	0.5627256772
0.6450000000	0.6119761296
0.6500000000	0.6690789823
0.6550000000	0.7355050051
0.6600000000	0.8135146461
0.6650000000	0.9060084091
0.6700000000	1.0163961848
0.6750000000	1.1498779155
0.6800000000	1.3134462298
0.6850000000	1.5162616681
0.6900000000	1.7725121343
0.6950000000	2.1020407270
0.7000000000	2.5363680179
0.7050000000	3.1236811008
0.7100000000	3.9456271200
0.7150000000	5.1475476147
0.7200000000	7.0000247001
0.7250000000	10.0750294768
0.7300000000	15.7192631366
0.7350000000	27.7963540376
0.7400000000	60.9182999932
0.7450000000	202.0975200731
0.7500000000	626.1058945120
0.7550000000	157.5121944127
0.7600000000	52.1649543788
0.7650000000	24.9947397109
0.7700000000	14.5362005301
0.7750000000	9.4874664935
0.7800000000	6.6767990315
0.7850000000	4.9589128545
0.7900000000	3.8312036427
0.7950000000	3.0534439114
0.8000000000	2.4943379625
0.8050000000	2.0779266654
0.8100000000	1.7603882740
0.8150000000	1.5086690135
0.8200000000	1.3100043363
0.8250000000	1.1500411285
0.8300000000	1.0190056366
0.8350000000	0.9112698690
0.8400000000	0.8209555237
0.8450000000	0.7451698822
0.8500000000	0.6811090711
0.8550000000	0.6258270515
0.8600000000	0.5786346087
0.8650000000	0.5383243812
0.8700000000	0.5027068528
0.8750000000	0.4724092841
0.8800000000	0.4467014517
0.8850000000	0.4236529355
0.8900000000	0.4051648657
0.8950000000	0.3883463960
0.9000000000	0.3750180199
0.9050000000	0.3658406944
0.9100000000	0.3574306882
0.9150000000	0.3523319209
0.9200000000	0.3517244103
0.9250000000	0.3512753615
0.9300000000	0.3461279622
0.9350000000	0.3306681592
0.9400000000	0.2445159987
0.9450000000	-0.1470937501
0.9500000000	-2.2138240204
0.9550000000	-12.6967550237
0.9600000000	2.9959973788
0.9650000000	5.2629871316
0.9700000000	2.3343487019
0.9750000000	1.2254777066
0.9800000000	0.7680206788
0.9850000000	0.5540660691
0.9900000000	0.4307892398
0.9950000000	0.3560368813
1.0000000000	0.3083072881
1.0050000000	0.2780482341
1.0100000000	0.2545896552
1.0150000000	0.2374516446
1.0200000000	0.2259084993
1.0250000000	0.2162194131
1.0300000000	0.2088586675
1.0350000000	0.2032901549
1.0400000000	0.1997499141
1.0450000000	0.1968058096
1.0500000000	0.1948633886
1.0550000000	0.1938076618
1.0600000000	0.1938985873
1.0650000000	0.1944126276
1.0700000000	0.1956447409
1.0750000000	0.1976000654
1.0800000000	0.2004721224
1.0850000000	0.2041168100
1.0900000000	0.2094935541
1.0950000000	0.2158788340
1.1000000000	0.2234869980
1.1050000000	0.2322553703
1.1100000000	0.2424610618
1.1150000000	0.2543335037
1.1200000000	0.2681448483
1.1250000000	0.2842501858
1.1300000000	0.3031259064
1.1350000000	0.3253648108
1.1400000000	0.3516421260
1.1450000000	0.3831899594
1.1500000000	0.4213485639
1.1550000000	0.4680552969
1.1600000000	0.5260434282
1.1650000000	0.5988597129
1.1700000000	0.6931474789
1.1750000000	0.8177266140
1.1800000000	0.9871773678
1.1850000000	1.2254663027
1.1900000000	1.5777626875
1.1950000000	2.1307931042
1.2000000000	3.0688082726
1.2050000000	4.8414085755
1.2100000000	8.7407862537
1.2150000000	19.2808500569
1.2200000000	47.3192916642
1.2250000000	42.5143668880
1.2300000000	16.9594355911
1.2350000000	7.9547579045
1.2400000000	4.5440018511
1.2450000000	2.9779763154
1.2500000000	2.1518640165
1.2550000000	1.6751342564
1.2600000000	1.3850848440
1.2650000000	1.2034548217
1.2700000000	1.0952210043
1.2750000000	1.0376756655
1.2800000000	1.0200157050
1.2850000000	1.0375306341
1.2900000000	1.0898565168
1.2950000000	1.1797184950
1.3000000000	1.3182009124
1.3050000000	1.5195200202
1.3100000000	1.8101695171
1.3150000000	2.2359870884
1.3200000000	2.8793726057
1.3250000000	3.8973812906
1.3300000000	5.6339690792
1.3350000000	8.8866081283
1.3400000000	15.8384415368
1.3450000000	33.0965447890
1.3500000000	70.2397957847
1.3550000000	65.5093062770
1.3600000000	30.2096325393
1.3650000000	14.8431192112
1.3700000000	8.5123506437
1.3750000000	5.4742027152
1.3800000000	3.8176374172
1.3850000000	2.8197410320
1.3900000000	2.1765874343
1.3950000000	1.7377858169
1.4000000000	1.4256625090
1.4050000000	1.1964220766
1.4100000000	1.0235424753
1.4150000000	0.8911838450
1.4200000000	0.7881784068
1.4250000000	0.7115830842
1.4300000000	0.6629871447
1.4350000000	0.6310885397
1.4400000000	0.4343500658
1.4450000000	-0.1109692850
1.4500000000	-1.0594000786
1.4550000000	-0.3536155144
1.4600000000	1.0788640448
1.4650000000	0.6246304515
1.4700000000	-0.4001313399
1.4750000000	-2.0218116421
1.4800000000	-0.8920974272
1.4850000000	1.5277659961
1.4900000000	1.2367744253
1.4950000000	0.8023774593
1.5000000000	0.5648864789
1.5050000000	0.4363227405
1.5100000000	0.3627288005
1.5150000000	0.3176066811
1.5200000000	0.2880515871
1.5250000000	0.2692906964
1.5300000000	0.2545055637
1.5350000000	0.2437630449
1.5400000000	0.2359783621
1.5450000000	0.2305044620
1.5500000000	0.2268935072
1.5550000000	0.2249584092
1.5600000000	0.2250828970
1.5650000000	0.2264873804
1.5700000000	0.2299983194
1.5750000000	0.2362620135
1.5800000000	0.2465667977
1.5850000000	0.2634501887
1.5900000000	0.2922810446
1.5950000000	0.3449291786
1.6000000000	0.4464128026
1.6050000000	0.6129820564
1.6100000000	0.6907175738
1.6150000000	0.5504439219
1.6200000000	0.4203619179
1.6250000000	0.3542729173
1.6300000000	0.3239861123
1.6350000000	0.3115590654
1.6400000000	0.3088646168
1.6450000000	0.3121859784
1.6500000000	0.3197143839
1.6550000000	0.3307092073
1.6600000000	0.3447935195
1.6650000000	0.3619189151
1.6700000000	0.3822292629
1.6750000000	0.4060183876
1.6800000000	0.4337148576
1.6850000000	0.4658904590
1.6900000000	0.5032090065
1.6950000000	0.5460550813
1.7000000000	0.5953719958
1.7050000000	0.6524248865
1.7100000000	0.7215758465
1.7150000000	0.8378608824
1.7200000000	1.0135160330
1.7250000000	1.2033126851
1.7300000000	1.4289488343
1.7350000000	1.6730967091
1.7400000000	1.8985519135
1.7450000000	2.1827126254
1.7500000000	2.6182846719
1.7550000000	3.2715690724
1.7600000000	4.2516939764
1.7650000000	5.7637746028
1.7700000000	8.1995716042
1.7750000000	12.3021830184
1.7800000000	19.2896747506
1.7850000000	29.5866037358
1.7900000000	36.7441260254
1.7950000000	31.2636408369
1.8000000000	20.7869521659
1.8050000000	13.1122869456
1.8100000000	8.6333118017
1.8150000000	6.0087117228
1.8200000000	4.3936138742
1.8250000000	3.3463525659
1.8300000000	2.6349094954
1.8350000000	2.1322018286
1.8400000000	1.7652879086
1.8450000000	1.4898648274
1.8500000000	1.2779826819
1.8550000000	1.1121174332
1.8600000000	0.9799438120
1.8650000000	0.8729899507
1.8700000000	0.7850831964
1.8750000000	0.7114895064
1.8800000000	0.6481800841
1.8850000000	0.5912278574
1.8900000000	0.5357735226
1.8950000000	0.4744558996
1.9000000000	0.3948015201
1.9050000000	0.2560992176
1.9100000000	0.0569314169
1.9150000000	-0.1346610729
1.9200000000	0.0979034696
1.9250000000	1.0265272141
1.9300000000	1.7683372221
1.9350000000	1.7847724343
1.9400000000	1.4326178200
1.9450000000	1.0856691344
1.9500000000	0.8397701615
1.9550000000	0.6771243843
1.9600000000	0.5687423269
1.9650000000	0.4965222229
1.9700000000	0.4433625501
1.9750000000	0.4043816234
1.9800000000	0.3747950301
1.9850000000	0.3511716657
1.9900000000	0.3309572148
1.9950000000	0.3119862983
2.0000000000	0.2938700187
2.0050000000	0.2830954239
2.0100000000	0.2903358292
2.0150000000	0.3092188067
2.0200000000	0.3219723135
2.0250000000	0.3275078074
2.0300000000	0.3317220306
2.0350000000	0.3373434545
2.0400000000	0.3456975372
2.0450000000	0.3573455636
2.0500000000	0.3728574586
2.0550000000	0.3927999139
2.0600000000	0.4172055387
2.0650000000	0.4441302891
2.0700000000	0.4687344813
2.0750000000	0.4872393411
2.0800000000	0.5024568015
2.0850000000	0.5204960526
2.0900000000	0.5452440573
2.0950000000	0.5780497019
2.1000000000	0.6199487087
2.1050000000	0.6703117609
2.1100000000	0.7326476523
2.1150000000	0.8094719873
2.1200000000	0.9044017705
2.1250000000	1.0225691438
2.1300000000	1.1712453135
2.1350000000	1.3608338707
2.1400000000	1.6063601455
2.1450000000	1.9297864403
2.1500000000	2.3630956541
2.1550000000	2.9515238876
2.1600000000	3.7529485351
2.1650000000	4.8164194619
2.1700000000	6.1232436695
2.1750000000	7.4263600296
2.1800000000	8.2447364129
2.1850000000	8.3214189902
2.1900000000	8.0106646890
2.1950000000	7.7901844667
2.2000000000	7.7131626997
2.2050000000	7.3508310472
2.2100000000	6.5197058803
2.2150000000	5.4739679149
2.2200000000	4.5228209781
2.2250000000	3.7520675456
2.2300000000	3.1192085677
2.2350000000	2.5894569041
2.2400000000	2.1544370674
2.2450000000	1.8109204119
2.2500000000	1.5447162772
2.2550000000	1.3386998304
2.2600000000	1.1770136153
2.2650000000	1.0453608229
2.2700000000	0.9302052942
2.2750000000	0.8201041106
2.2800000000	0.7123937513
2.2850000000	0.6202226777
2.2900000000	0.5659949129
2.2950000000	0.5597587378
2.3000000000	0.5842302695
2.3050000000	0.6100264907
2.3100000000	0.6191347206
2.3150000000	0.6121198860
2.3200000000	0.5967691737
2.3250000000	0.5810864531
2.3300000000	0.5693209469
2.3350000000	0.5627127100
2.3400000000	0.5603278846
2.3450000000	0.5594502032
2.3500000000	0.5565811018
2.3550000000	0.5494855812
2.3600000000	0.5387819715
2.3650000000	0.5271964902
2.3700000000	0.5175001405
2.3750000000	0.5112332518
2.3800000000	0.5086435085
2.3850000000	0.5091128364
2.3900000000	0.5118516398
2.3950000000	0.5161029466
2.4000000000	0.5222435861
2.4050000000	0.5318743912
2.4100000000	0.5456748783
2.4150000000	0.5645841465
2.4200000000	0.5892500448
2.4250000000	0.6203673212
2.4300000000	0.6587888018
2.4350000000	0.7056078841
2.4400000000	0.7622316217
2.4450000000	0.8304641448
2.4500000000	0.9125919829
2.4550000000	1.0115003204
2.4600000000	1.1307363840
2.4650000000	1.2745768949
2.4700000000	1.4479426127
2.4750000000	1.6557953871
2.4800000000	1.9033707516
2.4850000000	2.1928426045
2.4900000000	2.5214974749
2.4950000000	2.8773455207
2.5000000000	3.2345046911
2.5050000000	3.5655283121
2.5100000000	3.7825793700
2.5150000000	3.8363859936
2.5200000000	3.7187102787
2.5250000000	3.4660471400
2.5300000000	3.1363887765
2.5350000000	2.7823480087
2.5400000000	2.4386480776
2.5450000000	2.1234094681
2.5500000000	1.8439294775
2.5550000000	1.6014615952
2.5600000000	1.3925472393
2.5650000000	1.2164257679
2.5700000000	1.0693575885
2.5750000000	0.9490832516
2.5800000000	0.8538755852
2.5850000000	0.7816963777
2.5900000000	0.7289817761
2.5950000000	0.6906166542
2.6000000000	0.6612539735
2.6050000000	0.6403019968
2.6100000000	0.6217260858
2.6150000000	0.6052771383
2.6200000000	0.5913413637
2.6250000000	0.5803147984
2.6300000000	0.5724514711
2.6350000000	0.5678732704
2.6400000000	0.5666442720
2.6450000000	0.5688295091
2.6500000000	0.5745626245
2.6550000000	0.5838734038
2.6600000000	0.5969661706
2.6650000000	0.6140353199
2.6700000000	0.6353097559
2.6750000000	0.6610572318
2.6800000000	0.6915640441
2.6850000000	0.7271230012
2.6900000000	0.7679931677
2.6950000000	0.8143728149
2.7000000000	0.8663346376
2.7050000000	0.9299583868
2.7100000000	1.0004064112
2.7150000000	1.0768188146
2.7200000000	1.1577507325
2.7250000000	1.2411477064
2.7300000000	1.3243506011
2.7350000000	1.4041049837
2.7400000000	1.4765396796
2.7450000000	1.5377919525
2.7500000000	1.5821255606
2.7550000000	1.6057435054
2.7600000000	1.6057783090
2.7650000000	1.5815983326
2.7700000000	1.5351293590
2.7750000000	1.4705296765
2.7800000000	1.3932876113
2.7850000000	1.3092407195
2.7900000000	1.2236188393
2.7950000000	1.1406139872
2.8000000000	1.0631923768
2.8050000000	0.9845513437
2.8100000000	0.9168545440
2.8150000000	0.8599505895
2.8200000000	0.8129506715
2.8250000000	0.7746730451
2.8300000000	0.7439257419
2.8350000000	0.7196942179
2.8400000000	0.7008991276
2.8450000000	0.6876063180
2.8500000000	0.6790227699
2.8550000000	0.6748487045
2.8600000000	0.6748630573
2.8650000000	0.6788780610
2.8700000000	0.6867108558
2.8750000000	0.6981525164
2.8800000000	0.7129477183
2.8850000000	0.7307730761
2.8900000000	0.7512427903
2.8950000000	0.7738992417
2.9000000000	0.7982395250
2.9050000000	0.8290175487
2.9100000000	0.8597771437
2.9150000000	0.8894201017
2.9200000000	0.9166857943
2.9250000000	0.9401193410
2.9300000000	0.9583656995
2.9350000000	0.9695239177
2.9400000000	0.9726884273
2.9450000000	0.9674166537
2.9500000000	0.9540699900
2.9550000000	0.9337836771
2.9600000000	0.9082459737
2.9650000000	0.8794005172
2.9700000000	0.8491487124
2.9750000000	0.8191298456
2.9800000000	0.7906116000
2.9850000000	0.7644700819
2.9900000000	0.7412452616
2.9950000000	0.7211988036
3.0000000000	0.7044066549
