# energy (eV)    P(omega), $W$ = 300 nm, $h$ = 300 nm, $s$ = 20 nm, $d/W = 5$, $E_{\rm e}$ = 200 keV
0.2000000000	0.1140132798
0.2050000000	0.1157215513
0.2100000000	0.1173185691
0.2150000000	0.1188079613
0.2200000000	0.1201928276
0.2250000000	0.1214757993
0.2300000000	0.1226588888
0.2350000000	0.1237434303
0.2400000000	0.1247299334
0.2450000000	0.1256180254
0.2500000000	0.1264062470
0.2550000000	0.1270918033
0.2600000000	0.1276704977
0.2650000000	0.1281362336
0.2700000000	0.1284807506
0.2750000000	0.1286931005
0.2800000000	0.1287590696
0.2850000000	0.1286603813
0.2900000000	0.1283736259
0.2950000000	0.1278690974
0.3000000000	0.1271088501
0.3050000000	0.1260445299
0.3100000000	0.1246142315
0.3150000000	0.1317012150
0.3200000000	0.1401179342
0.3250000000	0.1507635768
0.3300000000	0.1650207063
0.3350000000	0.1827670917
0.3400000000	0.2060062780
0.3450000000	0.2341926014
0.3500000000	0.2710644180
0.3550000000	0.3198512287
0.3600000000	0.3835496912
0.3650000000	0.4723496860
0.3700000000	0.5894337303
0.3750000000	0.7522960528
0.3800000000	0.9878331358
0.3850000000	1.3548340024
0.3900000000	1.9345950814
0.3950000000	2.9193572368
0.4000000000	4.7966115692
0.4050000000	9.0052607798
0.4100000000	20.4887713611
0.4150000000	65.7513313227
0.4200000000	41.8935505602
0.4250000000	-78.8494759974
0.4300000000	21.9247923631
0.4350000000	13.6620550935
0.4400000000	8.3512299851
0.4450000000	5.4925459397
0.4500000000	3.8469111586
0.4550000000	2.8342204138
0.4600000000	2.1746740077
0.4650000000	1.7252393232
0.4700000000	1.4075909379
0.4750000000	1.1778626378
0.4800000000	1.0075387163
0.4850000000	0.8793738431
0.4900000000	0.7815408679
0.4950000000	0.7061003079
0.5000000000	0.6476252495
0.5050000000	0.6021341123
0.5100000000	0.5670629469
0.5150000000	0.5405240579
0.5200000000	0.5205448601
0.5250000000	0.5062361417
0.5300000000	0.4966438509
0.5350000000	0.4910701319
0.5400000000	0.4890004769
0.5450000000	0.4900051027
0.5500000000	0.4939477272
0.5550000000	0.5005860043
0.5600000000	0.5097959277
0.5650000000	0.5215216854
0.5700000000	0.5357123462
0.5750000000	0.5524669848
0.5800000000	0.5719467015
0.5850000000	0.5942565057
0.5900000000	0.6196001731
0.5950000000	0.6482341413
0.6000000000	0.6804850618
0.6050000000	0.7168265944
0.6100000000	0.7577104867
0.6150000000	0.8037540655
0.6200000000	0.8557808315
0.6250000000	0.9145802920
0.6300000000	0.9813194783
0.6350000000	1.0574529278
0.6400000000	1.1444940208
0.6450000000	1.2446273712
0.6500000000	1.3607252888
0.6550000000	1.4957776888
0.6600000000	1.6543801269
0.6650000000	1.8424289633
0.6700000000	2.0668563420
0.6750000000	2.3382330950
0.6800000000	2.6707750900
0.6850000000	3.0831044757
0.6900000000	3.6040637779
0.6950000000	4.2739911696
0.7000000000	5.1569640535
0.7050000000	6.3509393151
0.7100000000	8.0218924625
0.7150000000	10.4652779951
0.7200000000	14.2311389991
0.7250000000	20.4821796652
0.7300000000	31.9559614316
0.7350000000	56.5063749907
0.7400000000	123.8361350350
0.7450000000	410.8191339305
0.7500000000	1272.7045812004
0.7550000000	320.1726305725
0.7600000000	106.0325273746
0.7650000000	50.8041560636
0.7700000000	29.5455380317
0.7750000000	19.2833168981
0.7800000000	13.5703265452
0.7850000000	10.0785730645
0.7900000000	7.7864312303
0.7950000000	6.2056011789
0.8000000000	5.0692064879
0.8050000000	4.2228504848
0.8100000000	3.5774603939
0.8150000000	3.0658527510
0.8200000000	2.6620796013
0.8250000000	2.3369679555
0.8300000000	2.0706518222
0.8350000000	1.8516916546
0.8400000000	1.6681400787
0.8450000000	1.5141170379
0.8500000000	1.3839235103
0.8550000000	1.2715724639
0.8600000000	1.1756622681
0.8650000000	1.0937387728
0.8700000000	1.0213529155
0.8750000000	0.9597782116
0.8800000000	0.9075304685
0.8850000000	0.8606875354
0.8900000000	0.8231108819
0.8950000000	0.7889277048
0.9000000000	0.7618355699
0.9050000000	0.7431764819
0.9100000000	0.7260771239
0.9150000000	0.7157043056
0.9200000000	0.7144542607
0.9250000000	0.7135268746
0.9300000000	0.7030590973
0.9350000000	0.6716518336
0.9400000000	0.4966915588
0.9450000000	-0.2985437919
0.9500000000	-4.4953000649
0.9550000000	-25.7817993892
0.9600000000	6.0835840719
0.9650000000	10.6866213894
0.9700000000	4.7399053411
0.9750000000	2.4883355294
0.9800000000	1.5594767814
0.9850000000	1.1250479942
0.9900000000	0.8747402347
0.9950000000	0.7229598612
1.0000000000	0.6260476993
1.0050000000	0.5646075812
1.0100000000	0.5169764318
1.0150000000	0.4821788485
1.0200000000	0.4587406650
1.0250000000	0.4390678497
1.0300000000	0.4241227551
1.0350000000	0.4128169457
1.0400000000	0.4056291703
1.0450000000	0.3996526152
1.0500000000	0.3957102913
1.0550000000	0.3935687406
1.0600000000	0.3937554746
1.0650000000	0.3948022391
1.0700000000	0.3973076449
1.0750000000	0.4012820848
1.0800000000	0.4071183765
1.0850000000	0.4145249137
1.0900000000	0.4254504829
1.0950000000	0.4384251755
1.1000000000	0.4538842899
1.1050000000	0.4717014637
1.1100000000	0.4924394286
1.1150000000	0.5165644944
1.1200000000	0.5446294048
1.1250000000	0.5773568258
1.1300000000	0.6157145742
1.1350000000	0.6609075515
1.1400000000	0.7143077999
1.1450000000	0.7784205586
1.1500000000	0.8559695669
1.1550000000	0.9508927071
1.1600000000	1.0687455932
1.1650000000	1.2167368321
1.1700000000	1.4083707470
1.1750000000	1.6615740371
1.1800000000	2.0059828337
1.1850000000	2.4903110876
1.1900000000	3.2063677480
1.1950000000	4.3304336772
1.2000000000	6.2370092779
1.2050000000	9.8399303119
1.2100000000	17.7656266134
1.2150000000	39.1886674415
1.2200000000	96.1767717337
1.2250000000	86.4085826618
1.2300000000	34.4676475505
1.2350000000	16.1656994637
1.2400000000	9.2333735550
1.2450000000	6.0503933394
1.2500000000	4.3712316511
1.2550000000	3.4021409510
1.2600000000	2.8124303912
1.2650000000	2.4430333471
1.2700000000	2.2227524359
1.2750000000	2.1054253395
1.2800000000	2.0690765034
1.2850000000	2.1041073659
1.2900000000	2.2097412277
1.2950000000	2.3914711807
1.3000000000	2.6717368062
1.3050000000	3.0793149051
1.3100000000	3.6678585269
1.3150000000	4.5302008076
1.3200000000	5.8332323204
1.3250000000	7.8950434157
1.3300000000	11.4122905216
1.3350000000	18.0001650948
1.3400000000	32.0803781860
1.3450000000	67.0347499755
1.3500000000	142.2636803241
1.3550000000	132.6813067727
1.3600000000	61.1857113321
1.3650000000	30.0627892031
1.3700000000	17.2406792823
1.3750000000	11.0873402001
1.3800000000	7.7322063600
1.3850000000	5.7111096836
1.3900000000	4.4084878928
1.3950000000	3.5197496408
1.4000000000	2.8875729547
1.4050000000	2.4232560871
1.4100000000	2.0730762694
1.4150000000	1.8049405053
1.4200000000	1.5962088536
1.4250000000	1.4408689081
1.4300000000	1.3420048423
1.4350000000	1.2765865151
1.4400000000	0.8774066964
1.4450000000	-0.2282375115
1.4500000000	-2.1523149066
1.4550000000	-0.7193348207
1.4600000000	2.1885572675
1.4650000000	1.2680157253
1.4700000000	-0.8082509246
1.4750000000	-4.0925126568
1.4800000000	-1.8054618910
1.4850000000	3.0940059885
1.4900000000	2.5046913559
1.4950000000	1.6250753761
1.5000000000	1.1441731803
1.5050000000	0.8838346305
1.5100000000	0.7348098813
1.5150000000	0.6434400360
1.5200000000	0.5835949084
1.5250000000	0.5456118771
1.5300000000	0.5156813136
1.5350000000	0.4939410018
1.5400000000	0.4781951203
1.5450000000	0.4671344831
1.5500000000	0.4598545024
1.5550000000	0.4559787180
1.5600000000	0.4562885729
1.5650000000	0.4592111716
1.5700000000	0.4664308990
1.5750000000	0.4792743220
1.5800000000	0.5003825080
1.5850000000	0.5349556572
1.5900000000	0.5939944510
1.5950000000	0.7018173979
1.6000000000	0.9096719749
1.6050000000	1.2507990352
1.6100000000	1.4098053619
1.6150000000	1.1221838667
1.6200000000	0.8555173241
1.6250000000	0.7199607202
1.6300000000	0.6577312073
1.6350000000	0.6320625392
1.6400000000	0.6263015461
1.6450000000	0.6328306922
1.6500000000	0.6479421253
1.6550000000	0.6701114246
1.6600000000	0.6985618703
1.6650000000	0.7331872833
1.6700000000	0.7742739078
1.6750000000	0.8224134339
1.6800000000	0.8784719536
1.6850000000	0.9436057065
1.6900000000	1.0191589391
1.6950000000	1.1059118571
1.7000000000	1.2057768645
1.7050000000	1.3213228703
1.7100000000	1.4613667286
1.7150000000	1.6967380700
1.7200000000	2.0522460414
1.7250000000	2.4365703563
1.7300000000	2.8935706551
1.7350000000	3.3880024186
1.7400000000	3.8444128631
1.7450000000	4.4196143823
1.7500000000	5.3013995610
1.7550000000	6.6240020070
1.7600000000	8.6083446445
1.7650000000	11.6696880079
1.7700000000	16.6011712778
1.7750000000	24.9072256552
1.7800000000	39.0538567115
1.7850000000	59.9004457765
1.7900000000	74.3907307912
1.7950000000	63.2945660578
1.8000000000	42.0836671767
1.8050000000	26.5458712904
1.8100000000	17.4779930567
1.8150000000	12.1644076170
1.8200000000	8.8946040386
1.8250000000	6.7744062011
1.8300000000	5.3340811530
1.8350000000	4.3163440119
1.8400000000	3.5735218683
1.8450000000	3.0159213763
1.8500000000	2.5869570505
1.8550000000	2.2511509181
1.8600000000	1.9835489718
1.8650000000	1.7669989352
1.8700000000	1.5890028458
1.8750000000	1.4399743719
1.8800000000	1.3117541416
1.8850000000	1.1963874799
1.8900000000	1.0840297878
1.8950000000	0.9597681803
1.9000000000	0.7983337284
1.9050000000	0.5172654251
1.9100000000	0.1136480921
1.9150000000	-0.2748688864
1.9200000000	0.1949035881
1.9250000000	2.0733817361
1.9300000000	3.5739726131
1.9350000000	3.6075326165
1.9400000000	2.8959414686
1.9450000000	2.1948299757
1.9500000000	1.6979019886
1.9550000000	1.3692052079
1.9600000000	1.1501647104
1.9650000000	1.0042101882
1.9700000000	0.8967676260
1.9750000000	0.8179817411
1.9800000000	0.7581842464
1.9850000000	0.7104417343
1.9900000000	0.6695931909
1.9950000000	0.6312638018
2.0000000000	0.5946671522
2.0050000000	0.5729072271
2.0100000000	0.5875364495
2.0150000000	0.6256857029
2.0200000000	0.6514636384
2.0250000000	0.6626724533
2.0300000000	0.6712230507
2.0350000000	0.6826264707
2.0400000000	0.6995636998
2.0450000000	0.7231730721
2.0500000000	0.7546120085
2.0550000000	0.7950314676
2.0600000000	0.8444970946
2.0650000000	0.8990595195
2.0700000000	0.9488881470
2.0750000000	0.9863057246
2.0800000000	1.0170191058
2.0850000000	1.0534308100
2.0900000000	1.1034292201
2.0950000000	1.1697478842
2.1000000000	1.2544790091
2.1050000000	1.3563441619
2.1100000000	1.4824407029
2.1150000000	1.6378553579
2.1200000000	1.8299046062
2.1250000000	2.0689700735
2.1300000000	2.3697619354
2.1350000000	2.7533272223
2.1400000000	3.2500638779
2.1450000000	3.9044043964
2.1500000000	4.7810530709
2.1550000000	5.9715271133
2.1600000000	7.5929166039
2.1650000000	9.7444488937
2.1700000000	12.3882957376
2.1750000000	15.0246169785
2.1800000000	16.6802355804
2.1850000000	16.8353457171
2.1900000000	16.2066762444
2.1950000000	15.7606648427
2.2000000000	15.6048187363
2.2050000000	14.8715330327
2.2100000000	13.1895705405
2.2150000000	11.0732800066
2.2200000000	9.1483893577
2.2250000000	7.5886690853
2.2300000000	6.3082529236
2.2350000000	5.2366983054
2.2400000000	4.3568948672
2.2450000000	3.6621906714
2.2500000000	3.1238310924
2.2550000000	2.7071680986
2.2600000000	2.3801310579
2.2650000000	2.1138138723
2.2700000000	1.8808561882
2.2750000000	1.6581380870
2.2800000000	1.4402934620
2.2850000000	1.2539207350
2.2900000000	1.1443204795
2.2950000000	1.1317954518
2.3000000000	1.1813697201
2.3050000000	1.2336081817
2.3100000000	1.2520739889
2.3150000000	1.2379144111
2.3200000000	1.2068842814
2.3250000000	1.1751758889
2.3300000000	1.1513854671
2.3350000000	1.1380230535
2.3400000000	1.1332014244
2.3450000000	1.1314290019
2.3500000000	1.1256320732
2.3550000000	1.1112917675
2.3600000000	1.0896582727
2.3650000000	1.0662435627
2.3700000000	1.0466498722
2.3750000000	1.0339907410
2.3800000000	1.0287654379
2.3850000000	1.0297220329
2.3900000000	1.0352615820
2.3950000000	1.0438520422
2.4000000000	1.0562565763
2.4050000000	1.0757141978
2.4100000000	1.1036023427
2.4150000000	1.1418221304
2.4200000000	1.1916841553
2.4250000000	1.2545935659
2.4300000000	1.3322744548
2.4350000000	1.4269371115
2.4400000000	1.5414262300
2.4450000000	1.6793895125
2.4500000000	1.8454501492
2.4550000000	2.0454411250
2.4600000000	2.2865354086
2.4650000000	2.5773797239
2.4700000000	2.9279248774
2.4750000000	3.3482040558
2.4800000000	3.8488063550
2.4850000000	4.4341306498
2.4900000000	5.0986947606
2.4950000000	5.8182579552
2.5000000000	6.5404831813
2.5050000000	7.2098658419
2.5100000000	7.6487714461
2.5150000000	7.7575574833
2.5200000000	7.5195702828
2.5250000000	7.0086203631
2.5300000000	6.3419865984
2.5350000000	5.6260617889
2.5400000000	4.9310572844
2.5450000000	4.2936101316
2.5500000000	3.7284724955
2.5550000000	3.2381776191
2.5600000000	2.8157315731
2.5650000000	2.4595967797
2.5700000000	2.1622120035
2.5750000000	1.9190085080
2.5800000000	1.7264934721
2.5850000000	1.5805453171
2.5900000000	1.4739571233
2.5950000000	1.3963850255
2.6000000000	1.3370166329
2.6050000000	1.2946547261
2.6100000000	1.2570965978
2.6150000000	1.2238384152
2.6200000000	1.1956609220
2.6250000000	1.1733643920
2.6300000000	1.1574619814
2.6350000000	1.1481994639
2.6400000000	1.1457064918
2.6450000000	1.1501146387
2.6500000000	1.1616942711
2.6550000000	1.1805058998
2.6600000000	1.2069624897
2.6650000000	1.2414568119
2.6700000000	1.2844516833
2.6750000000	1.3364881118
2.6800000000	1.3981444455
2.6850000000	1.4700130343
2.6900000000	1.5526178205
2.6950000000	1.6463599007
2.7000000000	1.7513870755
2.7050000000	1.8799886941
2.7100000000	2.0223882204
2.7150000000	2.1768484330
2.7200000000	2.3404499146
2.7250000000	2.5090407069
2.7300000000	2.6772457348
2.7350000000	2.8384852793
2.7400000000	2.9849316884
2.7450000000	3.1087735475
2.7500000000	3.1984116845
2.7550000000	3.2461680631
2.7600000000	3.2462442660
2.7650000000	3.1973632406
2.7700000000	3.1034187491
2.7750000000	2.9728184073
2.7800000000	2.8166586908
2.7850000000	2.6467419239
2.7900000000	2.4736415668
2.7950000000	2.3058325431
2.8000000000	2.1493114375
2.8050000000	1.9903269547
2.8100000000	1.8534680676
2.8150000000	1.7384282943
2.8200000000	1.6434103597
2.8250000000	1.5660249184
2.8300000000	1.5038620603
2.8350000000	1.4548702943
2.8400000000	1.4168675857
2.8450000000	1.3899864123
2.8500000000	1.3726239543
2.8550000000	1.3641739845
2.8600000000	1.3641896074
2.8650000000	1.3722918060
2.8700000000	1.3881108604
2.8750000000	1.4112245434
2.8800000000	1.4411175167
2.8850000000	1.4771363994
2.8900000000	1.5185010707
2.8950000000	1.5642876610
2.9000000000	1.6134791591
2.9050000000	1.6756863015
2.9100000000	1.7378586862
2.9150000000	1.7977763270
2.9200000000	1.8528901556
2.9250000000	1.9002588930
2.9300000000	1.9371424004
2.9350000000	1.9596983297
2.9400000000	1.9660952772
2.9450000000	1.9554385432
2.9500000000	1.9284591424
2.9550000000	1.8874514676
2.9600000000	1.8358282688
2.9650000000	1.7775188293
2.9700000000	1.7163660902
2.9750000000	1.6556839155
2.9800000000	1.5980347975
2.9850000000	1.5451896493
2.9900000000	1.4982395234
2.9950000000	1.4577137108
3.0000000000	1.4237655787
