# energy (eV)    P(omega), $W$ = 300 nm, $h$ = 300 nm, $s$ = 20 nm, $d/W = 5$, $E_{\rm e}$ = 200 keV
0.2000000000	0.2867802399
0.2050000000	0.2909008155
0.2100000000	0.2947739668
0.2150000000	0.2984074307
0.2200000000	0.3018078779
0.2250000000	0.3049808250
0.2300000000	0.3079303246
0.2350000000	0.3106589117
0.2400000000	0.3131673106
0.2450000000	0.3154538238
0.2500000000	0.3175146705
0.2550000000	0.3193425834
0.2600000000	0.3209269461
0.2650000000	0.3222529523
0.2700000000	0.3233003063
0.2750000000	0.3240424429
0.2800000000	0.3244449258
0.2850000000	0.3244637183
0.2900000000	0.3240422466
0.2950000000	0.3231091795
0.3000000000	0.3215726537
0.3050000000	0.3193166177
0.3100000000	0.3161920808
0.3150000000	0.3332319396
0.3200000000	0.3534720525
0.3250000000	0.3790579895
0.3300000000	0.4132964269
0.3350000000	0.4559283577
0.3400000000	0.5117613282
0.3450000000	0.5795408806
0.3500000000	0.6682451886
0.3550000000	0.7856757524
0.3600000000	0.9391183960
0.3650000000	1.1531341602
0.3700000000	1.4356045561
0.3750000000	1.8288290265
0.3800000000	2.3979498072
0.3850000000	3.2852898593
0.3900000000	4.6881487567
0.3950000000	7.0728107781
0.4000000000	11.6218613453
0.4050000000	21.8274927408
0.4100000000	49.6947176195
0.4150000000	159.6146953834
0.4200000000	101.5993525394
0.4250000000	-191.7849077531
0.4300000000	53.4436215699
0.4350000000	33.3463538644
0.4400000000	20.4153465964
0.4450000000	13.4498875154
0.4500000000	9.4374336486
0.4550000000	6.9667126875
0.4600000000	5.3566338755
0.4650000000	4.2588963429
0.4700000000	3.4826823214
0.4750000000	2.9211271279
0.4800000000	2.5046928824
0.4850000000	2.1913337984
0.4900000000	1.9521933555
0.4950000000	1.7678916995
0.5000000000	1.6251860255
0.5050000000	1.5143485731
0.5100000000	1.4291282300
0.5150000000	1.3649252144
0.5200000000	1.3169032947
0.5250000000	1.2829083187
0.5300000000	1.2606091304
0.5350000000	1.2483055392
0.5400000000	1.2447462205
0.5450000000	1.2488864292
0.5500000000	1.2604149272
0.5550000000	1.2787489229
0.5600000000	1.3036043485
0.5650000000	1.3348612270
0.5700000000	1.3724180078
0.5750000000	1.4165433216
0.5800000000	1.4676740398
0.5850000000	1.5260970846
0.5900000000	1.5923586262
0.5950000000	1.6671358972
0.6000000000	1.7512905296
0.6050000000	1.8460577100
0.6100000000	1.9526272576
0.6150000000	2.0726139655
0.6200000000	2.2081732076
0.6250000000	2.3613687503
0.6300000000	2.5352507910
0.6350000000	2.7336213630
0.6400000000	2.9604380180
0.6450000000	3.2214105301
0.6500000000	3.5240484202
0.6550000000	3.8761708363
0.6600000000	4.2897909120
0.6650000000	4.7803342788
0.6700000000	5.3659368866
0.6750000000	6.0742426894
0.6800000000	6.9424715675
0.6850000000	8.0193457289
0.6900000000	9.3803890706
0.6950000000	11.1311923584
0.7000000000	13.4395856741
0.7050000000	16.5621294794
0.7100000000	20.9336683365
0.7150000000	27.3283734251
0.7200000000	37.1878254114
0.7250000000	53.5598956682
0.7300000000	83.6223187806
0.7350000000	147.9717644687
0.7400000000	324.5219778736
0.7450000000	1077.3770075907
0.7500000000	3340.1757564611
0.7550000000	840.9215487199
0.7600000000	278.7049350471
0.7650000000	133.6421413005
0.7700000000	77.7821228348
0.7750000000	50.8063077974
0.7800000000	35.7831663139
0.7850000000	26.5977300317
0.7900000000	20.5658315376
0.7950000000	16.4042780745
0.8000000000	13.4116722584
0.8050000000	11.1820988663
0.8100000000	9.4813474208
0.8150000000	8.1326074673
0.8200000000	7.0678139223
0.8250000000	6.2102152274
0.8300000000	5.5074740629
0.8350000000	4.9295649515
0.8400000000	4.4449959785
0.8450000000	4.0382921991
0.8500000000	3.6944817091
0.8550000000	3.3977053887
0.8600000000	3.1443528084
0.8650000000	2.9279972400
0.8700000000	2.7367721199
0.8750000000	2.5741923822
0.8800000000	2.4363639640
0.8850000000	2.3127802335
0.8900000000	2.2139064348
0.8950000000	2.1239511154
0.9000000000	2.0529436897
0.9050000000	2.0045806009
0.9100000000	1.9602869598
0.9150000000	1.9340799090
0.9200000000	1.9325162293
0.9250000000	1.9316899044
0.9300000000	1.9046718224
0.9350000000	1.8200946531
0.9400000000	1.3426869471
0.9450000000	-0.8327663121
0.9500000000	-12.3249221842
0.9550000000	-70.6564695718
0.9600000000	16.6889016889
0.9650000000	29.3325019196
0.9700000000	13.0188075489
0.9750000000	6.8376340783
0.9800000000	4.2862632580
0.9850000000	3.0926509998
0.9900000000	2.4045697193
0.9950000000	1.9871947871
1.0000000000	1.7206503412
1.0050000000	1.5517398272
1.0100000000	1.4206460585
1.0150000000	1.3248179447
1.0200000000	1.2603010662
1.0250000000	1.2060080065
1.0300000000	1.1646712644
1.0350000000	1.1332886660
1.0400000000	1.1132437266
1.0450000000	1.0963914126
1.0500000000	1.0850515320
1.0550000000	1.0785745377
1.0600000000	1.0784586088
1.0650000000	1.0805350468
1.0700000000	1.0864871470
1.0750000000	1.0963346472
1.0800000000	1.1111808892
1.0850000000	1.1300549073
1.0900000000	1.1581860706
1.0950000000	1.1916397521
1.1000000000	1.2315900516
1.1050000000	1.2775250342
1.1100000000	1.3309447582
1.1150000000	1.3930332481
1.1200000000	1.4652429819
1.1250000000	1.5492330025
1.1300000000	1.6475088942
1.1350000000	1.7630968842
1.1400000000	1.8994996130
1.1450000000	2.0628571388
1.1500000000	2.2600566026
1.1550000000	2.5009557954
1.1600000000	2.7994599026
1.1650000000	3.1736646937
1.1700000000	3.6571986375
1.1750000000	4.2949405345
1.1800000000	5.1609767696
1.1850000000	6.3770148060
1.1900000000	8.1727715333
1.1950000000	10.9885410234
1.2000000000	15.7606879584
1.2050000000	24.7741726128
1.2100000000	44.5973870964
1.2150000000	98.1860531503
1.2200000000	240.8111546447
1.2250000000	216.5657416026
1.2300000000	86.6416264447
1.2350000000	40.8491937827
1.2400000000	23.5129883251
1.2450000000	15.5680658327
1.2500000000	11.3939378728
1.2550000000	9.0042683373
1.2600000000	7.5721001314
1.2650000000	6.7002490671
1.2700000000	6.2131992258
1.2750000000	5.9977118993
1.2800000000	6.0025677266
1.2850000000	6.2089670578
1.2900000000	6.6224999695
1.2950000000	7.2667213221
1.3000000000	8.2156938118
1.3050000000	9.5658250315
1.3100000000	11.4915122313
1.3150000000	14.2932311290
1.3200000000	18.5089557182
1.3250000000	25.1660333104
1.3300000000	36.5068175477
1.3350000000	57.7376832604
1.3400000000	103.1109429731
1.3450000000	215.7755987364
1.3500000000	458.3812542318
1.3550000000	427.7828161624
1.3600000000	197.3459503639
1.3650000000	96.9775209006
1.3700000000	55.6153753387
1.3750000000	35.7623531614
1.3800000000	24.9370100715
1.3850000000	18.4170146508
1.3900000000	14.2170023371
1.3950000000	11.3533162727
1.4000000000	9.3197558525
1.4050000000	7.8306507285
1.4100000000	6.7146887941
1.4150000000	5.8725687477
1.4200000000	5.2392057526
1.4250000000	4.8147973033
1.4300000000	4.6588435072
1.4350000000	4.7440802145
1.4400000000	3.6526264522
1.4450000000	0.3111021116
1.4500000000	-5.1155792663
1.4550000000	-1.4358201041
1.4600000000	6.1891370748
1.4650000000	3.3518311722
1.4700000000	-3.1602638841
1.4750000000	-13.8380908666
1.4800000000	-6.1586561795
1.4850000000	10.1238721236
1.4900000000	8.2064011181
1.4950000000	5.3118080297
1.5000000000	3.7321912248
1.5050000000	2.8816032098
1.5100000000	2.3967833978
1.5150000000	2.1023391342
1.5200000000	1.9121202786
1.5250000000	1.7939184838
1.5300000000	1.7036115507
1.5350000000	1.6413457396
1.5400000000	1.6003080563
1.5450000000	1.5768408875
1.5500000000	1.5685817975
1.5550000000	1.5755843407
1.5600000000	1.6020427893
1.5650000000	1.6457848901
1.5700000000	1.7166516491
1.5750000000	1.8266352209
1.5800000000	1.9982550109
1.5850000000	2.2753473721
1.5900000000	2.7502695791
1.5950000000	3.6274017188
1.6000000000	5.3384524846
1.6050000000	8.1675769928
1.6100000000	9.4778535932
1.6150000000	7.0217765998
1.6200000000	4.7177418433
1.6250000000	3.5016148329
1.6300000000	2.8910928933
1.6350000000	2.5768802283
1.6400000000	2.4177374001
1.6450000000	2.3480213301
1.6500000000	2.3348617298
1.6550000000	2.3628641869
1.6600000000	2.4228428382
1.6650000000	2.5106071671
1.6700000000	2.6245695309
1.6750000000	2.7647482674
1.6800000000	2.9324035775
1.6850000000	3.1294867891
1.6900000000	3.3577278989
1.6950000000	3.6139119960
1.7000000000	3.8937894747
1.7050000000	4.1808116145
1.7100000000	4.5084504501
1.7150000000	5.3210268100
1.7200000000	6.7458182105
1.7250000000	8.0521168839
1.7300000000	9.4546848482
1.7350000000	10.9957137839
1.7400000000	12.5074258881
1.7450000000	14.4489735099
1.7500000000	17.3852419736
1.7550000000	21.7557155069
1.7600000000	28.2948308370
1.7650000000	38.3749680007
1.7700000000	54.6123018369
1.7750000000	81.9679582388
1.7800000000	128.5813702007
1.7850000000	197.3250443231
1.7900000000	245.2214934686
1.7950000000	208.8101809144
1.8000000000	138.9684692533
1.8050000000	87.7613521390
1.8100000000	57.8628226795
1.8150000000	40.3381368356
1.8200000000	29.5532065485
1.8250000000	22.5612962937
1.8300000000	17.8140200521
1.8350000000	14.4631793588
1.8400000000	12.0219150938
1.8450000000	10.1948876894
1.8500000000	8.7959670767
1.8550000000	7.7086858317
1.8600000000	6.8517946286
1.8650000000	6.1700718910
1.8700000000	5.6242388616
1.8750000000	5.1854521063
1.8800000000	4.8308248759
1.8850000000	4.5401226392
1.8900000000	4.2900195937
1.8950000000	4.0457048738
1.9000000000	3.7470734610
1.9050000000	3.1821056337
1.9100000000	2.4043152103
1.9150000000	1.9897909582
1.9200000000	4.8786159011
1.9250000000	12.8714570539
1.9300000000	19.2104840365
1.9350000000	18.9163005935
1.9400000000	14.8790464721
1.9450000000	10.9646482746
1.9500000000	8.2162231321
1.9550000000	6.4153240929
1.9600000000	5.2252065347
1.9650000000	4.4286513944
1.9700000000	3.8535705440
1.9750000000	3.4320144832
1.9800000000	3.1101791339
1.9850000000	2.8490298305
1.9900000000	2.6186995326
1.9950000000	2.3931242376
2.0000000000	2.1685017193
2.0050000000	2.0250230519
2.0100000000	2.1072620518
2.0150000000	2.3337774678
2.0200000000	2.4734825996
2.0250000000	2.5106659311
2.0300000000	2.5191371739
2.0350000000	2.5344791805
2.0400000000	2.5699227146
2.0450000000	2.6288476116
2.0500000000	2.7134524080
2.0550000000	2.8257351229
2.0600000000	2.9656982922
2.0650000000	3.1248522845
2.0700000000	3.2821422105
2.0750000000	3.4217847231
2.0800000000	3.5576922783
2.0850000000	3.7186456122
2.0900000000	3.9239307229
2.0950000000	4.1816616435
2.1000000000	4.5005552643
2.1050000000	4.8777172338
2.1100000000	5.3396537915
2.1150000000	5.9057402703
2.1200000000	6.6031509759
2.1250000000	7.4700040701
2.1300000000	8.5600310402
2.1350000000	9.9499461393
2.1400000000	11.7505203325
2.1450000000	14.1237031252
2.1500000000	17.3054594285
2.1550000000	21.6297430382
2.1600000000	27.5239631571
2.1650000000	35.3500806175
2.1700000000	44.9633356878
2.1750000000	54.5210622360
2.1800000000	60.4270057375
2.1850000000	60.7351010002
2.1900000000	58.0519994365
2.1950000000	55.9648442623
2.2000000000	55.0400378604
2.2050000000	52.4658429219
2.2100000000	46.9984450853
2.2150000000	40.2754230272
2.2200000000	34.2396615979
2.2250000000	29.2518658809
2.2300000000	24.8615034149
2.2350000000	20.8934978541
2.2400000000	17.4858691832
2.2450000000	14.7594881315
2.2500000000	12.6693809710
2.2550000000	11.0990599763
2.2600000000	9.9230348186
2.2650000000	9.0156087324
2.2700000000	8.2409686212
2.2750000000	7.4653731554
2.2800000000	6.6307342901
2.2850000000	5.8368800381
2.2900000000	5.2886200876
2.2950000000	5.1017965119
2.3000000000	5.1693802356
2.3050000000	5.2721608465
2.3100000000	5.2810426117
2.3150000000	5.1970877486
2.3200000000	5.0761775023
2.3250000000	4.9760294613
2.3300000000	4.9261810688
2.3350000000	4.9317246631
2.3400000000	4.9761667484
2.3450000000	5.0221574466
2.3500000000	5.0226631965
2.3550000000	4.9476769224
2.3600000000	4.8056905647
2.3650000000	4.6338103440
2.3700000000	4.4702838286
2.3750000000	4.3379503914
2.3800000000	4.2442199065
2.3850000000	4.1869770311
2.3900000000	4.1614203894
2.3950000000	4.1619929289
2.4000000000	4.1902145559
2.4050000000	4.2553611863
2.4100000000	4.3605463110
2.4150000000	4.5100803848
2.4200000000	4.7065577226
2.4250000000	4.9545030642
2.4300000000	5.2605089830
2.4350000000	5.6334181076
2.4400000000	6.0846415088
2.4450000000	6.6287476418
2.4500000000	7.2841191665
2.4550000000	8.0738601245
2.4600000000	9.0263579683
2.4650000000	10.1756720055
2.4700000000	11.5608646938
2.4750000000	13.2210662786
2.4800000000	15.1966913607
2.4850000000	17.5037407284
2.4900000000	20.1196660893
2.4950000000	22.9508430665
2.5000000000	25.7992588382
2.5050000000	28.4637133868
2.5100000000	30.2635061529
2.5150000000	30.8060827518
2.5200000000	29.9980139981
2.5250000000	28.0887430776
2.5300000000	25.5126443991
2.5350000000	22.6885407749
2.5400000000	19.9122385233
2.5450000000	17.3508206957
2.5500000000	15.0785577667
2.5550000000	13.1123429602
2.5600000000	11.4251372510
2.5650000000	10.0066072934
2.5700000000	8.8233706415
2.5750000000	7.8545312841
2.5800000000	7.0844805206
2.5850000000	6.4962444035
2.5900000000	6.0618991250
2.5950000000	5.7421822191
2.6000000000	5.4962123839
2.6050000000	5.3214020254
2.6100000000	5.1700237100
2.6150000000	5.0396793771
2.6200000000	4.9329462088
2.6250000000	4.8526787520
2.6300000000	4.8007822047
2.6350000000	4.7782291937
2.6400000000	4.7855834060
2.6450000000	4.8233708595
2.6500000000	4.8926198925
2.6550000000	4.9936185723
2.6600000000	5.1279194053
2.6650000000	5.2970905113
2.6700000000	5.5030575363
2.6750000000	5.7481540452
2.6800000000	6.0349646165
2.6850000000	6.3661336272
2.6900000000	6.7438271260
2.6950000000	7.1693035226
2.7000000000	7.6421350640
2.7050000000	8.2161047812
2.7100000000	8.8425473336
2.7150000000	9.5092813045
2.7200000000	10.1985841700
2.7250000000	10.8881833471
2.7300000000	11.5529358268
2.7350000000	12.1662717833
2.7400000000	12.7005430864
2.7450000000	13.1311919223
2.7500000000	13.4201349130
2.7550000000	13.5443052941
2.7600000000	13.4862013222
2.7650000000	13.2437769689
2.7700000000	12.8332895806
2.7750000000	12.2873215749
2.7800000000	11.6483440910
2.7850000000	10.9614147550
2.7900000000	10.2669601737
2.7950000000	9.5973992264
2.8000000000	8.9756550552
2.8050000000	8.3465843523
2.8100000000	7.8081686254
2.8150000000	7.3589647086
2.8200000000	6.9917431928
2.8250000000	6.6969747380
2.8300000000	6.4650597854
2.8350000000	6.2877838135
2.8400000000	6.1564983384
2.8450000000	6.0715051931
2.8500000000	6.0265189556
2.8550000000	6.0191448727
2.8600000000	6.0475945163
2.8650000000	6.1102569313
2.8700000000	6.2053315283
2.8750000000	6.3305343331
2.8800000000	6.4828721026
2.8850000000	6.6584521351
2.8900000000	6.8525955816
2.8950000000	7.0600100386
2.9000000000	7.2751289344
2.9050000000	7.5336873007
2.9100000000	7.7817688078
2.9150000000	8.0115654083
2.9200000000	8.2148793715
2.9250000000	8.3824073247
2.9300000000	8.5055833399
2.9350000000	8.5710922279
2.9400000000	8.5731841579
2.9450000000	8.5094083579
2.9500000000	8.3834461656
2.9550000000	8.2048753376
2.9600000000	7.9875220631
2.9650000000	7.7470533113
2.9700000000	7.4986200788
2.9750000000	7.2551709631
2.9800000000	7.0266275672
2.9850000000	6.8197601323
2.9900000000	6.6386406688
2.9950000000	6.4851811642
3.0000000000	6.3597846419
