# energy (eV)    P(omega), $W$ = 300 nm, $h$ = 300 nm, $s$ = 20 nm, $d/W = 5$, $E_{\rm e}$ = 200 keV
0.2000000000	0.1250569505
0.2050000000	0.1268535375
0.2100000000	0.1285422433
0.2150000000	0.1301264423
0.2200000000	0.1316090436
0.2250000000	0.1329924531
0.2300000000	0.1342784383
0.2350000000	0.1354681040
0.2400000000	0.1365617672
0.2450000000	0.1375586870
0.2500000000	0.1384572156
0.2550000000	0.1392541847
0.2600000000	0.1399449652
0.2650000000	0.1405231016
0.2700000000	0.1409797461
0.2750000000	0.1413033147
0.2800000000	0.1414787923
0.2850000000	0.1414869798
0.2900000000	0.1413032106
0.2950000000	0.1408963827
0.3000000000	0.1402264423
0.3050000000	0.1392427896
0.3100000000	0.1378804642
0.3150000000	0.1453100438
0.3200000000	0.1541349765
0.3250000000	0.1652907552
0.3300000000	0.1802191384
0.3350000000	0.1988071987
0.3400000000	0.2231510843
0.3450000000	0.2527038437
0.3500000000	0.2913800856
0.3550000000	0.3425813621
0.3600000000	0.4094844235
0.3650000000	0.5027981941
0.3700000000	0.6259592032
0.3750000000	0.7974105947
0.3800000000	1.0455553662
0.3850000000	1.4324484003
0.3900000000	2.0441153729
0.3950000000	3.0838631975
0.4000000000	5.0673171735
0.4050000000	9.5171263650
0.4100000000	21.6676605650
0.4150000000	69.5944615841
0.4200000000	44.2987765281
0.4250000000	-83.6212063800
0.4300000000	23.3023096609
0.4350000000	14.5395795148
0.4400000000	8.9014520276
0.4450000000	5.8643986892
0.4500000000	4.1149029120
0.4550000000	3.0376276797
0.4600000000	2.3356064273
0.4650000000	1.8569743590
0.4700000000	1.5185318527
0.4750000000	1.2736842937
0.4800000000	1.0921118531
0.4850000000	0.9554819410
0.4900000000	0.8512126432
0.4950000000	0.7708540179
0.5000000000	0.7086319751
0.5050000000	0.6603050715
0.5100000000	0.6231476992
0.5150000000	0.5951542931
0.5200000000	0.5742161629
0.5250000000	0.5593940699
0.5300000000	0.5496715902
0.5350000000	0.5443074190
0.5400000000	0.5427559499
0.5450000000	0.5445616787
0.5500000000	0.5495888841
0.5550000000	0.5575834674
0.5600000000	0.5684215940
0.5650000000	0.5820509495
0.5700000000	0.5984272465
0.5750000000	0.6176676521
0.5800000000	0.6399626352
0.5850000000	0.6654373354
0.5900000000	0.6943298817
0.5950000000	0.7269355901
0.6000000000	0.7636301727
0.6050000000	0.8049522157
0.6100000000	0.8514205218
0.6150000000	0.9037392086
0.6200000000	0.9628481129
0.6250000000	1.0296470991
0.6300000000	1.1054661924
0.6350000000	1.1919632148
0.6400000000	1.2908638182
0.6450000000	1.4046576576
0.6500000000	1.5366192559
0.6550000000	1.6901580383
0.6600000000	1.8705121292
0.6650000000	2.0844078642
0.6700000000	2.3397530991
0.6750000000	2.6486017362
0.6800000000	3.0271831867
0.6850000000	3.4967422579
0.6900000000	4.0902102984
0.6950000000	4.8536292027
0.7000000000	5.8601796725
0.7050000000	7.2217323012
0.7100000000	9.1278970350
0.7150000000	11.9162438763
0.7200000000	16.2153600941
0.7250000000	23.3542427029
0.7300000000	36.4626763394
0.7350000000	64.5216527681
0.7400000000	141.5047600687
0.7450000000	469.7804978701
0.7500000000	1456.4546611811
0.7550000000	366.6768610704
0.7600000000	121.5270858738
0.7650000000	58.2736575964
0.7700000000	33.9163490010
0.7750000000	22.1537578187
0.7800000000	15.6030334608
0.7850000000	11.5977931483
0.7900000000	8.9676283665
0.7950000000	7.1530128173
0.8000000000	5.8481081486
0.8050000000	4.8759179691
0.8100000000	4.1343166819
0.8150000000	3.5462073852
0.8200000000	3.0819109023
0.8250000000	2.7079603279
0.8300000000	2.4015342933
0.8350000000	2.1495405370
0.8400000000	1.9382471002
0.8450000000	1.7609061877
0.8500000000	1.6109896934
0.8550000000	1.4815820127
0.8600000000	1.3711090471
0.8650000000	1.2767685243
0.8700000000	1.1933859047
0.8750000000	1.1224940110
0.8800000000	1.0623948782
0.8850000000	1.0085070422
0.8900000000	0.9653939914
0.8950000000	0.9261697478
0.9000000000	0.8952077793
0.9050000000	0.8741200033
0.9100000000	0.8548066333
0.9150000000	0.8433800278
0.9200000000	0.8426993900
0.9250000000	0.8423401651
0.9300000000	0.8305594300
0.9350000000	0.7936787513
0.9400000000	0.5854968457
0.9450000000	-0.3631502478
0.9500000000	-5.3745259147
0.9550000000	-30.8111432814
0.9600000000	7.2775476721
0.9650000000	12.7910561641
0.9700000000	5.6771354858
0.9750000000	2.9817051008
0.9800000000	1.8691252884
0.9850000000	1.3486248726
0.9900000000	1.0485718990
0.9950000000	0.8665662483
1.0000000000	0.7503335447
1.0050000000	0.6766763462
1.0100000000	0.6195098569
1.0150000000	0.5777217151
1.0200000000	0.5495875868
1.0250000000	0.5259116695
1.0300000000	0.5078855979
1.0350000000	0.4942002098
1.0400000000	0.4854588568
1.0450000000	0.4781095947
1.0500000000	0.4731640669
1.0550000000	0.4703390306
1.0600000000	0.4702878344
1.0650000000	0.4711925015
1.0700000000	0.4737870999
1.0750000000	0.4780802359
1.0800000000	0.4845530653
1.0850000000	0.4927820227
1.0900000000	0.5050473752
1.0950000000	0.5196334221
1.1000000000	0.5370521296
1.1050000000	0.5570800891
1.1100000000	0.5803714029
1.1150000000	0.6074422702
1.1200000000	0.6389260081
1.1250000000	0.6755457729
1.1300000000	0.7183939945
1.1350000000	0.7687900583
1.1400000000	0.8282610692
1.1450000000	0.8994837835
1.1500000000	0.9854609071
1.1550000000	1.0904901268
1.1600000000	1.2206337270
1.1650000000	1.3837809968
1.1700000000	1.5945927890
1.1750000000	1.8726350743
1.1800000000	2.2502071856
1.1850000000	2.7803698907
1.1900000000	3.5632729379
1.1950000000	4.7908708000
1.2000000000	6.8713899771
1.2050000000	10.8010034870
1.2100000000	19.4433297878
1.2150000000	42.8063730411
1.2200000000	104.9866382752
1.2250000000	94.4164778725
1.2300000000	37.7735167922
1.2350000000	17.8094136080
1.2400000000	10.2513719345
1.2450000000	6.7876534571
1.2500000000	4.9678943169
1.2550000000	3.9261124932
1.2600000000	3.3017804657
1.2650000000	2.9217392364
1.2700000000	2.7094720728
1.2750000000	2.6156129844
1.2800000000	2.6178359173
1.2850000000	2.7079508722
1.2900000000	2.8884028340
1.2950000000	3.1694721990
1.3000000000	3.5834673299
1.3050000000	4.1724459364
1.3100000000	5.0124838504
1.3150000000	6.2346540947
1.3200000000	8.0736287515
1.3250000000	10.9775537646
1.3300000000	15.9245747998
1.3350000000	25.1857871563
1.3400000000	44.9782616043
1.3450000000	94.1242422610
1.3500000000	199.9525093041
1.3550000000	186.6052752449
1.3600000000	86.0853356322
1.3650000000	42.3031026511
1.3700000000	24.2602957428
1.3750000000	15.6000986235
1.3800000000	10.8779154046
1.3850000000	8.0337931783
1.3900000000	6.2016855921
1.3950000000	4.9525054659
1.4000000000	4.0654414709
1.4050000000	3.4158804002
1.4100000000	2.9290955266
1.4150000000	2.5617742979
1.4200000000	2.2855345991
1.4250000000	2.1004834695
1.4300000000	2.0326288674
1.4350000000	2.0701269588
1.4400000000	1.5942099945
1.4450000000	0.1367688337
1.4500000000	-2.2297051611
1.4550000000	-0.6254497648
1.4600000000	2.6989826558
1.4650000000	1.4614264464
1.4700000000	-1.3790799979
1.4750000000	-6.0370090977
1.4800000000	-2.6868116253
1.4850000000	4.4163699093
1.4900000000	3.5799211378
1.4950000000	2.3171961125
1.5000000000	1.6281145550
1.5050000000	1.2570656556
1.5100000000	1.0455778444
1.5150000000	0.9171399189
1.5200000000	0.8341699800
1.5250000000	0.7826172860
1.5300000000	0.7432356978
1.5350000000	0.7160889200
1.5400000000	0.6982056129
1.5450000000	0.6879913374
1.5500000000	0.6844167603
1.5550000000	0.6875075469
1.5600000000	0.6990964821
1.5650000000	0.7182413136
1.5700000000	0.7492431264
1.5750000000	0.7973474528
1.5800000000	0.8724036765
1.5850000000	0.9935842143
1.5900000000	1.2012824015
1.5950000000	1.5848853839
1.6000000000	2.3332041288
1.6050000000	3.5705119424
1.6100000000	4.1435297793
1.6150000000	3.0692990500
1.6200000000	2.0615635764
1.6250000000	1.5296275853
1.6300000000	1.2625503782
1.6350000000	1.1250580548
1.6400000000	1.0553775243
1.6450000000	1.0247982016
1.6500000000	1.0189429753
1.6550000000	1.0310769339
1.6600000000	1.0571809123
1.6650000000	1.0954198465
1.6700000000	1.1450964449
1.6750000000	1.2062155339
1.6800000000	1.2793240937
1.6850000000	1.3652703785
1.6900000000	1.4648049954
1.6950000000	1.5765169721
1.7000000000	1.6985367837
1.7050000000	1.8236084438
1.7100000000	1.9663378940
1.7150000000	2.3208571454
1.7200000000	2.9427649400
1.7250000000	3.5126874434
1.7300000000	4.1244066469
1.7350000000	4.7965413510
1.7400000000	5.4560017645
1.7450000000	6.3030173080
1.7500000000	7.5839451286
1.7550000000	9.4904980767
1.7600000000	12.3430677555
1.7650000000	16.7403340976
1.7700000000	23.8235579383
1.7750000000	35.7569418001
1.7800000000	56.0911736612
1.7850000000	86.0793691653
1.7900000000	106.9734396246
1.7950000000	91.0898289307
1.8000000000	60.6227329847
1.8050000000	38.2845773890
1.8100000000	25.2418862520
1.8150000000	17.5970569563
1.8200000000	12.8923264824
1.8250000000	9.8422346719
1.8300000000	7.7713275573
1.8350000000	6.3095939368
1.8400000000	5.2446505976
1.8450000000	4.4476614724
1.8500000000	3.8374313982
1.8550000000	3.3631543789
1.8600000000	2.9893883433
1.8650000000	2.6920458651
1.8700000000	2.4539949239
1.8750000000	2.2626571823
1.8800000000	2.1080542903
1.8850000000	1.9813678693
1.8900000000	1.8724353532
1.8950000000	1.7660914580
1.9000000000	1.6361496490
1.9050000000	1.3902054709
1.9100000000	1.0516928233
1.9150000000	0.8720914525
1.9200000000	2.1341745026
1.9250000000	5.6234196443
1.9300000000	8.3906453362
1.9350000000	8.2617397801
1.9400000000	6.4981849568
1.9450000000	4.7883490410
1.9500000000	3.5878401491
1.9550000000	2.8012239329
1.9600000000	2.2814000935
1.9650000000	1.9334746453
1.9700000000	1.6822962392
1.9750000000	1.4981729001
1.9800000000	1.3576028565
1.9850000000	1.2435351653
1.9900000000	1.1429228112
1.9950000000	1.0443792360
2.0000000000	0.9462441507
2.0050000000	0.8835521875
2.0100000000	0.9194762284
2.0150000000	1.0184336556
2.0200000000	1.0794562426
2.0250000000	1.0956781315
2.0300000000	1.0993466405
2.0350000000	1.1060091500
2.0400000000	1.1214438951
2.0450000000	1.1471251091
2.0500000000	1.1840100516
2.0550000000	1.2329682486
2.0600000000	1.2940004552
2.0650000000	1.3634075442
2.0700000000	1.4320157995
2.0750000000	1.4929495604
2.0800000000	1.5522731114
2.0850000000	1.6225293225
2.0900000000	1.7121248567
2.0950000000	1.8245984836
2.1000000000	1.9637548066
2.1050000000	2.1283324110
2.1100000000	2.3298979230
2.1150000000	2.5769064576
2.1200000000	2.8812159382
2.1250000000	3.2594592499
2.1300000000	3.7350823533
2.1350000000	4.3415590846
2.1400000000	5.1272244625
2.1450000000	6.1627447491
2.1500000000	7.5510831610
2.1550000000	9.4379604985
2.1600000000	12.0098764627
2.1650000000	15.4247726808
2.1700000000	19.6194698872
2.1750000000	23.7898909232
2.1800000000	26.3667435910
2.1850000000	26.5007948471
2.1900000000	25.3294517749
2.1950000000	24.4180499139
2.2000000000	24.0139753884
2.2050000000	22.8908158541
2.2100000000	20.5059873130
2.2150000000	17.5737217655
2.2200000000	14.9413312347
2.2250000000	12.7658532044
2.2300000000	10.8505201006
2.2350000000	9.1190446484
2.2400000000	7.6319079798
2.2450000000	6.4420374682
2.2500000000	5.5298871055
2.2550000000	4.8446415840
2.2600000000	4.3315336021
2.2650000000	3.9356892721
2.2700000000	3.5977979349
2.2750000000	3.2594338062
2.2800000000	2.8951970901
2.2850000000	2.5486515176
2.2900000000	2.3092205453
2.2950000000	2.2275097597
2.3000000000	2.2568463394
2.3050000000	2.3015764806
2.3100000000	2.3053764401
2.3150000000	2.2687060234
2.3200000000	2.2159470241
2.3250000000	2.1722826385
2.3300000000	2.1505990483
2.3350000000	2.1531120006
2.3400000000	2.1726094763
2.3450000000	2.1927664999
2.3500000000	2.1930263355
2.3550000000	2.1602739906
2.3600000000	2.0982211178
2.3650000000	2.0230865683
2.3700000000	1.9515881011
2.3750000000	1.8937098153
2.3800000000	1.8526936775
2.3850000000	1.8276197961
2.3900000000	1.8163939207
2.3950000000	1.8165910114
2.4000000000	1.8288723148
2.4050000000	1.8572816193
2.4100000000	1.9031752520
2.4150000000	1.9684302985
2.4200000000	2.0541751987
2.4250000000	2.1623831120
2.4300000000	2.2959310332
2.4350000000	2.4586782493
2.4400000000	2.6556048153
2.4450000000	2.8930694108
2.4500000000	3.1790945980
2.4550000000	3.5237640397
2.4600000000	3.9394668593
2.4650000000	4.4410676511
2.4700000000	5.0456146018
2.4750000000	5.7701850285
2.4800000000	6.6324164355
2.4850000000	7.6392917378
2.4900000000	8.7809709744
2.4950000000	10.0165980563
2.5000000000	11.2597657706
2.5050000000	12.4226875630
2.5100000000	13.2083024502
2.5150000000	13.4452795091
2.5200000000	13.0928012012
2.5250000000	12.2596749428
2.5300000000	11.1354396370
2.5350000000	9.9028868590
2.5400000000	8.6911461324
2.5450000000	7.5731715361
2.5500000000	6.5814014537
2.5550000000	5.7232187877
2.5600000000	4.9868237163
2.5650000000	4.3677004718
2.5700000000	3.8512741538
2.5750000000	3.4284209654
2.5800000000	3.0923256868
2.5850000000	2.8355791928
2.5900000000	2.6459949318
2.5950000000	2.5064394511
2.6000000000	2.3990730980
2.6050000000	2.3227695396
2.6100000000	2.2566992365
2.6150000000	2.1998149696
2.6200000000	2.1532408311
2.6250000000	2.1182219523
2.6300000000	2.0955897239
2.6350000000	2.0857683676
2.6400000000	2.0890041613
2.6450000000	2.1055264210
2.6500000000	2.1357838361
2.6550000000	2.1799020425
2.6600000000	2.2385582225
2.6650000000	2.3124363821
2.6700000000	2.4023767724
2.6750000000	2.5093977359
2.6800000000	2.6346278898
2.6850000000	2.7792218688
2.6900000000	2.9441256000
2.6950000000	3.1298879611
2.7000000000	3.3363213934
2.7050000000	3.5869052912
2.7100000000	3.8603872910
2.7150000000	4.1514438852
2.7200000000	4.4523316848
2.7250000000	4.7533220895
2.7300000000	5.0434364057
2.7350000000	5.3110781164
2.7400000000	5.5441850435
2.7450000000	5.7320484817
2.7500000000	5.8580583437
2.7550000000	5.9121580076
2.7600000000	5.8867167102
2.7650000000	5.7808459716
2.7700000000	5.6016421807
2.7750000000	5.3633244554
2.7800000000	5.0844266813
2.7850000000	4.7846108644
2.7900000000	4.4815184872
2.7950000000	4.1892964110
2.8000000000	3.9179478237
2.8050000000	3.6434059249
2.8100000000	3.4084328705
2.8150000000	3.2123983590
2.8200000000	3.0521468267
2.8250000000	2.9235191768
2.8300000000	2.8223258307
2.8350000000	2.7449813631
2.8400000000	2.6877112754
2.8450000000	2.6506470752
2.8500000000	2.6310456919
2.8550000000	2.6278619770
2.8600000000	2.6403155216
2.8650000000	2.6677033442
2.8700000000	2.7092391593
2.8750000000	2.7639254975
2.8800000000	2.8304546826
2.8850000000	2.9071260880
2.8900000000	2.9918955008
2.8950000000	3.0824508095
2.9000000000	3.1763604741
2.9050000000	3.2892168662
2.9100000000	3.3974865590
2.9150000000	3.4977633919
2.9200000000	3.5864722444
2.9250000000	3.6595564159
2.9300000000	3.7132804983
2.9350000000	3.7418361930
2.9400000000	3.7427162285
2.9450000000	3.7148523783
2.9500000000	3.6598524851
2.9550000000	3.5818971555
2.9600000000	3.4870208613
2.9650000000	3.3820612212
2.9700000000	3.2736302775
2.9750000000	3.1673787609
2.9800000000	3.0676364918
2.9850000000	2.9773576346
2.9900000000	2.8983190581
2.9950000000	2.8313549448
3.0000000000	2.7766408800
