# energy (eV)    P(omega), $W$ = 300 nm, $h$ = 300 nm, $s$ = 20 nm, $d/W = 5$, $E_{\rm e}$ = 200 keV
0.2000000000	0.0485272201
0.2050000000	0.0492661988
0.2100000000	0.0499529262
0.2150000000	0.0505891473
0.2200000000	0.0511764326
0.2250000000	0.0517160791
0.2300000000	0.0522091223
0.2350000000	0.0526562833
0.2400000000	0.0530579292
0.2450000000	0.0534140086
0.2500000000	0.0537240016
0.2550000000	0.0539867897
0.2600000000	0.0542006325
0.2650000000	0.0543629428
0.2700000000	0.0544702048
0.2750000000	0.0545177097
0.2800000000	0.0544993175
0.2850000000	0.0544071034
0.2900000000	0.0542309312
0.2950000000	0.0539578856
0.3000000000	0.0535714831
0.3050000000	0.0530507170
0.3100000000	0.0523686815
0.3150000000	0.0554528447
0.3200000000	0.0591155041
0.3250000000	0.0637512564
0.3300000000	0.0699653039
0.3350000000	0.0776979078
0.3400000000	0.0878235106
0.3450000000	0.1000939711
0.3500000000	0.1161391206
0.3550000000	0.1373587193
0.3600000000	0.1650436055
0.3650000000	0.2036193835
0.3700000000	0.2544328445
0.3750000000	0.3250599143
0.3800000000	0.4271293109
0.3850000000	0.5860690336
0.3900000000	0.8369587649
0.3950000000	1.2627929747
0.4000000000	2.0740044775
0.4050000000	3.8914367516
0.4100000000	8.8467351836
0.4150000000	28.3638003336
0.4200000000	18.0838729824
0.4250000000	-33.9443515213
0.4300000000	9.4205423492
0.4350000000	5.8628190725
0.4400000000	3.5786110858
0.4450000000	2.3499734799
0.4500000000	1.6431690495
0.4550000000	1.2084862542
0.4600000000	0.9255494920
0.4650000000	0.7328499432
0.4700000000	0.5967169292
0.4750000000	0.4982959449
0.4800000000	0.4253396519
0.4850000000	0.3704416433
0.4900000000	0.3285254514
0.4950000000	0.2961847171
0.5000000000	0.2710906735
0.5050000000	0.2515365221
0.5100000000	0.2364213472
0.5150000000	0.2249338332
0.5200000000	0.2162313332
0.5250000000	0.2099295323
0.5300000000	0.2056198444
0.5350000000	0.2030021562
0.5400000000	0.2018549100
0.5450000000	0.2019931105
0.5500000000	0.2033545428
0.5550000000	0.2058337615
0.5600000000	0.2093745700
0.5650000000	0.2139501089
0.5700000000	0.2195344725
0.5750000000	0.2261658180
0.5800000000	0.2339058944
0.5850000000	0.2427941774
0.5900000000	0.2529098947
0.5950000000	0.2643544970
0.6000000000	0.2772567362
0.6050000000	0.2918065872
0.6100000000	0.3081828847
0.6150000000	0.3266319475
0.6200000000	0.3474826109
0.6250000000	0.3710497953
0.6300000000	0.3977999450
0.6350000000	0.4283142306
0.6400000000	0.4631965905
0.6450000000	0.5033202543
0.6500000000	0.5498324439
0.6550000000	0.6039267072
0.6600000000	0.6674391506
0.6650000000	0.7427231764
0.6700000000	0.8325450639
0.6750000000	0.9411253876
0.6800000000	1.0741371364
0.6850000000	1.2390090096
0.6900000000	1.4472460881
0.6950000000	1.7149355271
0.7000000000	2.0676273669
0.7050000000	2.5443707595
0.7100000000	3.2113171727
0.7150000000	4.1862073241
0.7200000000	5.6881769003
0.7250000000	8.1803590458
0.7300000000	12.7529517575
0.7350000000	22.5329344321
0.7400000000	49.3433652033
0.7450000000	163.5656898280
0.7500000000	506.3242816577
0.7550000000	127.2753312458
0.7600000000	42.1169342658
0.7650000000	20.1638688734
0.7700000000	11.7171624737
0.7750000000	7.6413059398
0.7800000000	5.3731691427
0.7850000000	3.9874270998
0.7900000000	3.0781123931
0.7950000000	2.4512171938
0.8000000000	2.0007329096
0.8050000000	1.6653472068
0.8100000000	1.4096902797
0.8150000000	1.2071150590
0.8200000000	1.0472894122
0.8250000000	0.9186413563
0.8300000000	0.8132951710
0.8350000000	0.7267026920
0.8400000000	0.6541341895
0.8450000000	0.5932537700
0.8500000000	0.5417986768
0.8550000000	0.4974082488
0.8600000000	0.4595153928
0.8650000000	0.4271439888
0.8700000000	0.3985492622
0.8750000000	0.3742140396
0.8800000000	0.3535490386
0.8850000000	0.3350235152
0.8900000000	0.3201265934
0.8950000000	0.3065759648
0.9000000000	0.2957961957
0.9050000000	0.2882968148
0.9100000000	0.2814192543
0.9150000000	0.2771531967
0.9200000000	0.2764144197
0.9250000000	0.2758157066
0.9300000000	0.2715829356
0.9350000000	0.2593856118
0.9400000000	0.1923660419
0.9450000000	-0.1114096013
0.9500000000	-1.7127912020
0.9550000000	-9.8289229799
0.9600000000	2.3181777297
0.9650000000	4.0688229123
0.9700000000	1.8038189668
0.9750000000	0.9468422488
0.9800000000	0.5934939220
0.9850000000	0.4282761574
0.9900000000	0.3331265810
0.9950000000	0.2754473889
1.0000000000	0.2386238723
1.0050000000	0.2152677858
1.0100000000	0.1971787803
1.0150000000	0.1839691039
1.0200000000	0.1750660347
1.0250000000	0.1676099356
1.0300000000	0.1619553771
1.0350000000	0.1576897283
1.0400000000	0.1549865641
1.0450000000	0.1527600609
1.0500000000	0.1513158462
1.0550000000	0.1505659301
1.0600000000	0.1507046321
1.0650000000	0.1511903827
1.0700000000	0.1522454720
1.0750000000	0.1538745312
1.0800000000	0.1562243088
1.0850000000	0.1592041431
1.0900000000	0.1635714621
1.0950000000	0.1687513333
1.1000000000	0.1749120977
1.1050000000	0.1820245787
1.1100000000	0.1903069155
1.1150000000	0.1999472660
1.1200000000	0.2111617031
1.1250000000	0.2242627980
1.1300000000	0.2396338963
1.1350000000	0.2577642404
1.1400000000	0.2792031524
1.1450000000	0.3049860341
1.1500000000	0.3362119937
1.1550000000	0.3744822013
1.1600000000	0.4220557896
1.1650000000	0.4818562780
1.1700000000	0.5593964422
1.1750000000	0.6619626177
1.1800000000	0.8016115181
1.1850000000	0.9981691541
1.1900000000	1.2889574268
1.1950000000	1.7457293014
1.2000000000	2.5207850795
1.2050000000	3.9857210442
1.2100000000	7.2082867245
1.2150000000	15.9165129590
1.2200000000	39.0678433778
1.2250000000	35.0665417264
1.2300000000	13.9559537447
1.2350000000	6.5204611075
1.2400000000	3.7036202060
1.2450000000	2.4088223170
1.2500000000	1.7239845171
1.2550000000	1.3266859903
1.2600000000	1.0825520626
1.2650000000	0.9268886347
1.2700000000	0.8304809587
1.2750000000	0.7743398929
1.2800000000	0.7491276109
1.2850000000	0.7503737019
1.2900000000	0.7769319482
1.2950000000	0.8299723213
1.3000000000	0.9166187247
1.3050000000	1.0458852615
1.3100000000	1.2351477786
1.3150000000	1.5146158855
1.3200000000	1.9388235085
1.3250000000	2.6115485508
1.3300000000	3.7608153858
1.3350000000	5.9145751738
1.3400000000	10.5181523471
1.3450000000	21.9439700391
1.3500000000	46.5209148471
1.3550000000	43.3581276496
1.3600000000	19.9871402109
1.3650000000	9.8194112817
1.3700000000	5.6318071629
1.3750000000	3.6225415970
1.3800000000	2.5270503267
1.3850000000	1.8670623760
1.3900000000	1.4415026697
1.3950000000	1.1510056654
1.4000000000	0.9440710009
1.4050000000	0.7916978167
1.4100000000	0.6761653320
1.4150000000	0.5866204881
1.4200000000	0.5149870445
1.4250000000	0.4576120792
1.4300000000	0.4111964003
1.4350000000	0.3640017497
1.4400000000	0.2145873680
1.4450000000	-0.1723485336
1.4500000000	-0.8802012126
1.4550000000	-0.3196733513
1.4600000000	0.8031085709
1.4650000000	0.4887127711
1.4700000000	-0.2085469832
1.4750000000	-1.2744467201
1.4800000000	-0.5555048823
1.4850000000	1.0004438567
1.4900000000	0.8093686414
1.4950000000	0.5273593848
1.5000000000	0.3729987629
1.5050000000	0.2891449995
1.5100000000	0.2410723976
1.5150000000	0.2114834266
1.5200000000	0.1920206314
1.5250000000	0.1796325573
1.5300000000	0.1697906314
1.5350000000	0.1625874386
1.5400000000	0.1573122946
1.5450000000	0.1535310835
1.5500000000	0.1509591339
1.5550000000	0.1494525431
1.5600000000	0.1492534598
1.5650000000	0.1498065461
1.5700000000	0.1516180163
1.5750000000	0.1550327316
1.5800000000	0.1607502630
1.5850000000	0.1701483973
1.5900000000	0.1861329090
1.5950000000	0.2150891395
1.6000000000	0.2703234661
1.6050000000	0.3597417399
1.6100000000	0.3994064525
1.6150000000	0.3225773271
1.6200000000	0.2531084770
1.6250000000	0.2186553287
1.6300000000	0.2035929762
1.6350000000	0.1982023024
1.6400000000	0.1981311128
1.6450000000	0.2014107923
1.6500000000	0.2071118032
1.6550000000	0.2148457143
1.6600000000	0.2244619333
1.6650000000	0.2359777765
1.6700000000	0.2495239360
1.6750000000	0.2653279195
1.6800000000	0.2837127210
1.6850000000	0.3051083299
1.6900000000	0.3300664439
1.6950000000	0.3591113571
1.7000000000	0.3933495206
1.7050000000	0.4347982592
1.7100000000	0.4858494685
1.7150000000	0.5583326795
1.7200000000	0.6587737277
1.7250000000	0.7805283576
1.7300000000	0.9334382325
1.7350000000	1.0968401032
1.7400000000	1.2410989477
1.7450000000	1.4204881325
1.7500000000	1.6987996449
1.7550000000	2.1189266369
1.7600000000	2.7506737906
1.7650000000	3.7258874761
1.7700000000	5.2967964607
1.7750000000	7.9418127032
1.7800000000	12.4444608448
1.7850000000	19.0741531430
1.7900000000	23.6710367142
1.7950000000	20.1243728791
1.8000000000	13.3687608834
1.8050000000	8.4246524101
1.8100000000	5.5407995564
1.8150000000	3.8515515518
1.8200000000	2.8122899220
1.8250000000	2.1384673775
1.8300000000	1.6806521115
1.8350000000	1.3570125690
1.8400000000	1.1205911487
1.8450000000	0.9428440356
1.8500000000	0.8057574203
1.8550000000	0.6980299650
1.8600000000	0.6116700366
1.8650000000	0.5411551017
1.8700000000	0.4824081210
1.8750000000	0.4322325299
1.8800000000	0.3878175938
1.8850000000	0.3463127617
1.8900000000	0.3040954460
1.8950000000	0.2556573260
1.9000000000	0.1917282265
1.9050000000	0.0829167840
1.9100000000	-0.0750851115
1.9150000000	-0.2452513594
1.9200000000	-0.1691598459
1.9250000000	0.3279904996
1.9300000000	0.7273211764
1.9350000000	0.7597310725
1.9400000000	0.6262640111
1.9450000000	0.4914077801
1.9500000000	0.3944424436
1.9550000000	0.3293853929
1.9600000000	0.2854921755
1.9650000000	0.2564325660
1.9700000000	0.2344264441
1.9750000000	0.2182757410
1.9800000000	0.2061109727
1.9850000000	0.1966115024
1.9900000000	0.1888362484
1.9950000000	0.1820228934
2.0000000000	0.1759875750
2.0050000000	0.1729123474
2.0100000000	0.1757334417
2.0150000000	0.1824784929
2.0200000000	0.1877878235
2.0250000000	0.1914076794
2.0300000000	0.1952724771
2.0350000000	0.2002167349
2.0400000000	0.2068772734
2.0450000000	0.2156686305
2.0500000000	0.2270891403
2.0550000000	0.2416441952
2.0600000000	0.2593578693
2.0650000000	0.2785473350
2.0700000000	0.2950377879
2.0750000000	0.3055134776
2.0800000000	0.3122380163
2.0850000000	0.3202670674
2.0900000000	0.3327303953
2.0950000000	0.3505846077
2.1000000000	0.3743442521
2.1050000000	0.4034658443
2.1100000000	0.4399811916
2.1150000000	0.4853007974
2.1200000000	0.5415180493
2.1250000000	0.6116422178
2.1300000000	0.6999640704
2.1350000000	0.8126378552
2.1400000000	0.9585593063
2.1450000000	1.1507311730
2.1500000000	1.4080817435
2.1550000000	1.7573645260
2.1600000000	2.2327854610
2.1650000000	2.8632714131
2.1700000000	3.6378651409
2.1750000000	4.4109169972
2.1800000000	4.8996932828
2.1850000000	4.9547183149
2.1900000000	4.7864596020
2.1950000000	4.6747537211
2.2000000000	4.6425848449
2.2050000000	4.4193067332
2.2100000000	3.8914545628
2.2150000000	3.2209654248
2.2200000000	2.6074885880
2.2250000000	2.1161302889
2.2300000000	1.7293915125
2.2350000000	1.4222175719
2.2400000000	1.1785097390
2.2450000000	0.9882912707
2.2500000000	0.8399434390
2.2550000000	0.7228985616
2.2600000000	0.6283357013
2.2650000000	0.5489157083
2.2700000000	0.4784720721
2.2750000000	0.4126767992
2.2800000000	0.3518361463
2.2850000000	0.3035881753
2.2900000000	0.2792467445
2.2950000000	0.2827113403
2.3000000000	0.3028211186
2.3050000000	0.3224739365
2.3100000000	0.3309568548
2.3150000000	0.3288137458
2.3200000000	0.3207350496
2.3250000000	0.3115090806
2.3300000000	0.3037234332
2.3350000000	0.2982749474
2.3400000000	0.2949778824
2.3450000000	0.2928723190
2.3500000000	0.2906766701
2.3550000000	0.2875713869
2.3600000000	0.2837837663
2.3650000000	0.2803078542
2.3700000000	0.2781291132
2.3750000000	0.2777291147
2.3800000000	0.2790261593
2.3850000000	0.2815261527
2.3900000000	0.2846786643
2.3950000000	0.2880129353
2.4000000000	0.2918099471
2.4050000000	0.2971164670
2.4100000000	0.3044646208
2.4150000000	0.3145291490
2.4200000000	0.3277689751
2.4250000000	0.3446016082
2.4300000000	0.3654953597
2.4350000000	0.3910372397
2.4400000000	0.4219825181
2.4450000000	0.4593055981
2.4500000000	0.5042466042
2.4550000000	0.5583744613
2.4600000000	0.6236265372
2.4650000000	0.7023469938
2.4700000000	0.7972511817
2.4750000000	0.9111031113
2.4800000000	1.0468924927
2.4850000000	1.2059637084
2.4900000000	1.3870001833
2.4950000000	1.5834538960
2.5000000000	1.7807778006
2.5050000000	1.9631524185
2.5100000000	2.0809712936
2.5150000000	2.1067654279
2.5200000000	2.0369830227
2.5250000000	1.8934575663
2.5300000000	1.7094058902
2.5350000000	1.5139638425
2.5400000000	1.3255858783
2.5450000000	1.1533929491
2.5500000000	1.0007932948
2.5550000000	0.8682199434
2.5600000000	0.7537494459
2.5650000000	0.6571308779
2.5700000000	0.5764364118
2.5750000000	0.5105249316
2.5800000000	0.4585052365
2.5850000000	0.4192732726
2.5900000000	0.3908359424
2.5950000000	0.3703078980
2.6000000000	0.3546712712
2.6050000000	0.3435190020
2.6100000000	0.3335053298
2.6150000000	0.3245071080
2.6200000000	0.3167491924
2.6250000000	0.3104526527
2.6300000000	0.3057509748
2.6350000000	0.3027020342
2.6400000000	0.3013361933
2.6450000000	0.3016877529
2.6500000000	0.3038303646
2.6550000000	0.3077764216
2.6600000000	0.3136294520
2.6650000000	0.3214809115
2.6700000000	0.3314385604
2.6750000000	0.3436302536
2.6800000000	0.3581982907
2.6850000000	0.3752980869
2.6900000000	0.3950798274
2.6950000000	0.4176796381
2.7000000000	0.4431918174
2.7050000000	0.4746883679
2.7100000000	0.5099896827
2.7150000000	0.5488534061
2.7200000000	0.5907557268
2.7250000000	0.6348240572
2.7300000000	0.6797750786
2.7350000000	0.7238604110
2.7400000000	0.7648382402
2.7450000000	0.8003419779
2.7500000000	0.8269361819
2.7550000000	0.8422611151
2.7600000000	0.8445444949
2.7650000000	0.8333304388
2.7700000000	0.8096403176
2.7750000000	0.7757658240
2.7800000000	0.7347463189
2.7850000000	0.6898151608
2.7900000000	0.6438608633
2.7950000000	0.5991960251
2.8000000000	0.5574518518
2.8050000000	0.5150043403
2.8100000000	0.4783619534
2.8150000000	0.4474411060
2.8200000000	0.4217557675
2.8250000000	0.4006599716
2.8300000000	0.3835057185
2.8350000000	0.3697407401
2.8400000000	0.3587779394
2.8450000000	0.3506568625
2.8500000000	0.3449472538
2.8550000000	0.3414888009
2.8600000000	0.3401680907
2.8650000000	0.3408955235
2.8700000000	0.3435913379
2.8750000000	0.3481739121
2.8800000000	0.3545488193
2.8850000000	0.3625986504
2.8900000000	0.3721788500
2.8950000000	0.3831128653
2.9000000000	0.3951912842
2.9050000000	0.4110576706
2.9100000000	0.4273473742
2.9150000000	0.4434321959
2.9200000000	0.4585567163
2.9250000000	0.4718450454
2.9300000000	0.4824739672
2.9350000000	0.4893475227
2.9400000000	0.4919167432
2.9450000000	0.4899005175
2.9500000000	0.4834643217
2.9550000000	0.4731953368
2.9600000000	0.4599878950
2.9650000000	0.4448795118
2.9700000000	0.4288882901
2.9750000000	0.4128975980
2.9800000000	0.3975925332
2.9850000000	0.3834510242
2.9900000000	0.3707671806
2.9950000000	0.3596908164
3.0000000000	0.3502702350
