# energy (eV)    P(omega), $W$ = 300 nm, $h$ = 300 nm, $s$ = 20 nm, $d/W = 5$, $E_{\rm e}$ = 200 keV
0.2000000000	0.0600979416
0.2050000000	0.0610131104
0.2100000000	0.0618635676
0.2150000000	0.0626514743
0.2200000000	0.0633787757
0.2250000000	0.0640470781
0.2300000000	0.0646576641
0.2350000000	0.0652114268
0.2400000000	0.0657088207
0.2450000000	0.0661497825
0.2500000000	0.0665336684
0.2550000000	0.0668590932
0.2600000000	0.0671239016
0.2650000000	0.0673248896
0.2700000000	0.0674577032
0.2750000000	0.0675165109
0.2800000000	0.0674937088
0.2850000000	0.0673794825
0.2900000000	0.0671612791
0.2950000000	0.0668231040
0.3000000000	0.0663445433
0.3050000000	0.0656995818
0.3100000000	0.0648548985
0.3150000000	0.0686744236
0.3200000000	0.0732103771
0.3250000000	0.0789514416
0.3300000000	0.0866471209
0.3350000000	0.0962234296
0.3400000000	0.1087633065
0.3450000000	0.1239594414
0.3500000000	0.1438302706
0.3550000000	0.1701093014
0.3600000000	0.2043951433
0.3650000000	0.2521686037
0.3700000000	0.3150975791
0.3750000000	0.4025643249
0.3800000000	0.5289701911
0.3850000000	0.7258059734
0.3900000000	1.0365153652
0.3950000000	1.5638811395
0.4000000000	2.5685094228
0.4050000000	4.8192707363
0.4100000000	10.9560559215
0.4150000000	35.1265491882
0.4200000000	22.3955873925
0.4250000000	-42.0376356250
0.4300000000	11.6666583517
0.4350000000	7.2606734258
0.4400000000	4.4318468394
0.4450000000	2.9102682725
0.4500000000	2.0349424318
0.4550000000	1.4966195313
0.4600000000	1.1462230793
0.4650000000	0.9075788416
0.4700000000	0.7389881273
0.4750000000	0.6171009982
0.4800000000	0.5267500174
0.4850000000	0.4587628894
0.4900000000	0.4068527803
0.4950000000	0.3668011623
0.5000000000	0.3357240305
0.5050000000	0.3115076381
0.5100000000	0.2927885827
0.5150000000	0.2785621085
0.5200000000	0.2677846608
0.5250000000	0.2599802925
0.5300000000	0.2546430005
0.5350000000	0.2514011156
0.5400000000	0.2499802551
0.5450000000	0.2501513158
0.5500000000	0.2518372479
0.5550000000	0.2549074642
0.5600000000	0.2592923693
0.5650000000	0.2649586984
0.5700000000	0.2718743683
0.5750000000	0.2800866326
0.5800000000	0.2896719604
0.5850000000	0.3006792380
0.5900000000	0.3132065810
0.5950000000	0.3273796259
0.6000000000	0.3433578190
0.6050000000	0.3613764264
0.6100000000	0.3816569176
0.6150000000	0.4045043345
0.6200000000	0.4303259089
0.6250000000	0.4595116393
0.6300000000	0.4926391724
0.6350000000	0.5304282330
0.6400000000	0.5736267414
0.6450000000	0.6233161090
0.6500000000	0.6809170619
0.6550000000	0.7479076951
0.6600000000	0.8265618515
0.6650000000	0.9197939972
0.6700000000	1.0310299027
0.6750000000	1.1654963516
0.6800000000	1.3302188000
0.6850000000	1.5343969796
0.6900000000	1.7922788426
0.6950000000	2.1237867914
0.7000000000	2.5605621131
0.7050000000	3.1509634575
0.7100000000	3.9769130974
0.7150000000	5.1842216637
0.7200000000	7.0442677455
0.7250000000	10.1305974319
0.7300000000	15.7933166872
0.7350000000	27.9048900255
0.7400000000	61.1070423617
0.7450000000	202.5604469681
0.7500000000	627.0340588723
0.7550000000	157.6182684207
0.7600000000	52.1577693121
0.7650000000	24.9710075434
0.7700000000	14.5105741604
0.7750000000	9.4630182592
0.7800000000	6.6541494196
0.7850000000	4.9380415557
0.7900000000	3.8119430760
0.7950000000	3.0355939378
0.8000000000	2.4777127171
0.8050000000	2.0623699834
0.8100000000	1.7457636391
0.8150000000	1.4948938699
0.8200000000	1.2969653132
0.8250000000	1.1376471851
0.8300000000	1.0071861717
0.8350000000	0.8999498053
0.8400000000	0.8100807764
0.8450000000	0.7346863037
0.8500000000	0.6709641822
0.8550000000	0.6159909637
0.8600000000	0.5690643556
0.8650000000	0.5289755277
0.8700000000	0.4935637484
0.8750000000	0.4634269479
0.8800000000	0.4378353579
0.8850000000	0.4148933030
0.8900000000	0.3964449134
0.8950000000	0.3796637773
0.9000000000	0.3663140758
0.9050000000	0.3570268094
0.9100000000	0.3485096070
0.9150000000	0.3432264899
0.9200000000	0.3423115553
0.9250000000	0.3415700768
0.9300000000	0.3363281856
0.9350000000	0.3212230044
0.9400000000	0.2382260309
0.9450000000	-0.1379692993
0.9500000000	-2.1211177290
0.9550000000	-12.1721214633
0.9600000000	2.8708274188
0.9650000000	5.0388228179
0.9700000000	2.2338460150
0.9750000000	1.1725676538
0.9800000000	0.7349817648
0.9850000000	0.5303764043
0.9900000000	0.4125433538
0.9950000000	0.3411135534
1.0000000000	0.2955113791
1.0050000000	0.2665872420
1.0100000000	0.2441858478
1.0150000000	0.2278270045
1.0200000000	0.2168014538
1.0250000000	0.2075678277
1.0300000000	0.2005652258
1.0350000000	0.1952826462
1.0400000000	0.1919350442
1.0450000000	0.1891777371
1.0500000000	0.1873892141
1.0550000000	0.1864605087
1.0600000000	0.1866322644
1.0650000000	0.1872338045
1.0700000000	0.1885404109
1.0750000000	0.1905578189
1.0800000000	0.1934677619
1.0850000000	0.1971579641
1.0900000000	0.2025664215
1.0950000000	0.2089811392
1.1000000000	0.2166105899
1.1050000000	0.2254186404
1.1100000000	0.2356754333
1.1150000000	0.2476139821
1.1200000000	0.2615018696
1.1250000000	0.2777261818
1.1300000000	0.2967616510
1.1350000000	0.3192141515
1.1400000000	0.3457639599
1.1450000000	0.3776933106
1.1500000000	0.4163633301
1.1550000000	0.4637568962
1.1600000000	0.5226717018
1.1650000000	0.5967282109
1.1700000000	0.6927534044
1.1750000000	0.8197706242
1.1800000000	0.9927108096
1.1850000000	1.2361263471
1.1900000000	1.5962363864
1.1950000000	2.1618992382
1.2000000000	3.1217224163
1.2050000000	4.9358878374
1.2100000000	8.9266880844
1.2150000000	19.7108868315
1.2200000000	48.3813093332
1.2250000000	43.4261243406
1.2300000000	17.2829401996
1.2350000000	8.0748861115
1.2400000000	4.5865333732
1.2450000000	2.9830664160
1.2500000000	2.1349690926
1.2550000000	1.6429580652
1.2600000000	1.3406248428
1.2650000000	1.1478527841
1.2700000000	1.0284625937
1.2750000000	0.9589382841
1.2800000000	0.9277159888
1.2850000000	0.9292595971
1.2900000000	0.9621496716
1.2950000000	1.0278351436
1.3000000000	1.1351382493
1.3050000000	1.2952220683
1.3100000000	1.5296048603
1.3150000000	1.8756981889
1.3200000000	2.4010368572
1.3250000000	3.2341394063
1.3300000000	4.6573911191
1.3350000000	7.3246065525
1.3400000000	13.0256750073
1.3450000000	27.1754040721
1.3500000000	57.6114854178
1.3550000000	53.6946921701
1.3600000000	24.7520687545
1.3650000000	12.1603562170
1.3700000000	6.9744284138
1.3750000000	4.4861544864
1.3800000000	3.1294984016
1.3850000000	2.3121695242
1.3900000000	1.7851565349
1.3950000000	1.4254051700
1.4000000000	1.1691374105
1.4050000000	0.9804386045
1.4100000000	0.8373633629
1.4150000000	0.7264713052
1.4200000000	0.6377609148
1.4250000000	0.5667086360
1.4300000000	0.5092293067
1.4350000000	0.4507867628
1.4400000000	0.2657536935
1.4450000000	-0.2134267466
1.4500000000	-1.0900255775
1.4550000000	-0.3958758171
1.4600000000	0.9945626303
1.4650000000	0.6052159392
1.4700000000	-0.2582687962
1.4750000000	-1.5782792540
1.4800000000	-0.6879395303
1.4850000000	1.2389505566
1.4900000000	1.0023229559
1.4950000000	0.6530823525
1.5000000000	0.4619220024
1.5050000000	0.3580774624
1.5100000000	0.2985443525
1.5150000000	0.2619014013
1.5200000000	0.2377987262
1.5250000000	0.2224573988
1.5300000000	0.2102692415
1.5350000000	0.2013489105
1.5400000000	0.1948162979
1.5450000000	0.1901338029
1.5500000000	0.1869488951
1.5550000000	0.1850833827
1.5600000000	0.1848371634
1.5650000000	0.1855225439
1.5700000000	0.1877664760
1.5750000000	0.1919961335
1.5800000000	0.1990780419
1.5850000000	0.2107187936
1.5900000000	0.2305176135
1.5950000000	0.2663836825
1.6000000000	0.3347989247
1.6050000000	0.4455560229
1.6100000000	0.4946863436
1.6150000000	0.3995217286
1.6200000000	0.3134734147
1.6250000000	0.2707969350
1.6300000000	0.2521386321
1.6350000000	0.2454599547
1.6400000000	0.2453700517
1.6450000000	0.2494304786
1.6500000000	0.2564898368
1.6550000000	0.2660669616
1.6600000000	0.2779752778
1.6650000000	0.2922361817
1.6700000000	0.3090114920
1.6750000000	0.3285829302
1.6800000000	0.3513504741
1.6850000000	0.3778466012
1.6900000000	0.4087545060
1.6950000000	0.4447234121
1.7000000000	0.4871234403
1.7050000000	0.5384525864
1.7100000000	0.6016730210
1.7150000000	0.6914366107
1.7200000000	0.8158254060
1.7250000000	0.9666067293
1.7300000000	1.1559692193
1.7350000000	1.3583251840
1.7400000000	1.5369754857
1.7450000000	1.7591316419
1.7500000000	2.1037930507
1.7550000000	2.6240785779
1.7600000000	3.4064344237
1.7650000000	4.6141392095
1.7700000000	6.5595531261
1.7750000000	9.8351416614
1.7800000000	15.4112220499
1.7850000000	23.6214347530
1.7900000000	29.3142175404
1.7950000000	24.9220296133
1.8000000000	16.5558787887
1.8050000000	10.4330938235
1.8100000000	6.8617297138
1.8150000000	4.7697645199
1.8200000000	3.4827426356
1.8250000000	2.6482806209
1.8300000000	2.0813221106
1.8350000000	1.6805268746
1.8400000000	1.3877426158
1.8450000000	1.1676206617
1.8500000000	0.9978527187
1.8550000000	0.8644432108
1.8600000000	0.7574953083
1.8650000000	0.6701699156
1.8700000000	0.5974180457
1.8750000000	0.5352810991
1.8800000000	0.4802783013
1.8850000000	0.4288795886
1.8900000000	0.3765988369
1.8950000000	0.3166146826
1.9000000000	0.2374471662
1.9050000000	0.1026986102
1.9100000000	-0.0929655343
1.9150000000	-0.3036909563
1.9200000000	-0.2094461676
1.9250000000	0.4062423132
1.9300000000	0.9007869086
1.9350000000	0.9409193033
1.9400000000	0.7756171779
1.9450000000	0.6085955938
1.9500000000	0.4885029076
1.9550000000	0.4079292748
1.9600000000	0.3535673615
1.9650000000	0.3175768737
1.9700000000	0.2903223460
1.9750000000	0.2703197440
1.9800000000	0.2552536864
1.9850000000	0.2434885399
1.9900000000	0.2338587473
1.9950000000	0.2254201438
2.0000000000	0.2179450226
2.0050000000	0.2141359789
2.0100000000	0.2176299186
2.0150000000	0.2259839016
2.0200000000	0.2325594626
2.0250000000	0.2370422754
2.0300000000	0.2418282376
2.0350000000	0.2479509761
2.0400000000	0.2561991666
2.0450000000	0.2670861670
2.0500000000	0.2812290936
2.0550000000	0.2992538027
2.0600000000	0.3211901062
2.0650000000	0.3449540496
2.0700000000	0.3653757049
2.0750000000	0.3783489729
2.0800000000	0.3866770473
2.0850000000	0.3966207022
2.0900000000	0.4120557483
2.0950000000	0.4341668339
2.1000000000	0.4635911955
2.1050000000	0.4996558003
2.1100000000	0.5448768688
2.1150000000	0.6010011962
2.1200000000	0.6706212641
2.1250000000	0.7574637911
2.1300000000	0.8668425166
2.1350000000	1.0063789260
2.1400000000	1.1870896003
2.1450000000	1.4250772879
2.1500000000	1.7437829963
2.1550000000	2.1763385738
2.1600000000	2.7651050506
2.1650000000	3.5459057805
2.1700000000	4.5051711531
2.1750000000	5.4625268527
2.1800000000	6.0678318623
2.1850000000	6.1359733669
2.1900000000	5.9275966062
2.1950000000	5.7892549260
2.2000000000	5.7494137906
2.2050000000	5.4729050897
2.2100000000	4.8192136732
2.2150000000	3.9888820655
2.2200000000	3.2291549796
2.2250000000	2.6206579937
2.2300000000	2.1417187037
2.2350000000	1.7613099339
2.2400000000	1.4594969152
2.2450000000	1.2239258323
2.2500000000	1.0402085140
2.2550000000	0.8952579109
2.2600000000	0.7781499757
2.2650000000	0.6797956121
2.2700000000	0.5925578191
2.2750000000	0.5110763240
2.2800000000	0.4357300616
2.2850000000	0.3759781148
2.2900000000	0.3458320296
2.2950000000	0.3501213314
2.3000000000	0.3750244727
2.3050000000	0.3993619257
2.3100000000	0.4098666846
2.3150000000	0.4072122506
2.3200000000	0.3972072993
2.3250000000	0.3857817187
2.3300000000	0.3761399995
2.3350000000	0.3693927696
2.3400000000	0.3653099434
2.3450000000	0.3627026398
2.3500000000	0.3599835974
2.3550000000	0.3561377942
2.3600000000	0.3514467383
2.3650000000	0.3471415662
2.3700000000	0.3444427898
2.3750000000	0.3439468626
2.3800000000	0.3455526462
2.3850000000	0.3486482745
2.3900000000	0.3525521061
2.3950000000	0.3566811549
2.4000000000	0.3613833817
2.4050000000	0.3679550968
2.4100000000	0.3770552663
2.4150000000	0.3895194750
2.4200000000	0.4059160444
2.4250000000	0.4267620218
2.4300000000	0.4526373750
2.4350000000	0.4842690727
2.4400000000	0.5225924630
2.4450000000	0.5688142724
2.4500000000	0.6244703040
2.4550000000	0.6915035542
2.4600000000	0.7723133054
2.4650000000	0.8698026230
2.4700000000	0.9873342630
2.4750000000	1.1283312230
2.4800000000	1.2964960053
2.4850000000	1.4934934891
2.4900000000	1.7176931567
2.4950000000	1.9609857584
2.5000000000	2.2053559606
2.5050000000	2.4312126872
2.5100000000	2.5771224300
2.5150000000	2.6090670488
2.5200000000	2.5226477576
2.5250000000	2.3449033261
2.5300000000	2.1169699893
2.5350000000	1.8749302117
2.5400000000	1.6416385162
2.5450000000	1.4283906527
2.5500000000	1.2394075699
2.5550000000	1.0752255764
2.5600000000	0.9334626397
2.5650000000	0.8138079723
2.5700000000	0.7138740843
2.5750000000	0.6322477715
2.5800000000	0.5678253394
2.5850000000	0.5192395001
2.5900000000	0.4840219620
2.5950000000	0.4585994589
2.6000000000	0.4392346096
2.6050000000	0.4254233161
2.6100000000	0.4130221189
2.6150000000	0.4018785066
2.6200000000	0.3922709429
2.6250000000	0.3844732045
2.6300000000	0.3786506041
2.6350000000	0.3748748161
2.6400000000	0.3731834446
2.6450000000	0.3736189679
2.6500000000	0.3762725997
2.6550000000	0.3811596897
2.6600000000	0.3884084522
2.6650000000	0.3981321530
2.6700000000	0.4104642493
2.6750000000	0.4255630829
2.6800000000	0.4436048844
2.6850000000	0.4647821237
2.6900000000	0.4892807907
2.6950000000	0.5172694608
2.7000000000	0.5488649035
2.7050000000	0.5878716076
2.7100000000	0.6315902063
2.7150000000	0.6797205161
2.7200000000	0.7316137866
2.7250000000	0.7861893323
2.7300000000	0.8418578352
2.7350000000	0.8964540509
2.7400000000	0.9472016882
2.7450000000	0.9911699555
2.7500000000	1.0241043814
2.7550000000	1.0430826620
2.7600000000	1.0459100061
2.7650000000	1.0320218607
2.7700000000	1.0026831191
2.7750000000	0.9607318634
2.7800000000	0.9099321019
2.7850000000	0.8542880989
2.7900000000	0.7973770449
2.7950000000	0.7420629161
2.8000000000	0.6903658335
2.8050000000	0.6377977266
2.8100000000	0.5924188564
2.8150000000	0.5541257094
2.8200000000	0.5223163745
2.8250000000	0.4961908721
2.8300000000	0.4749467030
2.8350000000	0.4578999254
2.8400000000	0.4443234646
2.8450000000	0.4342662936
2.8500000000	0.4271955748
2.8550000000	0.4229127716
2.8600000000	0.4212774289
2.8650000000	0.4221785825
2.8700000000	0.4255174479
2.8750000000	0.4311929378
2.8800000000	0.4390881018
2.8850000000	0.4490575273
2.8900000000	0.4609221797
2.8950000000	0.4744633980
2.9000000000	0.4894218293
2.9050000000	0.5090713153
2.9100000000	0.5292449637
2.9150000000	0.5491648024
2.9200000000	0.5678953149
2.9250000000	0.5843517952
2.9300000000	0.5975147689
2.9350000000	0.6060269864
2.9400000000	0.6092086025
2.9450000000	0.6067114904
2.9500000000	0.5987405859
2.9550000000	0.5860230745
2.9600000000	0.5696665231
2.9650000000	0.5509558201
2.9700000000	0.5311518116
2.9750000000	0.5113484842
2.9800000000	0.4923942797
2.9850000000	0.4748810769
2.9900000000	0.4591731071
2.9950000000	0.4454559026
3.0000000000	0.4337892823
