# energy (eV)    P(omega), $W$ = 300 nm, $h$ = 300 nm, $s$ = 20 nm, $d/W = 5$, $E_{\rm e}$ = 200 keV
0.2000000000	0.2965594027
0.2050000000	0.3010035713
0.2100000000	0.3051582276
0.2150000000	0.3090328135
0.2200000000	0.3126353946
0.2250000000	0.3159728185
0.2300000000	0.3190503273
0.2350000000	0.3218713891
0.2400000000	0.3244373374
0.2450000000	0.3267471970
0.2500000000	0.3287971812
0.2550000000	0.3305800133
0.2600000000	0.3320847770
0.2650000000	0.3332956207
0.2700000000	0.3341910449
0.2750000000	0.3347425774
0.2800000000	0.3349132340
0.2850000000	0.3346554762
0.2900000000	0.3339083961
0.2950000000	0.3325947112
0.3000000000	0.3306157117
0.3050000000	0.3278455923
0.3100000000	0.3241233111
0.3150000000	0.3425605190
0.3200000000	0.3644570928
0.3250000000	0.3921523928
0.3300000000	0.4292433043
0.3350000000	0.4754116829
0.3400000000	0.5358699462
0.3450000000	0.6091981931
0.3500000000	0.7051220742
0.3550000000	0.8320431413
0.3600000000	0.9977570426
0.3650000000	1.2287729964
0.3700000000	1.5333695832
0.3750000000	1.9570580133
0.3800000000	2.5698089578
0.3850000000	3.5245611144
0.3900000000	5.0328038571
0.3950000000	7.5946452758
0.4000000000	12.4782758548
0.4050000000	23.4269425594
0.4100000000	53.3008425211
0.4150000000	171.0492514293
0.4200000000	108.9847772686
0.4250000000	-205.1218952201
0.4300000000	57.0354529525
0.4350000000	35.5404670668
0.4400000000	21.7247520497
0.4450000000	14.2881208223
0.4500000000	10.0071489754
0.4550000000	7.3727314452
0.4600000000	5.6569883885
0.4650000000	4.4878325615
0.4700000000	3.6615058490
0.4750000000	3.0638943189
0.4800000000	2.6208167205
0.4850000000	2.2874108756
0.4900000000	2.0329095942
0.4950000000	1.8366591397
0.5000000000	1.6845419571
0.5050000000	1.5662003057
0.5100000000	1.4749643630
0.5150000000	1.4059234303
0.5200000000	1.3539461494
0.5250000000	1.3167191514
0.5300000000	1.2917607029
0.5350000000	1.2772553375
0.5400000000	1.2718645179
0.5450000000	1.2744703067
0.5500000000	1.2847179627
0.5550000000	1.3019771350
0.5600000000	1.3259250382
0.5650000000	1.3564164573
0.5700000000	1.3933188195
0.5750000000	1.4368896857
0.5800000000	1.4875479618
0.5850000000	1.5455666967
0.5900000000	1.6114757190
0.5950000000	1.6859419443
0.6000000000	1.7698148162
0.6050000000	1.8643261783
0.6100000000	1.9706507252
0.6150000000	2.0903939778
0.6200000000	2.2256974980
0.6250000000	2.3786144075
0.6300000000	2.5521798027
0.6350000000	2.7501763662
0.6400000000	2.9765397041
0.6450000000	3.2369512609
0.6500000000	3.5388807625
0.6550000000	3.8901037886
0.6600000000	4.3025714976
0.6650000000	4.7916182686
0.6700000000	5.3752714052
0.6750000000	6.0810216704
0.6800000000	6.9458385124
0.6850000000	8.0181513314
0.6900000000	9.3729673592
0.6950000000	11.1151894582
0.7000000000	13.4114563045
0.7050000000	16.5165140385
0.7100000000	20.8619952673
0.7150000000	27.2162525778
0.7200000000	37.0097177882
0.7250000000	53.2660876181
0.7300000000	83.1046011310
0.7350000000	146.9498375792
0.7400000000	322.0457313955
0.7450000000	1068.3641166888
0.7500000000	3309.7462725334
0.7550000000	832.6255906859
0.7600000000	275.7420992400
0.7650000000	132.1178862773
0.7700000000	76.8338641534
0.7750000000	50.1465306365
0.7800000000	35.2896875773
0.7850000000	26.2092688787
0.7900000000	20.2484900350
0.7950000000	16.1375045378
0.8000000000	13.1822883093
0.8050000000	10.9813265381
0.8100000000	9.3029828479
0.8150000000	7.9725441937
0.8200000000	6.9225315054
0.8250000000	6.0770792998
0.8300000000	5.3845257640
0.8350000000	4.8151219666
0.8400000000	4.3377982399
0.8450000000	3.9372634361
0.8500000000	3.5986970846
0.8550000000	3.3065303325
0.8600000000	3.0571177088
0.8650000000	2.8440770375
0.8700000000	2.6558390567
0.8750000000	2.4957149125
0.8800000000	2.3598448338
0.8850000000	2.2380299727
0.8900000000	2.1403108507
0.8950000000	2.0514165601
0.9000000000	1.9809613908
0.9050000000	1.9324345041
0.9100000000	1.8879638698
0.9150000000	1.8609839315
0.9200000000	1.8577250715
0.9250000000	1.8553057990
0.9300000000	1.8280815373
0.9350000000	1.7464150164
0.9400000000	1.2915055962
0.9450000000	-0.7761379318
0.9500000000	-11.6878153621
0.9550000000	-67.0330811993
0.9600000000	15.8173581307
0.9650000000	27.7851912886
0.9700000000	12.3237101320
0.9750000000	6.4696419447
0.9800000000	4.0546213459
0.9850000000	2.9251137801
0.9900000000	2.2743194270
0.9950000000	1.8796946851
1.0000000000	1.6277260505
1.0050000000	1.4679832918
1.0100000000	1.3441442368
1.0150000000	1.2536722167
1.0200000000	1.1927339384
1.0250000000	1.1415862124
1.0300000000	1.1027305383
1.0350000000	1.0733372509
1.0400000000	1.0546506282
1.0450000000	1.0391138370
1.0500000000	1.0288663031
1.0550000000	1.0233011675
1.0600000000	1.0237897269
1.0650000000	1.0265151012
1.0700000000	1.0330335894
1.0750000000	1.0433721601
1.0800000000	1.0585520704
1.0850000000	1.0778159197
1.0900000000	1.1062311765
1.0950000000	1.1399755120
1.1000000000	1.1801808346
1.1050000000	1.2265193616
1.1100000000	1.2804544073
1.1150000000	1.3431987719
1.1200000000	1.4161898901
1.1250000000	1.5013081838
1.1300000000	1.6010706584
1.1350000000	1.7186113195
1.1400000000	1.8574987049
1.1450000000	2.0242498448
1.1500000000	2.2259489908
1.1550000000	2.4728390362
1.1600000000	2.7793707400
1.1650000000	3.1642940256
1.1700000000	3.6627357978
1.1750000000	4.3213250073
1.1800000000	5.2171488473
1.1850000000	6.4769178754
1.1900000000	8.3394357043
1.1950000000	11.2632305737
1.2000000000	16.2224185382
1.2050000000	25.5939829880
1.2100000000	46.2095436337
1.2150000000	101.9330430438
1.2200000000	250.1644998813
1.2250000000	224.7554901211
1.2300000000	89.6518702200
1.2350000000	42.0467222282
1.2400000000	24.0150385905
1.2450000000	15.7357176044
1.2500000000	11.3679368914
1.2550000000	8.8470838403
1.2600000000	7.3129975523
1.2650000000	6.3519271531
1.2700000000	5.7786692380
1.2750000000	5.4731411458
1.2800000000	5.3781659907
1.2850000000	5.4687531470
1.2900000000	5.7428485355
1.2950000000	6.2146966919
1.3000000000	6.9425842254
1.3050000000	8.0012535685
1.3100000000	9.5300802980
1.3150000000	11.7702281262
1.3200000000	15.1552538935
1.3250000000	20.5115048430
1.3300000000	29.6488114313
1.3350000000	46.7632217550
1.3400000000	83.3417236503
1.3450000000	174.1483751634
1.3500000000	369.5822421054
1.3550000000	344.6872653948
1.3600000000	158.9515175697
1.3650000000	78.0986772626
1.3700000000	44.7887449702
1.3750000000	28.8033026653
1.3800000000	20.0871756251
1.3850000000	14.8366702105
1.3900000000	11.4526449999
1.3950000000	9.1438232949
1.4000000000	7.5014994559
1.4050000000	6.2952384465
1.4100000000	5.3854677661
1.4150000000	4.6887978304
1.4200000000	4.1463801950
1.4250000000	3.7425163096
1.4300000000	3.4850135340
1.4350000000	3.3138491370
1.4400000000	2.2760017445
1.4450000000	-0.5973253336
1.4500000000	-5.5991889036
1.4550000000	-1.8724743403
1.4600000000	5.6893441822
1.4650000000	3.2973308219
1.4700000000	-2.0973223746
1.4750000000	-10.6290317450
1.4800000000	-4.6888606958
1.4850000000	8.0372604252
1.4900000000	6.5063729756
1.4950000000	4.2214958252
1.5000000000	2.9723018675
1.5050000000	2.2960295682
1.5100000000	1.9089076310
1.5150000000	1.6715480275
1.5200000000	1.5160761215
1.5250000000	1.4173943422
1.5300000000	1.3396260828
1.5350000000	1.2831310499
1.5400000000	1.2422044341
1.5450000000	1.2134439571
1.5500000000	1.1944989203
1.5550000000	1.1843884919
1.5600000000	1.1851394124
1.5650000000	1.1926590620
1.5700000000	1.2113141877
1.5750000000	1.2445346639
1.5800000000	1.2991520284
1.5850000000	1.3886182522
1.5900000000	1.5413905763
1.5950000000	1.8203766923
1.6000000000	2.3581396186
1.6050000000	3.2406415696
1.6100000000	3.6519684269
1.6150000000	2.9079894277
1.6200000000	2.2183002463
1.6250000000	1.8678072092
1.6300000000	1.7070209732
1.6350000000	1.6408330855
1.6400000000	1.6261676176
1.6450000000	1.6433231155
1.6500000000	1.6827121466
1.6550000000	1.7403963464
1.6600000000	1.8143725831
1.6650000000	1.9043733314
1.6700000000	2.0111477117
1.6750000000	2.1362371264
1.6800000000	2.2818954494
1.6850000000	2.4511309006
1.6900000000	2.6474432212
1.6950000000	2.8728763050
1.7000000000	3.1324292390
1.7050000000	3.4328500401
1.7100000000	3.7970216194
1.7150000000	4.4082774468
1.7200000000	5.3309464989
1.7250000000	6.3291593575
1.7300000000	7.5166119931
1.7350000000	8.8012283462
1.7400000000	9.9867245531
1.7450000000	11.4806437845
1.7500000000	13.7709864127
1.7550000000	17.2064374240
1.7600000000	22.3608246373
1.7650000000	30.3127835775
1.7700000000	43.1225062253
1.7750000000	64.6977728687
1.7800000000	101.4440462220
1.7850000000	155.5934180016
1.7900000000	193.2316875605
1.7950000000	164.4084377342
1.8000000000	109.3123244910
1.8050000000	68.9525086129
1.8100000000	45.3985310565
1.8150000000	31.5964253723
1.8200000000	23.1030738718
1.8250000000	17.5958362900
1.8300000000	13.8545692841
1.8350000000	11.2109712989
1.8400000000	9.2814586602
1.8450000000	7.8330504808
1.8500000000	6.7187638396
1.8550000000	5.8464426216
1.8600000000	5.1512647009
1.8650000000	4.5886731263
1.8700000000	4.1261978635
1.8750000000	3.7389297497
1.8800000000	3.4056620932
1.8850000000	3.1057139094
1.8900000000	2.8134843224
1.8950000000	2.4901923921
1.9000000000	2.0701290027
1.9050000000	1.3389133840
1.9100000000	0.2887756020
1.9150000000	-0.7231254266
1.9200000000	0.4928800504
1.9250000000	5.3665282640
1.9300000000	9.2598985463
1.9350000000	9.3483447825
1.9400000000	7.5053312808
1.9450000000	5.6892610951
1.9500000000	4.4020001541
1.9550000000	3.5504782488
1.9600000000	2.9830000726
1.9650000000	2.6048802044
1.9700000000	2.3264964244
1.9750000000	2.1223613412
1.9800000000	1.9674310212
1.9850000000	1.8437467010
1.9900000000	1.7379430512
1.9950000000	1.6386927361
2.0000000000	1.5439570243
2.0050000000	1.4876589563
2.0100000000	1.5255541311
2.0150000000	1.6243366357
2.0200000000	1.6911279774
2.0250000000	1.7202452592
2.0300000000	1.7425203168
2.0350000000	1.7722146415
2.0400000000	1.8162792749
2.0450000000	1.8776731781
2.0500000000	1.9594092813
2.0550000000	2.0644841970
2.0600000000	2.1930688700
2.0650000000	2.3348847916
2.0700000000	2.4643475198
2.0750000000	2.5614741320
2.0800000000	2.6411093240
2.0850000000	2.7355212189
2.0900000000	2.8652293683
2.0950000000	3.0373383703
2.1000000000	3.2572752511
2.1050000000	3.5217138928
2.1100000000	3.8490775711
2.1150000000	4.2525693334
2.1200000000	4.7511829534
2.1250000000	5.3718697111
2.1300000000	6.1528213273
2.1350000000	7.1486806283
2.1400000000	8.4383684909
2.1450000000	10.1372435749
2.1500000000	12.4132942739
2.1550000000	15.5041220165
2.1600000000	19.7137198469
2.1650000000	25.2997041619
2.1700000000	32.1638763306
2.1750000000	39.0085733888
2.1800000000	43.3073007577
2.1850000000	43.7106748413
2.1900000000	42.0795311795
2.1950000000	40.9228109381
2.2000000000	40.5191105484
2.2050000000	38.6148866861
2.2100000000	34.2460073750
2.2150000000	28.7485445061
2.2200000000	23.7480533242
2.2250000000	19.6965255975
2.2300000000	16.3714702118
2.2350000000	13.5897425052
2.2400000000	11.3062817301
2.2450000000	9.5033553309
2.2500000000	8.1061223844
2.2550000000	7.0246007173
2.2600000000	6.1755567742
2.2650000000	5.4840073932
2.2700000000	4.8790262402
2.2750000000	4.3007316292
2.2800000000	3.7353040215
2.2850000000	3.2517913528
2.2900000000	2.9676913882
2.2950000000	2.9355943837
2.3000000000	3.0646369214
2.3050000000	3.2005237392
2.3100000000	3.2486481693
2.3150000000	3.2120004310
2.3200000000	3.1314890818
2.3250000000	3.0491577963
2.3300000000	2.9873285627
2.3350000000	2.9525290157
2.3400000000	2.9398825171
2.3450000000	2.9351725199
2.3500000000	2.9200838891
2.3550000000	2.8829165304
2.3600000000	2.8269074197
2.3650000000	2.7663278642
2.3700000000	2.7156812059
2.3750000000	2.6830240224
2.3800000000	2.6696383400
2.3850000000	2.6722663159
2.3900000000	2.6867520552
2.3950000000	2.7091168387
2.4000000000	2.7413455194
2.4050000000	2.7918537061
2.4100000000	2.8642244701
2.4150000000	2.9634008352
2.4200000000	3.0927902766
2.4250000000	3.2560421484
2.4300000000	3.4576310269
2.4350000000	3.7032916700
2.4400000000	4.0004061858
2.4450000000	4.3584403285
2.4500000000	4.7893910712
2.4550000000	5.3083958072
2.4600000000	5.9340688232
2.4650000000	6.6888499669
2.4700000000	7.5985646612
2.4750000000	8.6892521351
2.4800000000	9.9884000327
2.4850000000	11.5074317070
2.4900000000	13.2321283894
2.4950000000	15.0995818715
2.5000000000	16.9739459964
2.5050000000	18.7111304916
2.5100000000	19.8500658671
2.5150000000	20.1321414432
2.5200000000	19.5142010977
2.5250000000	18.1879063106
2.5300000000	16.4576997920
2.5350000000	14.5997014294
2.5400000000	12.7960806418
2.5450000000	11.1418645148
2.5500000000	9.6752988406
2.5550000000	8.4029420456
2.5600000000	7.3066425298
2.5650000000	6.3824201848
2.5700000000	5.6106615618
2.5750000000	4.9795155561
2.5800000000	4.4799219696
2.5850000000	4.1011858579
2.5900000000	3.8246024216
2.5950000000	3.6233224306
2.6000000000	3.4692810204
2.6050000000	3.3593657182
2.6100000000	3.2619060834
2.6150000000	3.1755956280
2.6200000000	3.1024622012
2.6250000000	3.0445830134
2.6300000000	3.0032896600
2.6350000000	2.9792193837
2.6400000000	2.9727089077
2.6450000000	2.9840993347
2.6500000000	3.0140921878
2.6550000000	3.0628441412
2.6600000000	3.1314262432
2.6650000000	3.2208565313
2.6700000000	3.3323353153
2.6750000000	3.4672658800
2.6800000000	3.6271479818
2.6850000000	3.8135188059
2.6900000000	4.0277380727
2.6950000000	4.2708486920
2.7000000000	4.5432374070
2.7050000000	4.8767822965
2.7100000000	5.2461396796
2.7150000000	5.6468161700
2.7200000000	6.0712512153
2.7250000000	6.5086867395
2.7300000000	6.9451833888
2.7350000000	7.3636675161
2.7400000000	7.7438169811
2.7450000000	8.0653441889
2.7500000000	8.2981280035
2.7550000000	8.4222241095
2.7600000000	8.4225709066
2.7650000000	8.2958473312
2.7700000000	8.0521559524
2.7750000000	7.7133168864
2.7800000000	7.3081301541
2.7850000000	6.8672276646
2.7900000000	6.4180521519
2.7950000000	5.9825986020
2.8000000000	5.5764302464
2.8050000000	5.1638654144
2.8100000000	4.8087101432
2.8150000000	4.5101676894
2.8200000000	4.2635749308
2.8250000000	4.0627313614
2.8300000000	3.9013825226
2.8350000000	3.7742050778
2.8400000000	3.6755372283
2.8450000000	3.6057214732
2.8500000000	3.5605996402
2.8550000000	3.5385977749
2.8600000000	3.5385576332
2.8650000000	3.5594956019
2.8700000000	3.6004538589
2.8750000000	3.6603374108
2.8800000000	3.7378129927
2.8850000000	3.8311885524
2.8900000000	3.9384423808
2.8950000000	4.0571832639
2.9000000000	4.1847740720
2.9050000000	4.3461621081
2.9100000000	4.5074872964
2.9150000000	4.6629866405
2.9200000000	4.8060403331
2.9250000000	4.9290096539
2.9300000000	5.0247783494
2.9350000000	5.0833703599
2.9400000000	5.1000295625
2.9450000000	5.0724307199
2.9500000000	5.0024694561
2.9550000000	4.8960978578
2.9600000000	4.7621709553
2.9650000000	4.6108852630
2.9700000000	4.4522125038
2.9750000000	4.2947525028
2.9800000000	4.1451553945
2.9850000000	4.0080174092
2.9900000000	3.8861699400
2.9950000000	3.7809872357
3.0000000000	3.6928675022
