# energy (eV)    P(omega), $W$ = 300 nm, $h$ = 300 nm, $s$ = 20 nm, $d/W = 5$, $E_{\rm e}$ = 200 keV
0.2000000000	0.2090425162
0.2050000000	0.2121745474
0.2100000000	0.2151023223
0.2150000000	0.2178325051
0.2200000000	0.2203707963
0.2250000000	0.2227220323
0.2300000000	0.2248899171
0.2350000000	0.2268769053
0.2400000000	0.2286839442
0.2450000000	0.2303103563
0.2500000000	0.2317534769
0.2550000000	0.2330081866
0.2600000000	0.2340667953
0.2650000000	0.2349181317
0.2700000000	0.2355470513
0.2750000000	0.2359334848
0.2800000000	0.2360513709
0.2850000000	0.2358671987
0.2900000000	0.2353380440
0.2950000000	0.2344094341
0.3000000000	0.2330117917
0.3050000000	0.2310564482
0.3100000000	0.2284298913
0.3150000000	0.2414254237
0.3200000000	0.2568593314
0.3250000000	0.2763806845
0.3300000000	0.3025249484
0.3350000000	0.3350675832
0.3400000000	0.3776827290
0.3450000000	0.4293691111
0.3500000000	0.4969820813
0.3550000000	0.5864433409
0.3600000000	0.7032471945
0.3650000000	0.8660786014
0.3700000000	1.0807712513
0.3750000000	1.3794026968
0.3800000000	1.8112894292
0.3850000000	2.4842256395
0.3900000000	3.5472697235
0.3950000000	5.3529010116
0.4000000000	8.7949473180
0.4050000000	16.5116584396
0.4100000000	37.5668774361
0.4150000000	120.5557225030
0.4200000000	76.8125637492
0.4250000000	-144.5670933034
0.4300000000	40.1971969886
0.4350000000	25.0477617563
0.4400000000	15.3107034087
0.4450000000	10.0695418629
0.4500000000	7.0524338486
0.4550000000	5.1957818683
0.4600000000	3.9865887140
0.4650000000	3.1626144308
0.4700000000	2.5802550060
0.4750000000	2.1590855050
0.4800000000	1.8468251597
0.4850000000	1.6118564033
0.4900000000	1.4324955435
0.4950000000	1.2941865484
0.5000000000	1.1869798483
0.5050000000	1.1035757705
0.5100000000	1.0392736302
0.5150000000	0.9906124833
0.5200000000	0.9539760659
0.5250000000	0.9277339485
0.5300000000	0.9101370816
0.5350000000	0.8999059827
0.5400000000	0.8960973037
0.5450000000	0.8979231037
0.5500000000	0.9051332825
0.5550000000	0.9172834933
0.5600000000	0.9341461992
0.5650000000	0.9556189296
0.5700000000	0.9816080998
0.5750000000	1.0122950903
0.5800000000	1.0479748864
0.5850000000	1.0888396834
0.5900000000	1.1352626456
0.5950000000	1.1877134542
0.6000000000	1.2467903712
0.6050000000	1.3133610762
0.6100000000	1.3882529592
0.6150000000	1.4725968271
0.6200000000	1.5679011398
0.6250000000	1.6756120456
0.6300000000	1.7978673118
0.6350000000	1.9373313331
0.6400000000	2.0967762136
0.6450000000	2.2802037310
0.6500000000	2.4928753027
0.6550000000	2.7402677038
0.6600000000	3.0307990024
0.6650000000	3.3752698923
0.6700000000	3.7863783380
0.6750000000	4.2834874617
0.6800000000	4.8926374304
0.6850000000	5.6479393322
0.6900000000	6.6022253168
0.6950000000	7.8293842337
0.7000000000	9.4467892413
0.7050000000	11.6338712584
0.7100000000	14.6946524115
0.7150000000	19.1703242746
0.7200000000	26.0684127469
0.7250000000	37.5186623910
0.7300000000	58.5355029556
0.7350000000	103.5049687422
0.7400000000	226.8336383833
0.7450000000	752.5009702551
0.7500000000	2331.2044388110
0.7550000000	586.4531598290
0.7600000000	194.2158259215
0.7650000000	93.0553069140
0.7700000000	54.1165641550
0.7750000000	35.3196579514
0.7800000000	24.8554419515
0.7850000000	18.4597874550
0.7900000000	14.2614135548
0.7950000000	11.3659167909
0.8000000000	9.2844696362
0.8050000000	7.7342700425
0.8100000000	6.5521675654
0.8150000000	5.6151065725
0.8200000000	4.8755577949
0.8250000000	4.2800871732
0.8300000000	3.7923073524
0.8350000000	3.3912650330
0.8400000000	3.0550772927
0.8450000000	2.7729737779
0.8500000000	2.5345159620
0.8550000000	2.3287384707
0.8600000000	2.1530734758
0.8650000000	2.0030257786
0.8700000000	1.8704471962
0.8750000000	1.7576693594
0.8800000000	1.6619737650
0.8850000000	1.5761775479
0.8900000000	1.5073516360
0.8950000000	1.4447412904
0.9000000000	1.3951172271
0.9050000000	1.3609365026
0.9100000000	1.3296127290
0.9150000000	1.3106069159
0.9200000000	1.3083065462
0.9250000000	1.3065976182
0.9300000000	1.2874207365
0.9350000000	1.2299052517
0.9400000000	0.9095468538
0.9450000000	-0.5465176819
0.9500000000	-8.2306364377
0.9550000000	-47.2052101076
0.9600000000	11.1387121202
0.9650000000	19.5664583944
0.9700000000	8.6784020051
0.9750000000	4.5559478825
0.9800000000	2.8552855185
0.9850000000	2.0598846678
0.9900000000	1.6015949497
0.9950000000	1.3237001043
1.0000000000	1.1462636095
1.0050000000	1.0337722983
1.0100000000	0.9465645967
1.0150000000	0.8828539196
1.0200000000	0.8399407111
1.0250000000	0.8039221481
1.0300000000	0.7765596929
1.0350000000	0.7558606346
1.0400000000	0.7427011166
1.0450000000	0.7317598445
1.0500000000	0.7245433357
1.0550000000	0.7206241914
1.0600000000	0.7209679966
1.0650000000	0.7228871409
1.0700000000	0.7274774363
1.0750000000	0.7347578783
1.0800000000	0.7454475948
1.0850000000	0.7590134316
1.0900000000	0.7790240004
1.0950000000	0.8027874154
1.1000000000	0.8311007428
1.1050000000	0.8637333170
1.1100000000	0.9017155402
1.1150000000	0.9459015386
1.1200000000	0.9973034927
1.1250000000	1.0572458495
1.1300000000	1.1275010561
1.1350000000	1.2102761895
1.1400000000	1.3080842065
1.1450000000	1.4255147844
1.1500000000	1.5675568247
1.1550000000	1.7414236522
1.1600000000	1.9572918829
1.1650000000	2.2283656558
1.1700000000	2.5793826424
1.1750000000	3.0431800945
1.1800000000	3.6740449810
1.1850000000	4.5612100894
1.1900000000	5.8728471834
1.1950000000	7.9318638771
1.2000000000	11.4242560489
1.2050000000	18.0239514676
1.2100000000	32.5419286862
1.2150000000	71.7836720808
1.2200000000	176.1712024514
1.2250000000	158.2768855241
1.2300000000	63.1340659085
1.2350000000	29.6096297842
1.2400000000	16.9114027693
1.2450000000	11.0809630136
1.2500000000	8.0050920302
1.2550000000	6.2298520846
1.2600000000	5.1495028327
1.2650000000	4.4726736414
1.2700000000	4.0689390482
1.2750000000	3.8537341053
1.2800000000	3.7867909525
1.2850000000	3.8505078403
1.2900000000	4.0434328985
1.2950000000	4.3755916042
1.3000000000	4.8880172397
1.3050000000	5.6333284233
1.3100000000	6.7096491421
1.3150000000	8.2867639509
1.3200000000	10.6699094937
1.3250000000	14.4408571987
1.3300000000	20.8737802920
1.3350000000	32.9228154830
1.3400000000	58.6751341338
1.3450000000	122.6056171273
1.3500000000	260.1965683492
1.3550000000	242.6696533232
1.3600000000	111.9063636147
1.3650000000	54.9836806177
1.3700000000	31.5325573317
1.3750000000	20.2783606923
1.3800000000	14.1419663440
1.3850000000	10.4454663318
1.3900000000	8.0630207626
1.3950000000	6.4375484745
1.4000000000	5.2813098152
1.4050000000	4.4320725595
1.4100000000	3.7915745048
1.4150000000	3.3011083718
1.4200000000	2.9192469002
1.4250000000	2.6349458245
1.4300000000	2.4537217113
1.4350000000	2.3333286529
1.4400000000	1.6026407209
1.4450000000	-0.4204563425
1.4500000000	-3.9421254047
1.4550000000	-1.3183054012
1.4600000000	4.0056599825
1.4650000000	2.3215722177
1.4700000000	-1.4764591957
1.4750000000	-7.4830368423
1.4800000000	-3.3009946767
1.4850000000	5.6585387981
1.4900000000	4.5807491230
1.4950000000	2.9721337930
1.5000000000	2.0926699878
1.5050000000	1.6165612670
1.5100000000	1.3440234201
1.5150000000	1.1769240293
1.5200000000	1.0674776860
1.5250000000	0.9980152349
1.5300000000	0.9432792679
1.5350000000	0.9035235748
1.5400000000	0.8747327413
1.5450000000	0.8545128406
1.5500000000	0.8412107082
1.5550000000	0.8341386466
1.5600000000	0.8347276683
1.5650000000	0.8401031788
1.5700000000	0.8533500838
1.5750000000	0.8769014363
1.5800000000	0.9155999310
1.5850000000	0.9789799285
1.5900000000	1.0872097591
1.5950000000	1.2848726058
1.6000000000	1.6659141777
1.6050000000	2.2912389955
1.6100000000	2.5825974661
1.6150000000	2.0551743016
1.6200000000	1.5662296394
1.6250000000	1.3176592144
1.6300000000	1.2035108209
1.6350000000	1.1563769623
1.6400000000	1.1457265113
1.6450000000	1.1575934670
1.6500000000	1.1851798874
1.6550000000	1.2256880279
1.6600000000	1.2776926452
1.6650000000	1.3409965449
1.6700000000	1.4161214196
1.6750000000	1.5041483661
1.6800000000	1.6066611471
1.6850000000	1.7257743756
1.6900000000	1.8639481499
1.6950000000	2.0226139178
1.7000000000	2.2052772391
1.7050000000	2.4166566467
1.7100000000	2.6728624162
1.7150000000	3.1032150602
1.7200000000	3.7530787763
1.7250000000	4.4558988089
1.7300000000	5.2917879746
1.7350000000	6.1960844849
1.7400000000	7.0306702538
1.7450000000	8.0824167895
1.7500000000	9.6948378752
1.7550000000	12.1134043855
1.7600000000	15.7420944215
1.7650000000	21.3402682492
1.7700000000	30.3582992031
1.7750000000	45.5472585985
1.7800000000	71.4165816335
1.7850000000	109.5376474354
1.7900000000	136.0349073078
1.7950000000	115.7433615117
1.8000000000	76.9557816353
1.8050000000	48.5425438395
1.8100000000	31.9605911770
1.8150000000	22.2439406951
1.8200000000	16.2646461914
1.8250000000	12.3875713799
1.8300000000	9.7537383980
1.8350000000	7.8926638926
1.8400000000	6.5343064078
1.8450000000	5.5146481381
1.8500000000	4.7302141037
1.8550000000	4.1161274008
1.8600000000	3.6267546004
1.8650000000	3.2307290701
1.8700000000	2.9051943707
1.8750000000	2.6326174090
1.8800000000	2.3980731103
1.8850000000	2.1870086743
1.8900000000	1.9814114089
1.8950000000	1.7539953722
1.9000000000	1.4585273718
1.9050000000	0.9441511592
1.9100000000	0.2054659891
1.9150000000	-0.5059610169
1.9200000000	0.3515328545
1.9250000000	3.7844329169
1.9300000000	6.5267845215
1.9350000000	6.5886011845
1.9400000000	5.2893261367
1.9450000000	4.0091185941
1.9500000000	3.1017157602
1.9550000000	2.5014884839
1.9600000000	2.1014913297
1.9650000000	1.8349628561
1.9700000000	1.6387484580
1.9750000000	1.4948672228
1.9800000000	1.3856650781
1.9850000000	1.2984820700
1.9900000000	1.2238954582
1.9950000000	1.1539185560
2.0000000000	1.0871147033
2.0050000000	1.0474040714
2.0100000000	1.0741156290
2.0150000000	1.1437619042
2.0200000000	1.1908392442
2.0250000000	1.2113378547
2.0300000000	1.2269990822
2.0350000000	1.2478813788
2.0400000000	1.2788830586
2.0450000000	1.3220873730
2.0500000000	1.3796143745
2.0550000000	1.4535724504
2.0600000000	1.5440815158
2.0650000000	1.6439071924
2.0700000000	1.7350428454
2.0750000000	1.8034245738
2.0800000000	1.8595010529
2.0850000000	1.9259837644
2.0900000000	2.0173154488
2.0950000000	2.1384972872
2.1000000000	2.2933507986
2.1050000000	2.4795344156
2.1100000000	2.7100203037
2.1150000000	2.9941044823
2.1200000000	3.3451600661
2.1250000000	3.7821630161
2.1300000000	4.3320027281
2.1350000000	5.0331517244
2.1400000000	5.9411760608
2.1450000000	7.1372965471
2.1500000000	8.7397891536
2.1550000000	10.9159426490
2.1600000000	13.8797902814
2.1650000000	17.8127108130
2.1700000000	22.6455528364
2.1750000000	27.4646377840
2.1800000000	30.4910728258
2.1850000000	30.7747368132
2.1900000000	29.6257984891
2.1950000000	28.8108074476
2.2000000000	28.5261148777
2.2050000000	27.1854625895
2.2100000000	24.1101623333
2.2150000000	20.2406373856
2.2200000000	16.7210118923
2.2250000000	13.8692214590
2.2300000000	11.5284699939
2.2350000000	9.5698974532
2.2400000000	7.9619895086
2.2450000000	6.6924147429
2.2500000000	5.7085435000
2.2550000000	4.9470333374
2.2600000000	4.3492735804
2.2650000000	3.8624498821
2.2700000000	3.4365870804
2.2750000000	3.0294723627
2.2800000000	2.6313345639
2.2850000000	2.2907911140
2.2900000000	2.0906094916
2.2950000000	2.0678603959
2.3000000000	2.1585918506
2.3050000000	2.2541681148
2.3100000000	2.2879855774
2.3150000000	2.2621465006
2.3200000000	2.2054513717
2.3250000000	2.1474996287
2.3300000000	2.1040054193
2.3350000000	2.0795601063
2.3400000000	2.0707202061
2.3450000000	2.0674585294
2.3500000000	2.0568581200
2.3550000000	2.0306673370
2.3600000000	1.9911690885
2.3650000000	1.9484283913
2.3700000000	1.9126745487
2.3750000000	1.8895914652
2.3800000000	1.8800876011
2.3850000000	1.8818719579
2.3900000000	1.8920198433
2.3950000000	1.9077301478
2.4000000000	1.9303991261
2.4050000000	1.9659491307
2.4100000000	2.0169011529
2.4150000000	2.0867326475
2.4200000000	2.1778403389
2.4250000000	2.2927927903
2.4300000000	2.4347404626
2.4350000000	2.6077218128
2.4400000000	2.8169349086
2.4450000000	3.0690452408
2.4500000000	3.3725008567
2.4550000000	3.7379603739
2.4600000000	4.1785316978
2.4650000000	4.7100153575
2.4700000000	5.3505962457
2.4750000000	6.1186094593
2.4800000000	7.0334086410
2.4850000000	8.1030358314
2.4900000000	9.3174774202
2.4950000000	10.6324378324
2.5000000000	11.9522697699
2.5050000000	13.1755300829
2.5100000000	13.9775774398
2.5150000000	14.1763125728
2.5200000000	13.7413184729
2.5250000000	12.8075105344
2.5300000000	11.5892325556
2.5350000000	10.2809142762
2.5400000000	9.0108509292
2.5450000000	7.8459797795
2.5500000000	6.8132486255
2.5550000000	5.9172824641
2.5600000000	5.1452999909
2.5650000000	4.4944939448
2.5700000000	3.9510491206
2.5750000000	3.5066177969
2.5800000000	3.1548178770
2.5850000000	2.8881177047
2.5900000000	2.6933465802
2.5950000000	2.5516004526
2.6000000000	2.4431193835
2.6050000000	2.3657139647
2.6100000000	2.2970841716
2.6150000000	2.2363094375
2.6200000000	2.1848167515
2.6250000000	2.1440683091
2.6300000000	2.1150015204
2.6350000000	2.0980649924
2.6400000000	2.0934957493
2.6450000000	2.1015341941
2.6500000000	2.1226744549
2.6550000000	2.1570271932
2.6600000000	2.2053468095
2.6650000000	2.2683506054
2.6700000000	2.3468841308
2.6750000000	2.4419356222
2.6800000000	2.5545614058
2.6850000000	2.6858440640
2.6900000000	2.8367411277
2.6950000000	3.0079861069
2.7000000000	3.1998502571
2.7050000000	3.4347854723
2.7100000000	3.6949354055
2.7150000000	3.9771296283
2.7200000000	4.2760379342
2.7250000000	4.5840780388
2.7300000000	4.8914307358
2.7350000000	5.1860731510
2.7400000000	5.4536992688
2.7450000000	5.6800305886
2.7500000000	5.8438663625
2.7550000000	5.9311714773
2.7600000000	5.9313467381
2.7650000000	5.8420570296
2.7700000000	5.6704171603
2.7750000000	5.4317910689
2.7800000000	5.1464564271
2.7850000000	4.8359806016
2.7900000000	4.5196853009
2.7950000000	4.2130569941
2.8000000000	3.9270533798
2.8050000000	3.6365487678
2.8100000000	3.3864719046
2.8150000000	3.1762622226
2.8200000000	3.0026355732
2.8250000000	2.8612258182
2.8300000000	2.7476291890
2.8350000000	2.6580968957
2.8400000000	2.5886419445
2.8450000000	2.5395057707
2.8500000000	2.5077600733
2.8550000000	2.4922968547
2.8600000000	2.4922998570
2.8650000000	2.5070768337
2.8700000000	2.5359525500
2.8750000000	2.5781557493
2.8800000000	2.6327461125
2.8850000000	2.6985307552
2.8900000000	2.7740847168
2.8950000000	2.8577219305
2.9000000000	2.9475843518
2.9050000000	3.0612348100
2.9100000000	3.1748292155
2.9150000000	3.2843107390
2.9200000000	3.3850202072
2.9250000000	3.4715818116
2.9300000000	3.5389869987
2.9350000000	3.5802140895
2.9400000000	3.5919154953
2.9450000000	3.5724556270
2.9500000000	3.5231701512
2.9550000000	3.4482507201
2.9600000000	3.3539328698
2.9650000000	3.2473963375
2.9700000000	3.1356623953
2.9750000000	3.0247862589
2.9800000000	2.9194501556
2.9850000000	2.8228899838
2.9900000000	2.7370990650
2.9950000000	2.6630448773
3.0000000000	2.6010076133
