# energy (eV)    P(omega), $W$ = 300 nm, $h$ = 300 nm, $s$ = 20 nm, $d/W = 5$, $E_{\rm e}$ = 200 keV
0.2000000000	0.0721438748
0.2050000000	0.0732250507
0.2100000000	0.0742360670
0.2150000000	0.0751792091
0.2200000000	0.0760564219
0.2250000000	0.0768693597
0.2300000000	0.0776192833
0.2350000000	0.0783070288
0.2400000000	0.0789329074
0.2450000000	0.0794966765
0.2500000000	0.0799974040
0.2550000000	0.0804333150
0.2600000000	0.0808017499
0.2650000000	0.0810988452
0.2700000000	0.0813193710
0.2750000000	0.0814563961
0.2800000000	0.0815009246
0.2850000000	0.0814413926
0.2900000000	0.0812629864
0.2950000000	0.0809469123
0.3000000000	0.0804691620
0.3050000000	0.0797991431
0.3100000000	0.0788976889
0.3150000000	0.0833812399
0.3200000000	0.0887060248
0.3250000000	0.0954407179
0.3300000000	0.1044597801
0.3350000000	0.1156862413
0.3400000000	0.1303874537
0.3450000000	0.1482188010
0.3500000000	0.1715451063
0.3550000000	0.2024097469
0.3600000000	0.2427091757
0.3650000000	0.2988903074
0.3700000000	0.3729684409
0.3750000000	0.4760128881
0.3800000000	0.6250431220
0.3850000000	0.8572589384
0.3900000000	1.2241063893
0.3950000000	1.8472373734
0.4000000000	3.0351423283
0.4050000000	5.6983913452
0.4100000000	12.9653902395
0.4150000000	41.6092156229
0.4200000000	26.5111653870
0.4250000000	-49.9018257317
0.4300000000	13.8764693846
0.4350000000	8.6472563755
0.4400000000	5.2860767235
0.4450000000	3.4767911252
0.4500000000	2.4352302992
0.4550000000	1.7942605243
0.4600000000	1.3768006779
0.4650000000	1.0923256335
0.4700000000	0.8912631648
0.4750000000	0.7458498996
0.4800000000	0.6380375898
0.4850000000	0.5569112306
0.4900000000	0.4949849506
0.4950000000	0.4472334738
0.5000000000	0.4102218616
0.5050000000	0.3814299219
0.5100000000	0.3592348218
0.5150000000	0.3424418312
0.5200000000	0.3298022168
0.5250000000	0.3207532859
0.5300000000	0.3146911193
0.5350000000	0.3111740497
0.5400000000	0.3098764617
0.5450000000	0.3105263321
0.5500000000	0.3130375960
0.5550000000	0.3172569126
0.5600000000	0.3231059336
0.5650000000	0.3305494693
0.5700000000	0.3395554695
0.5750000000	0.3501868608
0.5800000000	0.3625459329
0.5850000000	0.3766994437
0.5900000000	0.3927767365
0.5950000000	0.4109405342
0.6000000000	0.4313981213
0.6050000000	0.4544499250
0.6100000000	0.4803825859
0.6150000000	0.5095877113
0.6200000000	0.5425876768
0.6250000000	0.5798833284
0.6300000000	0.6222149476
0.6350000000	0.6705051900
0.6400000000	0.7257140900
0.6450000000	0.7892273932
0.6500000000	0.8628671080
0.6550000000	0.9485299138
0.6600000000	1.0491308645
0.6650000000	1.1684103968
0.6700000000	1.3107658598
0.6750000000	1.4829030042
0.6800000000	1.6938394412
0.6850000000	1.9553884312
0.6900000000	2.2858464544
0.6950000000	2.7108027867
0.7000000000	3.2709057844
0.7050000000	4.0282965558
0.7100000000	5.0882655907
0.7150000000	6.6382422794
0.7200000000	9.0271633723
0.7250000000	12.9926298291
0.7300000000	20.2713159842
0.7350000000	35.8456630874
0.7400000000	78.5589360160
0.7450000000	260.6200607781
0.7500000000	807.4092056740
0.7550000000	203.1230176707
0.7600000000	67.2702201094
0.7650000000	32.2323301014
0.7700000000	18.7453286619
0.7750000000	12.2346483094
0.7800000000	8.6101084662
0.7850000000	6.3947840708
0.7900000000	4.9405322836
0.7950000000	3.9375633422
0.8000000000	3.2165626279
0.8050000000	2.6795757793
0.8100000000	2.2700917672
0.8150000000	1.9454857043
0.8200000000	1.6892967096
0.8250000000	1.4830155820
0.8300000000	1.3140384401
0.8350000000	1.1751076180
0.8400000000	1.0586427166
0.8450000000	0.9609133682
0.8500000000	0.8783038040
0.8550000000	0.8070149822
0.8600000000	0.7461580708
0.8650000000	0.6941760946
0.8700000000	0.6482456131
0.8750000000	0.6091754302
0.8800000000	0.5760238795
0.8850000000	0.5463016578
0.8900000000	0.5224602267
0.8950000000	0.5007718438
0.9000000000	0.4835839842
0.9050000000	0.4717489056
0.9100000000	0.4609033397
0.9150000000	0.4543275932
0.9200000000	0.4535432369
0.9250000000	0.4529632620
0.9300000000	0.4463250395
0.9350000000	0.4263896199
0.9400000000	0.3153001625
0.9450000000	-0.1896600571
0.9500000000	-2.8545930354
0.9550000000	-16.3717203640
0.9600000000	3.8631607295
0.9650000000	6.7862943677
0.9700000000	3.0099945867
0.9750000000	1.5801756308
0.9800000000	0.9903144082
0.9850000000	0.7144339383
0.9900000000	0.5554766772
0.9950000000	0.4590885351
1.0000000000	0.3975444348
1.0050000000	0.3585273666
1.0100000000	0.3282791146
1.0150000000	0.3061808114
1.0200000000	0.2912966712
1.0250000000	0.2788032648
1.0300000000	0.2693121068
1.0350000000	0.2621319286
1.0400000000	0.2575670549
1.0450000000	0.2537709076
1.0500000000	0.2512663867
1.0550000000	0.2499052221
1.0600000000	0.2500225930
1.0650000000	0.2506855982
1.0700000000	0.2522745490
1.0750000000	0.2547960683
1.0800000000	0.2584996817
1.0850000000	0.2631996398
1.0900000000	0.2701331020
1.0950000000	0.2783670856
1.1000000000	0.2881779829
1.1050000000	0.2994850327
1.1100000000	0.3126455551
1.1150000000	0.3279554145
1.1200000000	0.3457655425
1.1250000000	0.3665339062
1.1300000000	0.3908748112
1.1350000000	0.4195527106
1.1400000000	0.4534383272
1.1450000000	0.4941205953
1.1500000000	0.5433278290
1.1550000000	0.6035583761
1.1600000000	0.6783369619
1.1650000000	0.7722373231
1.1700000000	0.8938265252
1.1750000000	1.0544783441
1.1800000000	1.2729949687
1.1850000000	1.5802827932
1.1900000000	2.0345903664
1.1950000000	2.7477572193
1.2000000000	3.9573860398
1.2050000000	6.2432640942
1.2100000000	11.2717514817
1.2150000000	24.8637992633
1.2200000000	61.0209996368
1.2250000000	54.8246359788
1.2300000000	21.8700320559
1.2350000000	10.2579798349
1.2400000000	5.8596136439
1.2450000000	3.8401305779
1.2500000000	2.7748053153
1.2550000000	2.1600261702
1.2600000000	1.7859792837
1.2650000000	1.5517425230
1.2700000000	1.4121506737
1.2750000000	1.3379202614
1.2800000000	1.3151189450
1.2850000000	1.3376707805
1.2900000000	1.4051041927
1.2950000000	1.5209306177
1.3000000000	1.6994385065
1.3050000000	1.9589533556
1.3100000000	2.3336284038
1.3150000000	2.8825537475
1.3200000000	3.7119529721
1.3250000000	5.0242892850
1.3300000000	7.2629652913
1.3350000000	11.4560215637
1.3400000000	20.4178002776
1.3450000000	42.6656368328
1.3500000000	90.5478596288
1.3550000000	84.4495928282
1.3600000000	38.9439316504
1.3650000000	19.1346041352
1.3700000000	10.9734675980
1.3750000000	7.0569235580
1.3800000000	4.9214087070
1.3850000000	3.6349983765
1.3900000000	2.8058944661
1.3950000000	2.2402250843
1.4000000000	1.8378590751
1.4050000000	1.5423387540
1.4100000000	1.3194735918
1.4150000000	1.1488433679
1.4200000000	1.0160501636
1.4250000000	0.9172968586
1.4300000000	0.8546240318
1.4350000000	0.8134534821
1.4400000000	0.5597900525
1.4450000000	-0.1432651249
1.4500000000	-1.3661013161
1.4550000000	-0.4560446731
1.4600000000	1.3909992013
1.4650000000	0.8054026948
1.4700000000	-0.5156866329
1.4750000000	-2.6062172349
1.4800000000	-1.1499399904
1.4850000000	1.9694608746
1.4900000000	1.5943400709
1.4950000000	1.0343610801
1.5000000000	0.7282124054
1.5050000000	0.5624810297
1.5100000000	0.4676112412
1.5150000000	0.4094444570
1.5200000000	0.3713452242
1.5250000000	0.3471610386
1.5300000000	0.3281021020
1.5350000000	0.3142547452
1.5400000000	0.3042206332
1.5450000000	0.2971657179
1.5500000000	0.2925128328
1.5550000000	0.2900209506
1.5600000000	0.2901850083
1.5650000000	0.2920003946
1.5700000000	0.2965331682
1.5750000000	0.3046175776
1.5800000000	0.3179164107
1.5850000000	0.3397046065
1.5900000000	0.3769111408
1.5950000000	0.4448548812
1.6000000000	0.5758231167
1.6050000000	0.7907846671
1.6100000000	0.8910923348
1.6150000000	0.7100444956
1.6200000000	0.5421542765
1.6250000000	0.4568519069
1.6300000000	0.4177534583
1.6350000000	0.4017025055
1.6400000000	0.3982101954
1.6450000000	0.4024795720
1.6500000000	0.4121761574
1.6550000000	0.4263436831
1.6600000000	0.4444954157
1.6650000000	0.4665684497
1.6700000000	0.4927479307
1.6750000000	0.5234124226
1.6800000000	0.5591142830
1.6850000000	0.6005904990
1.6900000000	0.6486967917
1.6950000000	0.7039290041
1.7000000000	0.7675032803
1.7050000000	0.8410509012
1.7100000000	0.9301940451
1.7150000000	1.0800906959
1.7200000000	1.3065163114
1.7250000000	1.5511824554
1.7300000000	1.8420552938
1.7350000000	2.1567882702
1.7400000000	2.4474143216
1.7450000000	2.8137123553
1.7500000000	3.3751932896
1.7550000000	4.2173242006
1.7600000000	5.4807784653
1.7650000000	7.4299642078
1.7700000000	10.5698894512
1.7750000000	15.8584612001
1.7800000000	24.8658533042
1.7850000000	38.1393410965
1.7900000000	47.3658795360
1.7950000000	40.3010954838
1.8000000000	26.7958613747
1.8050000000	16.9026557955
1.8100000000	11.1289325336
1.8150000000	7.7456348628
1.8200000000	5.6636587287
1.8250000000	4.3136647792
1.8300000000	3.3965645077
1.8350000000	2.7485389268
1.8400000000	2.2755609974
1.8450000000	1.9205210517
1.8500000000	1.6473896599
1.8550000000	1.4335770800
1.8600000000	1.2631950894
1.8650000000	1.1253228016
1.8700000000	1.0120031519
1.8750000000	0.9171334940
1.8800000000	0.8355202455
1.8850000000	0.7621008800
1.8900000000	0.6906110044
1.8950000000	0.6115609403
1.9000000000	0.5088705452
1.9050000000	0.3300578421
1.9100000000	0.0732927908
1.9150000000	-0.1737211688
1.9200000000	0.1260080176
1.9250000000	1.3229781442
1.9300000000	2.2791511924
1.9350000000	2.3003543361
1.9400000000	1.8464825685
1.9450000000	1.3993180704
1.9500000000	1.0823903950
1.9550000000	0.8727631521
1.9600000000	0.7330736862
1.9650000000	0.6399921223
1.9700000000	0.5714762667
1.9750000000	0.5212349336
1.9800000000	0.4831017385
1.9850000000	0.4526545141
1.9900000000	0.4266011766
1.9950000000	0.4021509362
2.0000000000	0.3788025310
2.0050000000	0.3649164893
2.0100000000	0.3742481468
2.0150000000	0.3985848982
2.0200000000	0.4150225871
2.0250000000	0.4221583595
2.0300000000	0.4275919174
2.0350000000	0.4348396932
2.0400000000	0.4456101537
2.0450000000	0.4606269568
2.0500000000	0.4806249942
2.0550000000	0.5063349946
2.0600000000	0.5377989705
2.0650000000	0.5725100837
2.0700000000	0.6042276604
2.0750000000	0.6280789493
2.0800000000	0.6476895845
2.0850000000	0.6709368320
2.0900000000	0.7028324259
2.0950000000	0.7451153404
2.1000000000	0.7991204139
2.1050000000	0.8640361465
2.1100000000	0.9443852431
2.1150000000	1.0434101221
2.1200000000	1.1657729823
2.1250000000	1.3180890035
2.1300000000	1.5097306488
2.1350000000	1.7541079609
2.1400000000	2.0705883761
2.1450000000	2.4874810055
2.1500000000	3.0460113044
2.1550000000	3.8044879285
2.1600000000	4.8375138646
2.1650000000	6.2083133168
2.1700000000	7.8927906430
2.1750000000	9.5724870865
2.1800000000	10.6273593655
2.1850000000	10.7262000923
2.1900000000	10.3256430394
2.1950000000	10.0414493265
2.2000000000	9.9421675311
2.2050000000	9.4751121748
2.2100000000	8.4037738441
2.2150000000	7.0557944206
2.2200000000	5.8297433986
2.2250000000	4.8362297408
2.2300000000	4.0204795777
2.2350000000	3.3376489596
2.2400000000	2.7769321241
2.2450000000	2.3341602426
2.2500000000	1.9910390629
2.2550000000	1.7254947758
2.2600000000	1.5170879957
2.2650000000	1.3473914125
2.2700000000	1.1989585830
2.2750000000	1.0570415466
2.2800000000	0.9182083903
2.2850000000	0.7994071494
2.2900000000	0.7295147913
2.2950000000	0.7214818647
2.3000000000	0.7530291861
2.3050000000	0.7862830777
2.3100000000	0.7980257527
2.3150000000	0.7889856560
2.3200000000	0.7692003868
2.3250000000	0.7489867890
2.3300000000	0.7338220220
2.3350000000	0.7253045713
2.3400000000	0.7222308233
2.3450000000	0.7210997575
2.3500000000	0.7174020129
2.3550000000	0.7082568624
2.3600000000	0.6944612823
2.3650000000	0.6795291342
2.3700000000	0.6670319875
2.3750000000	0.6589551511
2.3800000000	0.6556177818
2.3850000000	0.6562231023
2.3900000000	0.6597532449
2.3950000000	0.6652324469
2.4000000000	0.6731464831
2.4050000000	0.6855588224
2.4100000000	0.7033455142
2.4150000000	0.7277171149
2.4200000000	0.7595086854
2.4250000000	0.7996157206
2.4300000000	0.8491374238
2.4350000000	0.9094830610
2.4400000000	0.9824661872
2.4450000000	1.0704121638
2.4500000000	1.1762681308
2.4550000000	1.3037528023
2.4600000000	1.4574382941
2.4650000000	1.6428369004
2.4700000000	1.8662911419
2.4750000000	2.1341964565
2.4800000000	2.4533011916
2.4850000000	2.8264075208
2.4900000000	3.2500182714
2.4950000000	3.7086796838
2.5000000000	4.1690317003
2.5050000000	4.5956973660
2.5100000000	4.8754602547
2.5150000000	4.9448120482
2.5200000000	4.7931349361
2.5250000000	4.4674689234
2.5300000000	4.0425623249
2.5350000000	3.5862293601
2.5400000000	3.1432255311
2.5450000000	2.7369065316
2.5500000000	2.3766778190
2.5550000000	2.0641549659
2.5600000000	1.7948801017
2.5650000000	1.5678728427
2.5700000000	1.3783131688
2.5750000000	1.2232888229
2.5800000000	1.1005735898
2.5850000000	1.0075403613
2.5900000000	0.9395955727
2.5950000000	0.8901461802
2.6000000000	0.8523002484
2.6050000000	0.8252950343
2.6100000000	0.8013523419
2.6150000000	0.7801510891
2.6200000000	0.7621890569
2.6250000000	0.7479766724
2.6300000000	0.7378413275
2.6350000000	0.7319400851
2.6400000000	0.7303555388
2.6450000000	0.7331715160
2.6500000000	0.7405602801
2.6550000000	0.7525602401
2.6600000000	0.7694347417
2.6650000000	0.7914343267
2.6700000000	0.8188540327
2.6750000000	0.8520389481
2.6800000000	0.8913580526
2.6850000000	0.9371887708
2.6900000000	0.9898650224
2.6950000000	1.0496423738
2.7000000000	1.1166145711
2.7050000000	1.1986176841
2.7100000000	1.2894166806
2.7150000000	1.3879033088
2.7200000000	1.4922153771
2.7250000000	1.5997049806
2.7300000000	1.7069448105
2.7350000000	1.8097402133
2.7400000000	1.9031015566
2.7450000000	1.9820500373
2.7500000000	2.0391920875
2.7550000000	2.0696336647
2.7600000000	2.0696788073
2.7650000000	2.0385133955
2.7700000000	1.9786195970
2.7750000000	1.8953570779
2.7800000000	1.7957997847
2.7850000000	1.6874717748
2.7900000000	1.5771138026
2.7950000000	1.4701289528
2.8000000000	1.3703403641
2.8050000000	1.2689801823
2.8100000000	1.1817260048
2.8150000000	1.1083826821
2.8200000000	1.0478046055
2.8250000000	0.9984686108
2.8300000000	0.9588383638
2.8350000000	0.9276061946
2.8400000000	0.9033809394
2.8450000000	0.8862474290
2.8500000000	0.8751835668
2.8550000000	0.8698029582
2.8600000000	0.8698206741
2.8650000000	0.8749947380
2.8700000000	0.8850894588
2.8750000000	0.8998355620
2.8800000000	0.9189040104
2.8850000000	0.9418780158
2.8900000000	0.9682603102
2.8950000000	0.9974611456
2.9000000000	1.0288323080
2.9050000000	1.0685010924
2.9100000000	1.1081462639
2.9150000000	1.1463523591
2.9200000000	1.1814945285
2.9250000000	1.2116975825
2.9300000000	1.2352149700
2.9350000000	1.2495966061
2.9400000000	1.2536752675
2.9450000000	1.2468805246
2.9500000000	1.2296782018
2.9550000000	1.2035314674
2.9600000000	1.1706162939
2.9650000000	1.1334378254
2.9700000000	1.0944467137
2.9750000000	1.0557558173
2.9800000000	1.0189990297
2.9850000000	0.9853055448
2.9900000000	0.9553712930
2.9950000000	0.9295335507
3.0000000000	0.9078901953
