# energy (eV)    P(omega), $W$ = 300 nm, $h$ = 300 nm, $s$ = 20 nm, $d/W = 5$, $E_{\rm e}$ = 200 keV
0.2000000000	0.0579315149
0.2050000000	0.0588137018
0.2100000000	0.0596335110
0.2150000000	0.0603930256
0.2200000000	0.0610941207
0.2250000000	0.0617383445
0.2300000000	0.0623269333
0.2350000000	0.0628607480
0.2400000000	0.0633402267
0.2450000000	0.0637653081
0.2500000000	0.0641353717
0.2550000000	0.0644490821
0.2600000000	0.0647043617
0.2650000000	0.0648981219
0.2700000000	0.0650261656
0.2750000000	0.0650828716
0.2800000000	0.0650609098
0.2850000000	0.0649508198
0.2900000000	0.0647405009
0.2950000000	0.0644145350
0.3000000000	0.0639532442
0.3050000000	0.0633315508
0.3100000000	0.0625173350
0.3150000000	0.0661991889
0.3200000000	0.0705716478
0.3250000000	0.0761057792
0.3300000000	0.0835240700
0.3350000000	0.0927552038
0.3400000000	0.1048430846
0.3450000000	0.1194914821
0.3500000000	0.1386460787
0.3550000000	0.1639778989
0.3600000000	0.1970279358
0.3650000000	0.2430794468
0.3700000000	0.3037402193
0.3750000000	0.3880543418
0.3800000000	0.5099040968
0.3850000000	0.6996452535
0.3900000000	0.9991556862
0.3950000000	1.5075136039
0.4000000000	2.4759322039
0.4050000000	4.6455699894
0.4100000000	10.5611698595
0.4150000000	33.8605015009
0.4200000000	21.5883976271
0.4250000000	-40.5225168947
0.4300000000	11.2461728206
0.4350000000	6.9989888186
0.4400000000	4.2721182844
0.4450000000	2.8053799139
0.4500000000	1.9616021216
0.4550000000	1.4426811065
0.4600000000	1.1049133665
0.4650000000	0.8748701294
0.4700000000	0.7123555916
0.4750000000	0.5948613857
0.4800000000	0.5077667318
0.4850000000	0.4422299172
0.4900000000	0.3921906935
0.4950000000	0.3535825752
0.5000000000	0.3236254983
0.5050000000	0.3002818999
0.5100000000	0.2822375150
0.5150000000	0.2685238013
0.5200000000	0.2581348139
0.5250000000	0.2506117600
0.5300000000	0.2454668730
0.5350000000	0.2423418798
0.5400000000	0.2409722865
0.5450000000	0.2411372471
0.5500000000	0.2427624896
0.5550000000	0.2457221340
0.5600000000	0.2499490931
0.5650000000	0.2554113020
0.5700000000	0.2620778347
0.5750000000	0.2699942423
0.5800000000	0.2792342399
0.5850000000	0.2898449527
0.5900000000	0.3019209619
0.5950000000	0.3155833776
0.6000000000	0.3309859023
0.6050000000	0.3483553252
0.6100000000	0.3679051371
0.6150000000	0.3899293900
0.6200000000	0.4148206431
0.6250000000	0.4429548444
0.6300000000	0.4748888288
0.6350000000	0.5113163904
0.6400000000	0.5529585029
0.6450000000	0.6008576162
0.6500000000	0.6563832691
0.6550000000	0.7209603034
0.6600000000	0.7967806391
0.6650000000	0.8866537368
0.6700000000	0.9938819445
0.6750000000	1.1235037292
0.6800000000	1.2822914305
0.6850000000	1.4791133320
0.6900000000	1.7277040487
0.6950000000	2.0472682145
0.7000000000	2.4683071318
0.7050000000	3.0374371641
0.7100000000	3.8336290621
0.7150000000	4.9974401420
0.7200000000	6.7904716924
0.7250000000	9.7656059409
0.7300000000	15.2243068403
0.7350000000	26.8995209844
0.7400000000	58.9054584474
0.7450000000	195.2625548132
0.7500000000	604.4431990350
0.7550000000	151.9395930604
0.7600000000	50.2786324788
0.7650000000	24.0713558802
0.7700000000	13.9877906769
0.7750000000	9.1220877224
0.7800000000	6.4144164409
0.7850000000	4.7601362115
0.7900000000	3.6746085556
0.7950000000	2.9262295197
0.8000000000	2.3884474661
0.8050000000	1.9880685516
0.8100000000	1.6828687762
0.8150000000	1.4410372283
0.8200000000	1.2502395443
0.8250000000	1.0966612469
0.8300000000	0.9709004076
0.8350000000	0.8675274885
0.8400000000	0.7808962025
0.8450000000	0.7082179910
0.8500000000	0.6467916055
0.8550000000	0.5937989215
0.8600000000	0.5485629499
0.8650000000	0.5099184119
0.8700000000	0.4757824201
0.8750000000	0.4467313652
0.8800000000	0.4220617700
0.8850000000	0.3999462539
0.8900000000	0.3821625113
0.8950000000	0.3659859552
0.9000000000	0.3531172117
0.9050000000	0.3441645484
0.9100000000	0.3359542060
0.9150000000	0.3308614376
0.9200000000	0.3299794850
0.9250000000	0.3292647391
0.9300000000	0.3242117100
0.9350000000	0.3096507193
0.9400000000	0.2296437621
0.9450000000	-0.1329989989
0.9500000000	-2.0447040011
0.9550000000	-11.7336183775
0.9600000000	2.7674052227
0.9650000000	4.8572985440
0.9700000000	2.1533714558
0.9750000000	1.1303257737
0.9800000000	0.7085039592
0.9850000000	0.5112695265
0.9900000000	0.3976814231
0.9950000000	0.3288248894
1.0000000000	0.2848655404
1.0050000000	0.2569834021
1.0100000000	0.2353890245
1.0150000000	0.2196195149
1.0200000000	0.2089911664
1.0250000000	0.2000901889
1.0300000000	0.1933398630
1.0350000000	0.1882475961
1.0400000000	0.1850205992
1.0450000000	0.1823626330
1.0500000000	0.1806385509
1.0550000000	0.1797433119
1.0600000000	0.1799088913
1.0650000000	0.1804887725
1.0700000000	0.1817483214
1.0750000000	0.1836930668
1.0800000000	0.1864981948
1.0850000000	0.1900554753
1.0900000000	0.1952691141
1.0950000000	0.2014527654
1.1000000000	0.2088073921
1.1050000000	0.2172981638
1.1100000000	0.2271854919
1.1150000000	0.2386939961
1.1200000000	0.2520816211
1.1250000000	0.2677215100
1.1300000000	0.2860712946
1.1350000000	0.3077150254
1.1400000000	0.3333084747
1.1450000000	0.3640876899
1.1500000000	0.4013647696
1.1550000000	0.4470511667
1.1600000000	0.5038437997
1.1650000000	0.5752327220
1.1700000000	0.6677990026
1.1750000000	0.7902409590
1.1800000000	0.9569517139
1.1850000000	1.1915992607
1.1900000000	1.5387379210
1.1950000000	2.0840253023
1.2000000000	3.0092752042
1.2050000000	4.7580936508
1.2100000000	8.6051438708
1.2150000000	19.0008925758
1.2200000000	46.6385996957
1.2250000000	41.8619048407
1.2300000000	16.6604047438
1.2350000000	7.7840265104
1.2400000000	4.4213246542
1.2450000000	2.8756146173
1.2500000000	2.0580656516
1.2550000000	1.5837766838
1.2600000000	1.2923332704
1.2650000000	1.1065045788
1.2700000000	0.9914144828
1.2750000000	0.9243940318
1.2800000000	0.8942958659
1.2850000000	0.8957832686
1.2900000000	0.9274878919
1.2950000000	0.9908064181
1.3000000000	1.0942432269
1.3050000000	1.2485591833
1.3100000000	1.4744972523
1.3150000000	1.8081211070
1.3200000000	2.3145323465
1.3250000000	3.1176191235
1.3300000000	4.4895927470
1.3350000000	7.0607116110
1.3400000000	12.5563774618
1.3450000000	26.1963086694
1.3500000000	55.5358135562
1.3550000000	51.7601358694
1.3600000000	23.8602805200
1.3650000000	11.7222326527
1.3700000000	6.7231478594
1.3750000000	4.3245235830
1.3800000000	3.0167462568
1.3850000000	2.2288647836
1.3900000000	1.7208394359
1.3950000000	1.3740494579
1.4000000000	1.1270146641
1.4050000000	0.9451143624
1.4100000000	0.8071938107
1.4150000000	0.7002968276
1.4200000000	0.6147821487
1.4250000000	0.5462889884
1.4300000000	0.4908788431
1.4350000000	0.4345387956
1.4400000000	0.2561705312
1.4450000000	-0.2057468984
1.4500000000	-1.0507691857
1.4550000000	-0.3816206720
1.4600000000	0.9587370209
1.4650000000	0.5834169575
1.4700000000	-0.2489590729
1.4750000000	-1.5214105350
1.4800000000	-0.6631511759
1.4850000000	1.1943115031
1.4900000000	0.9662094343
1.4950000000	0.6295520091
1.5000000000	0.4452791610
1.5050000000	0.3451760963
1.5100000000	0.2877879212
1.5150000000	0.2524651642
1.5200000000	0.2292308508
1.5250000000	0.2144422114
1.5300000000	0.2026931198
1.5350000000	0.1940941034
1.5400000000	0.1877967612
1.5450000000	0.1832828556
1.5500000000	0.1802125531
1.5550000000	0.1784140692
1.5600000000	0.1781764812
1.5650000000	0.1788368454
1.5700000000	0.1809994841
1.5750000000	0.1850761087
1.5800000000	0.1919018945
1.5850000000	0.2031216958
1.5900000000	0.2222045358
1.5950000000	0.2567734754
1.6000000000	0.3227141711
1.6050000000	0.4294649356
1.6100000000	0.4768180486
1.6150000000	0.3850963910
1.6200000000	0.3021616374
1.6250000000	0.2610299022
1.6300000000	0.2430475918
1.6350000000	0.2366116564
1.6400000000	0.2365262776
1.6450000000	0.2404412432
1.6500000000	0.2472468297
1.6550000000	0.2564793047
1.6600000000	0.2679588759
1.6650000000	0.2817062044
1.6700000000	0.2978773012
1.6750000000	0.3167437557
1.6800000000	0.3386911489
1.6850000000	0.3642327902
1.6900000000	0.3940272824
1.6950000000	0.4287005100
1.7000000000	0.4695733200
1.7050000000	0.5190539249
1.7100000000	0.5799977235
1.7150000000	0.6665268295
1.7200000000	0.7864317424
1.7250000000	0.9317801969
1.7300000000	1.1143210478
1.7350000000	1.3093870463
1.7400000000	1.4816005201
1.7450000000	1.6957519566
1.7500000000	2.0279949908
1.7550000000	2.5295346530
1.7600000000	3.2837024530
1.7650000000	4.4478940927
1.7700000000	6.3232154974
1.7750000000	9.4807857985
1.7800000000	14.8559618619
1.7850000000	22.7703628993
1.7900000000	28.2580353063
1.7950000000	24.0240950881
1.8000000000	15.9593734280
1.8050000000	10.0571904101
1.8100000000	6.6145015281
1.8150000000	4.5979092850
1.8200000000	3.3572584611
1.8250000000	2.5528618916
1.8300000000	2.0063307190
1.8350000000	1.6199759825
1.8400000000	1.3377405891
1.8450000000	1.1255494727
1.8500000000	0.9618980910
1.8550000000	0.8332951211
1.8600000000	0.7302003044
1.8650000000	0.6460209464
1.8700000000	0.5758899568
1.8750000000	0.5159913398
1.8800000000	0.4629696979
1.8850000000	0.4134221032
1.8900000000	0.3630239881
1.8950000000	0.3051996380
1.9000000000	0.2288825164
1.9050000000	0.0989858315
1.9100000000	-0.0896332961
1.9150000000	-0.2927737009
1.9200000000	-0.2019358613
1.9250000000	0.3915543678
1.9300000000	0.8682689537
1.9350000000	0.9069588701
1.9400000000	0.7476268707
1.9450000000	0.5866365977
1.9500000000	0.4708802090
1.9550000000	0.3932156856
1.9600000000	0.3408163717
1.9650000000	0.3061252756
1.9700000000	0.2798545854
1.9750000000	0.2605740364
1.9800000000	0.2460518544
1.9850000000	0.2347114735
1.9900000000	0.2254294371
1.9950000000	0.2172956947
2.0000000000	0.2100907538
2.0050000000	0.2064195402
2.0100000000	0.2097873340
2.0150000000	0.2178395303
2.0200000000	0.2241777525
2.0250000000	0.2284990663
2.0300000000	0.2331127701
2.0350000000	0.2390151112
2.0400000000	0.2469663175
2.0450000000	0.2574612569
2.0500000000	0.2710948300
2.0550000000	0.2884703634
2.0600000000	0.3096165961
2.0650000000	0.3325246019
2.0700000000	0.3522105826
2.0750000000	0.3647162623
2.0800000000	0.3727438966
2.0850000000	0.3823288357
2.0900000000	0.3972073299
2.0950000000	0.4185213588
2.1000000000	0.4468851801
2.1050000000	0.4816499925
2.1100000000	0.5252413304
2.1150000000	0.5793430264
2.1200000000	0.6464541277
2.1250000000	0.7301670453
2.1300000000	0.8356040174
2.1350000000	0.9701118698
2.1400000000	1.1443101639
2.1450000000	1.3737213386
2.1500000000	1.6809416307
2.1550000000	2.0979088782
2.1600000000	2.6654574930
2.1650000000	3.4181198233
2.1700000000	4.3428153083
2.1750000000	5.2656700967
2.1800000000	5.8491619340
2.1850000000	5.9148495056
2.1900000000	5.7139849924
2.1950000000	5.5806321316
2.2000000000	5.5422291592
2.2050000000	5.2756839846
2.2100000000	4.6455445317
2.2150000000	3.8451280506
2.2200000000	3.1127717845
2.2250000000	2.5261980839
2.2300000000	2.0645168245
2.2350000000	1.6978182644
2.2400000000	1.4068842271
2.2450000000	1.1798047962
2.2500000000	1.0027098051
2.2550000000	0.8629837615
2.2600000000	0.7500963879
2.2650000000	0.6552863266
2.2700000000	0.5711920837
2.2750000000	0.4926469417
2.2800000000	0.4200164731
2.2850000000	0.3624188545
2.2900000000	0.3333603880
2.2950000000	0.3374962394
2.3000000000	0.3615028182
2.3050000000	0.3849639054
2.3100000000	0.3950905990
2.3150000000	0.3925321611
2.3200000000	0.3828879492
2.3250000000	0.3718741613
2.3300000000	0.3625798173
2.3350000000	0.3560755450
2.3400000000	0.3521396043
2.3450000000	0.3496260508
2.3500000000	0.3470049369
2.3550000000	0.3432978923
2.3600000000	0.3387762618
2.3650000000	0.3346267282
2.3700000000	0.3320257286
2.3750000000	0.3315481604
2.3800000000	0.3330964964
2.3850000000	0.3360808988
2.3900000000	0.3398442753
2.3950000000	0.3438246437
2.4000000000	0.3483574334
2.4050000000	0.3546922538
2.4100000000	0.3634643448
2.4150000000	0.3754791970
2.4200000000	0.3912846628
2.4250000000	0.4113791566
2.4300000000	0.4363217399
2.4350000000	0.4668131747
2.4400000000	0.5037550887
2.4450000000	0.5483107072
2.4500000000	0.6019604685
2.4550000000	0.6665773268
2.4600000000	0.7444740768
2.4650000000	0.8384491362
2.4700000000	0.9517440418
2.4750000000	1.0876584172
2.4800000000	1.2497613219
2.4850000000	1.4396576523
2.4900000000	1.6557757014
2.4950000000	1.8902985576
2.5000000000	2.1258602277
2.5050000000	2.3435757175
2.5100000000	2.4842257637
2.5150000000	2.5150183835
2.5200000000	2.4317134891
2.5250000000	2.2603754724
2.5300000000	2.0406579606
2.5350000000	1.8073427975
2.5400000000	1.5824605871
2.5450000000	1.3768997713
2.5500000000	1.1947290547
2.5550000000	1.0364653819
2.5600000000	0.8998125751
2.5650000000	0.7844710815
2.5700000000	0.6881394928
2.5750000000	0.6094555633
2.5800000000	0.5473553923
2.5850000000	0.5005209797
2.5900000000	0.4665730029
2.5950000000	0.4420669870
2.6000000000	0.4234002576
2.6050000000	0.4100868753
2.6100000000	0.3981327328
2.6150000000	0.3873908192
2.6200000000	0.3781295628
2.6250000000	0.3706128725
2.6300000000	0.3650001007
2.6350000000	0.3613603381
2.6400000000	0.3597298311
2.6450000000	0.3601495273
2.6500000000	0.3627073511
2.6550000000	0.3674180976
2.6600000000	0.3744053571
2.6650000000	0.3837783085
2.6700000000	0.3956655944
2.6750000000	0.4102198460
2.6800000000	0.4276109382
2.6850000000	0.4480244029
2.6900000000	0.4716395282
2.6950000000	0.4986188177
2.7000000000	0.5290748422
2.7050000000	0.5666749066
2.7100000000	0.6088170272
2.7150000000	0.6552118797
2.7200000000	0.7052341429
2.7250000000	0.7578421323
2.7300000000	0.8115038431
2.7350000000	0.8641320903
2.7400000000	0.9130506394
2.7450000000	0.9554343057
2.7500000000	0.9871819272
2.7550000000	1.0054764984
2.7600000000	1.0082023058
2.7650000000	0.9948151277
2.7700000000	0.9665342584
2.7750000000	0.9260954784
2.7800000000	0.8771271202
2.7850000000	0.8234891075
2.7900000000	0.7686296935
2.7950000000	0.7153096157
2.8000000000	0.6654761769
2.8050000000	0.6148031075
2.8100000000	0.5710600927
2.8150000000	0.5341473501
2.8200000000	0.5034846652
2.8250000000	0.4783008953
2.8300000000	0.4578224699
2.8350000000	0.4413901016
2.8400000000	0.4283029245
2.8450000000	0.4186081479
2.8500000000	0.4117921407
2.8550000000	0.4076635246
2.8600000000	0.4060869089
2.8650000000	0.4069553311
2.8700000000	0.4101735729
2.8750000000	0.4156441952
2.8800000000	0.4232544720
2.8850000000	0.4328642416
2.8900000000	0.4443009348
2.8950000000	0.4573537850
2.9000000000	0.4717727985
2.9050000000	0.4907138118
2.9100000000	0.5101601648
2.9150000000	0.5293619255
2.9200000000	0.5474172896
2.9250000000	0.5632806375
2.9300000000	0.5759692307
2.9350000000	0.5841747353
2.9400000000	0.5872418035
2.9450000000	0.5848348511
2.9500000000	0.5771514207
2.9550000000	0.5648924795
2.9600000000	0.5491256646
2.9650000000	0.5310895434
2.9700000000	0.5119995087
2.9750000000	0.4929101090
2.9800000000	0.4746392013
2.9850000000	0.4577573274
2.9900000000	0.4426155903
2.9950000000	0.4293928346
3.0000000000	0.4181467240
