# energy (eV)    P(omega), $W$ = 300 nm, $h$ = 300 nm, $s$ = 20 nm, $d/W = 5$, $E_{\rm e}$ = 200 keV
0.2000000000	0.2259789663
0.2050000000	0.2294219464
0.2100000000	0.2326222202
0.2150000000	0.2355878674
0.2200000000	0.2383261730
0.2250000000	0.2408431386
0.2300000000	0.2431435536
0.2350000000	0.2452307430
0.2400000000	0.2471063954
0.2450000000	0.2487702427
0.2500000000	0.2502198425
0.2550000000	0.2514499619
0.2600000000	0.2524524805
0.2650000000	0.2532153331
0.2700000000	0.2537221317
0.2750000000	0.2539509392
0.2800000000	0.2538731446
0.2850000000	0.2534518347
0.2900000000	0.2526397981
0.2950000000	0.2513768806
0.3000000000	0.2495863175
0.3050000000	0.2471702698
0.3100000000	0.2440034286
0.3150000000	0.2583667542
0.3200000000	0.2754241220
0.3250000000	0.2970126740
0.3300000000	0.3259503048
0.3350000000	0.3619597715
0.3400000000	0.4091129365
0.3450000000	0.4662557822
0.3500000000	0.5409779174
0.3550000000	0.6397987121
0.3600000000	0.7687314738
0.3650000000	0.9483872770
0.3700000000	1.1850432879
0.3750000000	1.5139854956
0.3800000000	1.9893789152
0.3850000000	2.7296623404
0.3900000000	3.8982417611
0.3950000000	5.8817111501
0.4000000000	9.6602850181
0.4050000000	18.1259448604
0.4100000000	41.2083986512
0.4150000000	132.1235608213
0.4200000000	84.2378808851
0.4250000000	-158.1288968545
0.4300000000	43.8874247725
0.4350000000	27.3140674632
0.4400000000	16.6729111995
0.4450000000	10.9490845847
0.4500000000	7.6562451917
0.4550000000	5.6311204184
0.4600000000	4.3129361694
0.4650000000	3.4151475654
0.4700000000	2.7808940784
0.4750000000	2.3223391254
0.4800000000	1.9824249444
0.4850000000	1.7266467812
0.4900000000	1.5313540263
0.4950000000	1.3806766642
0.5000000000	1.2637652938
0.5050000000	1.1726677591
0.5100000000	1.1022551356
0.5150000000	1.0487477199
0.5200000000	1.0082191882
0.5250000000	0.9788793306
0.5300000000	0.9588245554
0.5350000000	0.9466566254
0.5400000000	0.9413434391
0.5450000000	0.9420232256
0.5500000000	0.9484064840
0.5550000000	0.9600021870
0.5600000000	0.9765487993
0.5650000000	0.9979216221
0.5700000000	1.0240003093
0.5750000000	1.0549633146
0.5800000000	1.0910990522
0.5850000000	1.1325922205
0.5900000000	1.1798127716
0.5950000000	1.2332345440
0.6000000000	1.2934585826
0.6050000000	1.3613716982
0.6100000000	1.4378087729
0.6150000000	1.5239196089
0.6200000000	1.6212391807
0.6250000000	1.7312374315
0.6300000000	1.8560917070
0.6350000000	1.9985146648
0.6400000000	2.1613254402
0.6450000000	2.3485999866
0.6500000000	2.5656932312
0.6550000000	2.8181765065
0.6600000000	3.1146201912
0.6650000000	3.4660095330
0.6700000000	3.8852570615
0.6750000000	4.3920639463
0.6800000000	5.0129103642
0.6850000000	5.7824725226
0.6900000000	6.7544554304
0.6950000000	8.0039522958
0.7000000000	9.6502288661
0.7050000000	11.8755653451
0.7100000000	14.9887552106
0.7150000000	19.5394115229
0.7200000000	26.5504652683
0.7250000000	38.1838399671
0.7300000000	59.5286602288
0.7350000000	105.1819439760
0.7400000000	230.3351231207
0.7450000000	763.5394876815
0.7500000000	2363.6102934518
0.7550000000	594.1541098818
0.7600000000	196.6161943436
0.7650000000	94.1334530141
0.7700000000	54.7016082364
0.7750000000	35.6740735845
0.7800000000	25.0855149387
0.7850000000	18.6162667585
0.7900000000	14.3711515690
0.7950000000	11.4444803066
0.8000000000	9.3413693045
0.8050000000	7.7755888498
0.8100000000	6.5820201447
0.8150000000	5.6362612396
0.8200000000	4.8900807580
0.8250000000	4.2894548668
0.8300000000	3.7976163537
0.8350000000	3.3933319237
0.8400000000	3.0545208808
0.8450000000	2.7702780630
0.8500000000	2.5300399008
0.8550000000	2.3227845765
0.8600000000	2.1458655392
0.8650000000	1.9947258701
0.8700000000	1.8612184507
0.8750000000	1.7475992931
0.8800000000	1.6511172679
0.8850000000	1.5646239576
0.8900000000	1.4950751073
0.8950000000	1.4318115957
0.9000000000	1.3814876669
0.9050000000	1.3464840471
0.9100000000	1.3143832792
0.9150000000	1.2944795200
0.9200000000	1.2910510275
0.9250000000	1.2882758127
0.9300000000	1.2685227553
0.9350000000	1.2115592604
0.9400000000	0.8984792925
0.9450000000	-0.5206827344
0.9500000000	-8.0021000189
0.9550000000	-45.9200617758
0.9600000000	10.8303936464
0.9650000000	19.0096758166
0.9700000000	8.4275627898
0.9750000000	4.4237125849
0.9800000000	2.7728322202
0.9850000000	2.0009145444
0.9900000000	1.5563611245
0.9950000000	1.2868744296
1.0000000000	1.1148290468
1.0050000000	1.0057071003
1.0100000000	0.9211926369
1.0150000000	0.8594753320
1.0200000000	0.8178801522
1.0250000000	0.7830445039
1.0300000000	0.7566258195
1.0350000000	0.7366961728
1.0400000000	0.7240671595
1.0450000000	0.7136642436
1.0500000000	0.7069159787
1.0550000000	0.7034112637
1.0600000000	0.7040583845
1.0650000000	0.7063260168
1.0700000000	0.7112530903
1.0750000000	0.7188613525
1.0800000000	0.7298366143
1.0850000000	0.7437540852
1.0900000000	0.7641520226
1.0950000000	0.7883451108
1.1000000000	0.8171199021
1.1050000000	0.8503391349
1.1100000000	0.8890219466
1.1150000000	0.9340471301
1.1200000000	0.9864240727
1.1250000000	1.0476115912
1.1300000000	1.1194002274
1.1350000000	1.2040748403
1.1400000000	1.3042010562
1.1450000000	1.4246131507
1.1500000000	1.5704442950
1.1550000000	1.7491717730
1.1600000000	1.9713454899
1.1650000000	2.2506185514
1.1700000000	2.6127337309
1.1750000000	3.0917181268
1.1800000000	3.7438752992
1.1850000000	4.6617912114
1.1900000000	6.0197585049
1.1950000000	8.1528566761
1.2000000000	11.7723259276
1.2050000000	18.6135196754
1.2100000000	33.6628513128
1.2150000000	74.3304650718
1.2200000000	182.4491772590
1.2250000000	163.7658285352
1.2300000000	65.1782936029
1.2350000000	30.4537651607
1.2400000000	17.2987687551
1.2450000000	11.2519330645
1.2500000000	8.0537327987
1.2550000000	6.1984229940
1.2600000000	5.0584583710
1.2650000000	4.3317112839
1.2700000000	3.8817577686
1.2750000000	3.6199244967
1.2800000000	3.5026207762
1.2850000000	3.5089929162
1.2900000000	3.6337242362
1.2950000000	3.8823232227
1.3000000000	4.2881480330
1.3050000000	4.8934101066
1.3100000000	5.7794495301
1.3150000000	7.0876751493
1.3200000000	9.0733442698
1.3250000000	12.2222156438
1.3300000000	17.6015847159
1.3350000000	27.6826211785
1.3400000000	49.2304226899
1.3450000000	102.7109875101
1.3500000000	217.7484574587
1.3550000000	202.9460420140
1.3600000000	93.5540142076
1.3650000000	45.9618548849
1.3700000000	26.3608399819
1.3750000000	16.9560016062
1.3800000000	11.8282914362
1.3850000000	8.7390593196
1.3900000000	6.7471299577
1.3950000000	5.3873955508
1.4000000000	4.4188012032
1.4050000000	3.7056016789
1.4100000000	3.1648556175
1.4150000000	2.7457729829
1.4200000000	2.4105684296
1.4250000000	2.1421864907
1.4300000000	1.9252984077
1.4350000000	1.7050895467
1.4400000000	1.0064818451
1.4450000000	-0.8031834660
1.4500000000	-4.1128829129
1.4550000000	-1.4929927539
1.4600000000	3.7552847799
1.4650000000	2.2843114966
1.4700000000	-0.9785442535
1.4750000000	-5.9679751567
1.4800000000	-2.6016999037
1.4850000000	4.6830361665
1.4900000000	3.7886127496
1.4950000000	2.4683916874
1.5000000000	1.7457571349
1.5050000000	1.3532015955
1.5100000000	1.1281489039
1.5150000000	0.9896233327
1.5200000000	0.8984985637
1.5250000000	0.8404870564
1.5300000000	0.7943907361
1.5350000000	0.7606400906
1.5400000000	0.7359063509
1.5450000000	0.7181549662
1.5500000000	0.7060492618
1.5550000000	0.6989106188
1.5600000000	0.6978642913
1.5650000000	0.7002985730
1.5700000000	0.7085623847
1.5750000000	0.7242352217
1.5800000000	0.7505289526
1.5850000000	0.7937721837
1.5900000000	0.8673145173
1.5950000000	1.0004920485
1.6000000000	1.2544381124
1.6050000000	1.6654812290
1.6100000000	1.8479573503
1.6150000000	1.4952724259
1.6200000000	1.1764658163
1.6250000000	1.0185887295
1.6300000000	0.9498559883
1.6350000000	0.9256199597
1.6400000000	0.9258923852
1.6450000000	0.9416373106
1.6500000000	0.9685928998
1.6550000000	1.0049887343
1.6600000000	1.0501470643
1.6650000000	1.1041653186
1.6700000000	1.1676657057
1.6750000000	1.2417202678
1.6800000000	1.3278455902
1.6850000000	1.4280591177
1.6900000000	1.5449468291
1.6950000000	1.6809679558
1.7000000000	1.8413114288
1.7050000000	2.0354405395
1.7100000000	2.2745693485
1.7150000000	2.6139961778
1.7200000000	3.0841789786
1.7250000000	3.6541443318
1.7300000000	4.3699909372
1.7350000000	5.1350077201
1.7400000000	5.8105120658
1.7450000000	6.6505458983
1.7500000000	7.9537288072
1.7550000000	9.9209014189
1.7600000000	12.8789219127
1.7650000000	17.4451453549
1.7700000000	24.8005961071
1.7750000000	37.1853709938
1.7800000000	58.2682566141
1.7850000000	89.3109016242
1.7900000000	110.8356859947
1.7950000000	94.2296706102
1.8000000000	62.5978461027
1.8050000000	39.4478209242
1.8100000000	25.9445539674
1.8150000000	18.0348334133
1.8200000000	13.1685846783
1.8250000000	10.0134598340
1.8300000000	7.8697662023
1.8350000000	6.3543381055
1.8400000000	5.2473015871
1.8450000000	4.4150037984
1.8500000000	3.7730962182
1.8550000000	3.2686621205
1.8600000000	2.8642806013
1.8650000000	2.5340930877
1.8700000000	2.2590090999
1.8750000000	2.0240608535
1.8800000000	1.8160871822
1.8850000000	1.6217403697
1.8900000000	1.4240573839
1.8950000000	1.1972449609
1.9000000000	0.8978937881
1.9050000000	0.3883733443
1.9100000000	-0.3514922287
1.9150000000	-1.1483187685
1.9200000000	-0.7919632660
1.9250000000	1.5361643217
1.9300000000	3.4062436627
1.9350000000	3.5580381460
1.9400000000	2.9329917897
1.9450000000	2.3014270040
1.9500000000	1.8473108996
1.9550000000	1.5426292666
1.9600000000	1.3370639905
1.9650000000	1.2009688264
1.9700000000	1.0979078009
1.9750000000	1.0222695654
1.9800000000	0.9652986265
1.9850000000	0.9208099047
1.9900000000	0.8843958361
1.9950000000	0.8524860160
2.0000000000	0.8242197968
2.0050000000	0.8098189539
2.0100000000	0.8230382631
2.0150000000	0.8546363673
2.0200000000	0.8795042270
2.0250000000	0.8964536212
2.0300000000	0.9145464670
2.0350000000	0.9376915292
2.0400000000	0.9688700519
2.0450000000	1.0100212791
2.0500000000	1.0634758985
2.0550000000	1.1315978285
2.0600000000	1.2145004351
2.0650000000	1.3043157344
2.0700000000	1.3815228535
2.0750000000	1.4306184396
2.0800000000	1.4621898365
2.0850000000	1.4998811870
2.0900000000	1.5583316690
2.0950000000	1.6420185253
2.1000000000	1.7533549694
2.1050000000	1.8898005186
2.1100000000	2.0608739749
2.1150000000	2.2731850908
2.1200000000	2.5365419097
2.1250000000	2.8650422463
2.1300000000	3.2787868509
2.1350000000	3.8066059133
2.1400000000	4.4901711979
2.1450000000	5.3903947202
2.1500000000	6.5959465717
2.1550000000	8.2321543731
2.1600000000	10.4592599010
2.1650000000	13.4127778293
2.1700000000	17.0413963494
2.1750000000	20.6628454232
2.1800000000	22.9526758697
2.1850000000	23.2106542698
2.1900000000	22.4226865581
2.1950000000	21.8996551283
2.2000000000	21.7492163377
2.2050000000	20.7034694348
2.2100000000	18.2308435010
2.2150000000	15.0899662573
2.2200000000	12.2161359275
2.2250000000	9.9143324482
2.2300000000	8.1025538533
2.2350000000	6.6634443741
2.2400000000	5.5216324805
2.2450000000	4.6304120354
2.2500000000	3.9353644039
2.2550000000	3.3869823681
2.2600000000	2.9439390321
2.2650000000	2.5718468428
2.2700000000	2.2418126046
2.2750000000	1.9335552169
2.2800000000	1.6485056496
2.2850000000	1.4224468716
2.2900000000	1.3083866605
2.2950000000	1.3245994720
2.3000000000	1.4188010653
2.3050000000	1.5108667041
2.3100000000	1.5506038119
2.3150000000	1.5405575382
2.3200000000	1.5027014735
2.3250000000	1.4594687267
2.3300000000	1.4229823839
2.3350000000	1.3974443818
2.3400000000	1.3819852035
2.3450000000	1.3721091321
2.3500000000	1.3618136656
2.3550000000	1.3472606080
2.3600000000	1.3295148197
2.3650000000	1.3132327768
2.3700000000	1.3030307600
2.3750000000	1.3011648426
2.3800000000	1.3072520517
2.3850000000	1.3189775867
2.3900000000	1.3337629345
2.3950000000	1.3494026592
2.4000000000	1.3672126829
2.4050000000	1.3920973605
2.4100000000	1.4265480317
2.4150000000	1.4737256114
2.4200000000	1.5357806448
2.4250000000	1.6146698615
2.4300000000	1.7125881194
2.4350000000	1.8322865030
2.4400000000	1.9773046826
2.4450000000	2.1522091163
2.4500000000	2.3628115004
2.4550000000	2.6164643319
2.4600000000	2.9222465088
2.4650000000	3.2911438216
2.4700000000	3.7358801988
2.4750000000	4.2694088858
2.4800000000	4.9057396809
2.4850000000	5.6511712306
2.4900000000	6.4995330272
2.4950000000	7.4201397425
2.5000000000	8.3448220440
2.5050000000	9.1994487865
2.5100000000	9.7515650821
2.5150000000	9.8724510150
2.5200000000	9.5454624808
2.5250000000	8.8729103175
2.5300000000	8.0104487017
2.5350000000	7.0946091967
2.5400000000	6.2118690770
2.5450000000	5.4049688258
2.5500000000	4.6898803291
2.5550000000	4.0686327300
2.5600000000	3.5322141376
2.5650000000	3.0794487976
2.5700000000	2.7013038899
2.5750000000	2.3924329146
2.5800000000	2.1486601349
2.5850000000	1.9648123448
2.5900000000	1.8315499151
2.5950000000	1.7353516106
2.6000000000	1.6620749658
2.6050000000	1.6098121625
2.6100000000	1.5628845036
2.6150000000	1.5207152149
2.6200000000	1.4843585906
2.6250000000	1.4548513375
2.6300000000	1.4328197926
2.6350000000	1.4185355363
2.6400000000	1.4121411013
2.6450000000	1.4137968782
2.6500000000	1.4238475911
2.6550000000	1.4423506400
2.6600000000	1.4697908392
2.6650000000	1.5065965051
2.6700000000	1.5532725059
2.6750000000	1.6104180206
2.6800000000	1.6787000062
2.6850000000	1.7588469877
2.6900000000	1.8515630254
2.6950000000	1.9574862599
2.7000000000	2.0770589192
2.7050000000	2.2246786170
2.7100000000	2.3901307443
2.7150000000	2.5722798928
2.7200000000	2.7686716357
2.7250000000	2.9752169747
2.7300000000	3.1859013251
2.7350000000	3.3925310442
2.7400000000	3.5845994020
2.7450000000	3.7510135282
2.7500000000	3.8756725447
2.7550000000	3.9475150810
2.7600000000	3.9582338981
2.7650000000	3.9056913930
2.7700000000	3.7946740157
2.7750000000	3.6359213921
2.7800000000	3.4436785400
2.7850000000	3.2331000655
2.7900000000	3.0177237398
2.7950000000	2.8083892678
2.8000000000	2.6127418979
2.8050000000	2.4137959447
2.8100000000	2.2420568843
2.8150000000	2.0971333836
2.8200000000	1.9767476886
2.8250000000	1.8778724867
2.8300000000	1.7974708953
2.8350000000	1.7329547251
2.8400000000	1.6815724945
2.8450000000	1.6435097351
2.8500000000	1.6167500090
2.8550000000	1.6005419645
2.8600000000	1.5943540326
2.8650000000	1.5977662917
2.8700000000	1.6104047647
2.8750000000	1.6318869910
2.8800000000	1.6617704791
2.8850000000	1.6995049301
2.8900000000	1.7444129709
2.8950000000	1.7956672249
2.9000000000	1.8522863298
2.9050000000	1.9266618348
2.9100000000	2.0030228018
2.9150000000	2.0784246125
2.9200000000	2.1493262096
2.9250000000	2.2116217603
2.9300000000	2.2614522723
2.9350000000	2.2936803440
2.9400000000	2.3057323583
2.9450000000	2.2962902118
2.9500000000	2.2661293743
2.9550000000	2.2180017238
2.9600000000	2.1560993184
2.9650000000	2.0852853050
2.9700000000	2.0103319879
2.9750000000	1.9353801742
2.9800000000	1.8636413960
2.9850000000	1.7973561501
2.9900000000	1.7379030796
2.9950000000	1.6859847131
3.0000000000	1.6418275587
