# energy (eV)    P(omega), $W$ = 300 nm, $h$ = 300 nm, $s$ = 20 nm, $d/W = 5$, $E_{\rm e}$ = 200 keV
0.2000000000	0.0705413120
0.2050000000	0.0716155120
0.2100000000	0.0726137557
0.2150000000	0.0735385796
0.2200000000	0.0743922671
0.2250000000	0.0751767033
0.2300000000	0.0758933940
0.2350000000	0.0765433872
0.2400000000	0.0771272167
0.2450000000	0.0776448078
0.2500000000	0.0780954051
0.2550000000	0.0784773826
0.2600000000	0.0787882104
0.2650000000	0.0790241277
0.2700000000	0.0791800241
0.2750000000	0.0792490546
0.2800000000	0.0792222940
0.2850000000	0.0790882223
0.2900000000	0.0788321054
0.2950000000	0.0784351692
0.3000000000	0.0778734525
0.3050000000	0.0771164193
0.3100000000	0.0761249584
0.3150000000	0.0806082100
0.3200000000	0.0859323851
0.3250000000	0.0926710857
0.3300000000	0.1017040577
0.3350000000	0.1129444597
0.3400000000	0.1276634148
0.3450000000	0.1455002117
0.3500000000	0.1688240341
0.3550000000	0.1996696247
0.3600000000	0.2399133874
0.3650000000	0.2959885409
0.3700000000	0.3698528184
0.3750000000	0.4725188508
0.3800000000	0.6208905445
0.3850000000	0.8519309243
0.3900000000	1.2166330016
0.3950000000	1.8356403625
0.4000000000	3.0148452992
0.4050000000	5.6567268659
0.4100000000	12.8599163772
0.4150000000	41.2305770478
0.4200000000	26.2873238775
0.4250000000	-49.3426255137
0.4300000000	13.6940053103
0.4350000000	8.5223809388
0.4400000000	5.2019816182
0.4450000000	3.4159942223
0.4500000000	2.3885606043
0.4550000000	1.7566918329
0.4600000000	1.3454060013
0.4650000000	1.0652918738
0.4700000000	0.8674046655
0.4750000000	0.7243368564
0.4800000000	0.6182853225
0.4850000000	0.5384838734
0.4900000000	0.4775531942
0.4950000000	0.4305416917
0.5000000000	0.3940641996
0.5050000000	0.3656396591
0.5100000000	0.3436677456
0.5150000000	0.3269691042
0.5200000000	0.3143188384
0.5250000000	0.3051582948
0.5300000000	0.2988935405
0.5350000000	0.2950883204
0.5400000000	0.2934205715
0.5450000000	0.2936213790
0.5500000000	0.2956003038
0.5550000000	0.2992040667
0.5600000000	0.3043509786
0.5650000000	0.3110019942
0.5700000000	0.3191194556
0.5750000000	0.3287588280
0.5800000000	0.3400098693
0.5850000000	0.3529299614
0.5900000000	0.3676342701
0.5950000000	0.3842702649
0.6000000000	0.4030251001
0.6050000000	0.4241749259
0.6100000000	0.4479796983
0.6150000000	0.4747974680
0.6200000000	0.5051062348
0.6250000000	0.5393637698
0.6300000000	0.5782481015
0.6350000000	0.6226040264
0.6400000000	0.6733094361
0.6450000000	0.7316336665
0.6500000000	0.7992443332
0.6550000000	0.8778763906
0.6600000000	0.9701988227
0.6650000000	1.0796325635
0.6700000000	1.2101987033
0.6750000000	1.3680323221
0.6800000000	1.5613797385
0.6850000000	1.8010393865
0.6900000000	2.1037351878
0.6950000000	2.4928516020
0.7000000000	3.0055284487
0.7050000000	3.6985280071
0.7100000000	4.6680087705
0.7150000000	6.0851199300
0.7200000000	8.2683994835
0.7250000000	11.8910627519
0.7300000000	18.5378333753
0.7350000000	32.7541220051
0.7400000000	71.7260521753
0.7450000000	237.7608403843
0.7500000000	735.9983289510
0.7550000000	185.0087486294
0.7600000000	61.2216089894
0.7650000000	29.3104045250
0.7700000000	17.0321847741
0.7750000000	11.1074778827
0.7800000000	7.8104911411
0.7850000000	5.7961624891
0.7900000000	4.4743735023
0.7950000000	3.5631123836
0.8000000000	2.9082839716
0.8050000000	2.4207640159
0.8100000000	2.0491386056
0.8150000000	1.7546733039
0.8200000000	1.5223492047
0.8250000000	1.3353451568
0.8300000000	1.1822129417
0.8350000000	1.0563412948
0.8400000000	0.9508550390
0.8450000000	0.8623586923
0.8500000000	0.7875630899
0.8550000000	0.7230367536
0.8600000000	0.6679553486
0.8650000000	0.6208999775
0.8700000000	0.5793344211
0.8750000000	0.5439605179
0.8800000000	0.5139216821
0.8850000000	0.4869928112
0.8900000000	0.4653385065
0.8950000000	0.4456411865
0.9000000000	0.4299716094
0.9050000000	0.4190704316
0.9100000000	0.4090731374
0.9150000000	0.4028719432
0.9200000000	0.4017980291
0.9250000000	0.4009277132
0.9300000000	0.3947749051
0.9350000000	0.3770447680
0.9400000000	0.2796246409
0.9450000000	-0.1619456990
0.9500000000	-2.4897246540
0.9550000000	-14.2873871444
0.9600000000	3.3697185259
0.9650000000	5.9144674567
0.9700000000	2.6220429408
0.9750000000	1.3763360238
0.9800000000	0.8627066116
0.9850000000	0.6225450001
0.9900000000	0.4842349589
0.9950000000	0.4003921092
1.0000000000	0.3468652026
1.0050000000	0.3129146383
1.0100000000	0.2866203362
1.0150000000	0.2674186576
1.0200000000	0.2544770903
1.0250000000	0.2436388467
1.0300000000	0.2354193339
1.0350000000	0.2292187480
1.0400000000	0.2252893999
1.0450000000	0.2220529269
1.0500000000	0.2199535925
1.0550000000	0.2188634943
1.0600000000	0.2190650946
1.0650000000	0.2197711662
1.0700000000	0.2213048294
1.0750000000	0.2236728165
1.0800000000	0.2270884424
1.0850000000	0.2314199189
1.0900000000	0.2377682459
1.0950000000	0.2452976991
1.1000000000	0.2542529796
1.1050000000	0.2645916736
1.1100000000	0.2766308693
1.1150000000	0.2906440723
1.1200000000	0.3069453657
1.1250000000	0.3259891015
1.1300000000	0.3483325098
1.1350000000	0.3746867522
1.1400000000	0.4058503221
1.1450000000	0.4433282763
1.1500000000	0.4887182740
1.1550000000	0.5443477721
1.1600000000	0.6135006384
1.1650000000	0.7004264914
1.1700000000	0.8131386838
1.1750000000	0.9622286083
1.1800000000	1.1652218596
1.1850000000	1.4509374680
1.1900000000	1.8736264158
1.1950000000	2.5375885525
1.2000000000	3.6642070714
1.2050000000	5.7936329965
1.2100000000	10.4779431825
1.2150000000	23.1361895752
1.2200000000	56.7888782833
1.2250000000	50.9725972890
1.2300000000	20.2863239972
1.2350000000	9.4781198585
1.2400000000	5.3835708709
1.2450000000	3.5014579373
1.2500000000	2.5059807281
1.2550000000	1.9284695506
1.2600000000	1.5735979108
1.2650000000	1.3473267218
1.2700000000	1.2071895653
1.2750000000	1.1255839205
1.2800000000	1.0889364060
1.2850000000	1.0907488865
1.2900000000	1.1293552998
1.2950000000	1.2064564207
1.3000000000	1.3324076868
1.3050000000	1.5203121951
1.3100000000	1.7954278068
1.3150000000	2.2016677272
1.3200000000	2.8183034184
1.3250000000	3.7961882566
1.3300000000	5.4667823381
1.3350000000	8.5975245527
1.3400000000	15.2893633090
1.3450000000	31.8981283316
1.3500000000	67.6235992943
1.3550000000	63.0261209367
1.3600000000	29.0536520198
1.3650000000	14.2736658760
1.3700000000	8.1864921204
1.3750000000	5.2657889333
1.3800000000	3.6733638705
1.3850000000	2.7139939908
1.3900000000	2.0953930884
1.3950000000	1.6731216834
1.4000000000	1.3723179840
1.4050000000	1.1508258448
1.4100000000	0.9828860657
1.4150000000	0.8527225224
1.4200000000	0.7485955995
1.4250000000	0.6651956865
1.4300000000	0.5977278792
1.4350000000	0.5291300288
1.4400000000	0.3119416814
1.4450000000	-0.2505123899
1.4500000000	-1.2794480477
1.4550000000	-0.4646692664
1.4600000000	1.1673995548
1.4650000000	0.7103903243
1.4700000000	-0.3031556064
1.4750000000	-1.8525668308
1.4800000000	-0.8074962958
1.4850000000	1.4542642716
1.4900000000	1.1765138397
1.4950000000	0.7665795368
1.5000000000	0.5421978876
1.5050000000	0.4203064648
1.5100000000	0.3504272441
1.5150000000	0.3074162065
1.5200000000	0.2791247866
1.5250000000	0.2611173220
1.5300000000	0.2468110078
1.5350000000	0.2363404228
1.5400000000	0.2286725064
1.5450000000	0.2231762284
1.5500000000	0.2194377904
1.5550000000	0.2172480307
1.5600000000	0.2169589607
1.5650000000	0.2177633687
1.5700000000	0.2203971514
1.5750000000	0.2253617010
1.5800000000	0.2336741000
1.5850000000	0.2473374600
1.5900000000	0.2705763695
1.5950000000	0.3126742280
1.6000000000	0.3929766945
1.6050000000	0.5229779561
1.6100000000	0.5806448653
1.6150000000	0.4689456296
1.6200000000	0.3679466347
1.6250000000	0.3178553382
1.6300000000	0.2959554018
1.6350000000	0.2881165833
1.6400000000	0.2880113757
1.6450000000	0.2927776599
1.6500000000	0.3010639854
1.6550000000	0.3123055938
1.6600000000	0.3262834991
1.6650000000	0.3430228247
1.6700000000	0.3627135164
1.6750000000	0.3856862587
1.6800000000	0.4124105420
1.6850000000	0.4435113825
1.6900000000	0.4797907042
1.6950000000	0.5220105520
1.7000000000	0.5717791480
1.7050000000	0.6320285849
1.7100000000	0.7062358458
1.7150000000	0.8115993840
1.7200000000	0.9576057917
1.7250000000	1.1345910582
1.7300000000	1.3568621992
1.7350000000	1.5943850008
1.7400000000	1.8040826716
1.7450000000	2.0648471095
1.7500000000	2.4694066991
1.7550000000	3.0801117347
1.7600000000	3.9984317661
1.7650000000	5.4160213257
1.7700000000	7.6995251283
1.7750000000	11.5443721846
1.7800000000	18.0895094971
1.7850000000	27.7265605149
1.7900000000	34.4086825835
1.7950000000	29.2531851111
1.8000000000	19.4330963268
1.8050000000	12.2462435597
1.8100000000	8.0542184031
1.8150000000	5.5986942398
1.8200000000	4.0880030567
1.8250000000	3.1085213269
1.8300000000	2.4430320728
1.8350000000	1.9725833235
1.8400000000	1.6289165972
1.8450000000	1.3705400375
1.8500000000	1.1712684326
1.8550000000	1.0146739412
1.8600000000	0.8891397814
1.8650000000	0.7866383055
1.8700000000	0.7012430748
1.8750000000	0.6283075358
1.8800000000	0.5637460028
1.8850000000	0.5034149378
1.8900000000	0.4420485953
1.8950000000	0.3716401609
1.9000000000	0.2787146279
1.9050000000	0.1205489191
1.9100000000	-0.1091184987
1.9150000000	-0.3564641671
1.9200000000	-0.2458385345
1.9250000000	0.4768524961
1.9300000000	1.0573455854
1.9350000000	1.1044518954
1.9400000000	0.9104193941
1.9450000000	0.7143687449
1.9500000000	0.5734035025
1.9550000000	0.4788259160
1.9600000000	0.4150157549
1.9650000000	0.3727700140
1.9700000000	0.3407785982
1.9750000000	0.3172995072
1.9800000000	0.2996149371
1.9850000000	0.2858049737
1.9900000000	0.2745014786
1.9950000000	0.2645961830
2.0000000000	0.2558218059
2.0050000000	0.2513506818
2.0100000000	0.2554518856
2.0150000000	0.2652578573
2.0200000000	0.2729762607
2.0250000000	0.2782381306
2.0300000000	0.2838557995
2.0350000000	0.2910425540
2.0400000000	0.3007241380
2.0450000000	0.3135031218
2.0500000000	0.3301038634
2.0550000000	0.3512609795
2.0600000000	0.3770094633
2.0650000000	0.4049032149
2.0700000000	0.4288738855
2.0750000000	0.4441018274
2.0800000000	0.4538773741
2.0850000000	0.4655492937
2.0900000000	0.4836669369
2.0950000000	0.5096208255
2.1000000000	0.5441589474
2.1050000000	0.5864913121
2.1100000000	0.6395714395
2.1150000000	0.7054497072
2.1200000000	0.7871691504
2.1250000000	0.8891041608
2.1300000000	1.0174919616
2.1350000000	1.1812785868
2.1400000000	1.3933952047
2.1450000000	1.6727430833
2.1500000000	2.0468370767
2.1550000000	2.5545670651
2.1600000000	3.2456560672
2.1650000000	4.1621532346
2.1700000000	5.2881306860
2.1750000000	6.4118666000
2.1800000000	7.1223684064
2.1850000000	7.2023521854
2.1900000000	6.9577610357
2.1950000000	6.7953763806
2.2000000000	6.7486109884
2.2050000000	6.4240478843
2.2100000000	5.6567517061
2.2150000000	4.6821172191
2.2200000000	3.7903576609
2.2250000000	3.0761101855
2.2300000000	2.5139356491
2.2350000000	2.0674147687
2.2400000000	1.7131486678
2.2450000000	1.4366368198
2.2500000000	1.2209906194
2.2550000000	1.0508486121
2.2600000000	0.9133882233
2.2650000000	0.7979407082
2.2700000000	0.6955417607
2.2750000000	0.5998994607
2.2800000000	0.5114585394
2.2850000000	0.4413219929
2.2900000000	0.4059365171
2.2950000000	0.4109710333
2.3000000000	0.4402019540
2.3050000000	0.4687689149
2.3100000000	0.4810992137
2.3150000000	0.4779833920
2.3200000000	0.4662396213
2.3250000000	0.4528283534
2.3300000000	0.4415109905
2.3350000000	0.4335911742
2.3400000000	0.4287988224
2.3450000000	0.4257384204
2.3500000000	0.4225468340
2.3550000000	0.4180326264
2.3600000000	0.4125262330
2.3650000000	0.4074727672
2.3700000000	0.4043048725
2.3750000000	0.4037226725
2.3800000000	0.4056074581
2.3850000000	0.4092410300
2.3900000000	0.4138232862
2.3950000000	0.4186699240
2.4000000000	0.4241893746
2.4050000000	0.4319032336
2.4100000000	0.4425849845
2.4150000000	0.4572154260
2.4200000000	0.4764616475
2.4250000000	0.5009305553
2.4300000000	0.5313029127
2.4350000000	0.5684320320
2.4400000000	0.6134158205
2.4450000000	0.6676707279
2.4500000000	0.7329994717
2.4550000000	0.8116827312
2.4600000000	0.9065367708
2.4650000000	1.0209691928
2.4700000000	1.1589271810
2.4750000000	1.3244286287
2.4800000000	1.5218195075
2.4850000000	1.7530540361
2.4900000000	2.0162183145
2.4950000000	2.3017937466
2.5000000000	2.5886340471
2.5050000000	2.8537433450
2.5100000000	3.0250113915
2.5150000000	3.0625079073
2.5200000000	2.9610695969
2.5250000000	2.7524343567
2.5300000000	2.4848876184
2.5350000000	2.2007827631
2.5400000000	1.9269463131
2.5450000000	1.6766371788
2.5500000000	1.4548099035
2.5550000000	1.2620940091
2.5600000000	1.0956934830
2.5650000000	0.9552435185
2.5700000000	0.8379416911
2.5750000000	0.7421291874
2.5800000000	0.6665104957
2.5850000000	0.6094807016
2.5900000000	0.5681425399
2.5950000000	0.5383017332
2.6000000000	0.5155713675
2.6050000000	0.4993597374
2.6100000000	0.4848032749
2.6150000000	0.4717229628
2.6200000000	0.4604456604
2.6250000000	0.4512927255
2.6300000000	0.4444582024
2.6350000000	0.4400262223
2.6400000000	0.4380409254
2.6450000000	0.4385521722
2.6500000000	0.4416670284
2.6550000000	0.4474035112
2.6600000000	0.4559121179
2.6650000000	0.4673258000
2.6700000000	0.4818012089
2.6750000000	0.4995242064
2.6800000000	0.5207016513
2.6850000000	0.5455594642
2.6900000000	0.5743159585
2.6950000000	0.6071690066
2.7000000000	0.6442556700
2.7050000000	0.6900416460
2.7100000000	0.7413584178
2.7150000000	0.7978536243
2.7200000000	0.8587657582
2.7250000000	0.9228263084
2.7300000000	0.9881697373
2.7350000000	1.0522544912
2.7400000000	1.1118217777
2.7450000000	1.1634314553
2.7500000000	1.2020896576
2.7550000000	1.2243662058
2.7600000000	1.2276848715
2.7650000000	1.2113829880
2.7700000000	1.1769452809
2.7750000000	1.1277030745
2.7800000000	1.0680745415
2.7850000000	1.0027598670
2.7900000000	0.9359579367
2.7950000000	0.8710304720
2.8000000000	0.8103486806
2.8050000000	0.7486444841
2.8100000000	0.6953789819
2.8150000000	0.6504306709
2.8200000000	0.6130930313
2.8250000000	0.5824270510
2.8300000000	0.5574907608
2.8350000000	0.5374813536
2.8400000000	0.5215453927
2.8450000000	0.5097403624
2.8500000000	0.5014408209
2.8550000000	0.4964137265
2.8600000000	0.4944942137
2.8650000000	0.4955520327
2.8700000000	0.4994712297
2.8750000000	0.5061331484
2.8800000000	0.5154005113
2.8850000000	0.5271026319
2.8900000000	0.5410293584
2.8950000000	0.5569240254
2.9000000000	0.5744822040
2.9050000000	0.5975467128
2.9100000000	0.6212264684
2.9150000000	0.6446082916
2.9200000000	0.6665940795
2.9250000000	0.6859106116
2.9300000000	0.7013612359
2.9350000000	0.7113528208
2.9400000000	0.7150873687
2.9450000000	0.7121562508
2.9500000000	0.7028000205
2.9550000000	0.6878722454
2.9600000000	0.6686729834
2.9650000000	0.6467104310
2.9700000000	0.6234645643
2.9750000000	0.6002195002
2.9800000000	0.5779711363
2.9850000000	0.5574142173
2.9900000000	0.5389762762
2.9950000000	0.5228750901
3.0000000000	0.5091808741
