# energy (eV)    P(omega), $W$ = 300 nm, $h$ = 300 nm, $s$ = 20 nm, $d/W = 5$, $E_{\rm e}$ = 200 keV
0.2000000000	0.0772963089
0.2050000000	0.0784066765
0.2100000000	0.0794504054
0.2150000000	0.0804295790
0.2200000000	0.0813459937
0.2250000000	0.0822011348
0.2300000000	0.0829960929
0.2350000000	0.0837315496
0.2400000000	0.0844076996
0.2450000000	0.0850240837
0.2500000000	0.0855796825
0.2550000000	0.0860725374
0.2600000000	0.0864997861
0.2650000000	0.0868574389
0.2700000000	0.0871400268
0.2750000000	0.0873403901
0.2800000000	0.0874492489
0.2850000000	0.0874547376
0.2900000000	0.0873416116
0.2950000000	0.0870906486
0.3000000000	0.0866770952
0.3050000000	0.0860696794
0.3100000000	0.0852282543
0.3150000000	0.0898198453
0.3200000000	0.0952737855
0.3250000000	0.1021681951
0.3300000000	0.1113940736
0.3350000000	0.1228816819
0.3400000000	0.1379264525
0.3450000000	0.1561904480
0.3500000000	0.1800929296
0.3550000000	0.2117361502
0.3600000000	0.2530835029
0.3650000000	0.3107533256
0.3700000000	0.3868697687
0.3750000000	0.4928312690
0.3800000000	0.6461919284
0.3850000000	0.8853038596
0.3900000000	1.2633346766
0.3950000000	1.9059365514
0.4000000000	3.1317876910
0.4050000000	5.8819518299
0.4100000000	13.3915093179
0.4150000000	43.0124718511
0.4200000000	27.3785339999
0.4250000000	-51.6821988348
0.4300000000	14.4021711391
0.4350000000	8.9863597750
0.4400000000	5.5016905610
0.4450000000	3.6246191817
0.4500000000	2.5433275405
0.4550000000	1.8775056602
0.4600000000	1.4436122958
0.4650000000	1.1477866791
0.4700000000	0.9386067826
0.4750000000	0.7872744977
0.4800000000	0.6750503669
0.4850000000	0.5906037723
0.4900000000	0.5261583184
0.4950000000	0.4764914127
0.5000000000	0.4380343083
0.5050000000	0.4081655174
0.5100000000	0.3852004503
0.5150000000	0.3678995522
0.5200000000	0.3549594915
0.5250000000	0.3457997813
0.5300000000	0.3397922010
0.5350000000	0.3364785844
0.5400000000	0.3355217182
0.5450000000	0.3366400771
0.5500000000	0.3397498051
0.5550000000	0.3446938636
0.5600000000	0.3513957413
0.5650000000	0.3598231267
0.5700000000	0.3699486762
0.5750000000	0.3818448447
0.5800000000	0.3956294095
0.5850000000	0.4113797591
0.5900000000	0.4292431342
0.5950000000	0.4494021291
0.6000000000	0.4720890441
0.6050000000	0.4976368671
0.6100000000	0.5263663648
0.6150000000	0.5587128721
0.6200000000	0.5952574618
0.6250000000	0.6365564889
0.6300000000	0.6834322668
0.6350000000	0.7369097663
0.6400000000	0.7980559055
0.6450000000	0.8684099518
0.6500000000	0.9499964347
0.6550000000	1.0449232905
0.6600000000	1.1564290654
0.6650000000	1.2886724631
0.6700000000	1.4465426372
0.6750000000	1.6374921447
0.6800000000	1.8715551267
0.6850000000	2.1618666012
0.6900000000	2.5287870201
0.6950000000	3.0007827471
0.7000000000	3.6230992664
0.7050000000	4.4649029710
0.7100000000	5.6434244183
0.7150000000	7.3673737685
0.7200000000	10.0253894857
0.7250000000	14.4391553654
0.7300000000	22.5437358013
0.7350000000	39.8918494339
0.7400000000	87.4885219047
0.7450000000	290.4533332728
0.7500000000	900.4916765610
0.7550000000	226.7083892657
0.7600000000	75.1378086340
0.7650000000	36.0295697791
0.7700000000	20.9699432920
0.7750000000	13.6973618373
0.7800000000	9.6471699562
0.7850000000	7.1708001583
0.7900000000	5.5446129621
0.7950000000	4.4226646502
0.8000000000	3.6158614289
0.8050000000	3.0147697726
0.8100000000	2.5562473777
0.8150000000	2.1926264794
0.8200000000	1.9055571714
0.8250000000	1.6743474567
0.8300000000	1.4848871893
0.8350000000	1.3290817447
0.8400000000	1.1984407812
0.8450000000	1.0887922859
0.8500000000	0.9961000483
0.8550000000	0.9160881671
0.8600000000	0.8477834677
0.8650000000	0.7894533998
0.8700000000	0.7378984584
0.8750000000	0.6940665328
0.8800000000	0.6569078014
0.8850000000	0.6235894440
0.8900000000	0.5969332884
0.8950000000	0.5726815160
0.9000000000	0.5535384661
0.9050000000	0.5405009194
0.9100000000	0.5285604343
0.9150000000	0.5214965999
0.9200000000	0.5210774596
0.9250000000	0.5208569558
0.9300000000	0.5135736741
0.9350000000	0.4907691398
0.9400000000	0.3620371389
0.9450000000	-0.2245768085
0.9500000000	-3.3234677630
0.9550000000	-19.0527838370
0.9600000000	4.5002498424
0.9650000000	7.9096832263
0.9700000000	3.5106113663
0.9750000000	1.8438201649
0.9800000000	1.1558255443
0.9850000000	0.8339593855
0.9900000000	0.6484128444
0.9950000000	0.5358642166
1.0000000000	0.4639882274
1.0050000000	0.4184401613
1.0100000000	0.3830894926
1.0150000000	0.3572484695
1.0200000000	0.3398508831
1.0250000000	0.3252100598
1.0300000000	0.3140629571
1.0350000000	0.3056000078
1.0400000000	0.3001943690
1.0450000000	0.2956494627
1.0500000000	0.2925909176
1.0550000000	0.2908435787
1.0600000000	0.2908115023
1.0650000000	0.2913703822
1.0700000000	0.2929741818
1.0750000000	0.2956282219
1.0800000000	0.2996300577
1.0850000000	0.3047176304
1.0900000000	0.3123009112
1.0950000000	0.3213190407
1.1000000000	0.3320885929
1.1050000000	0.3444712921
1.1100000000	0.3588715930
1.1150000000	0.3756086324
1.1200000000	0.3950739975
1.1250000000	0.4177146313
1.1300000000	0.4442059626
1.1350000000	0.4753636719
1.1400000000	0.5121319022
1.1450000000	0.5561653598
1.1500000000	0.6093204397
1.1550000000	0.6742540557
1.1600000000	0.7547140301
1.1650000000	0.8555777228
1.1700000000	0.9859086282
1.1750000000	1.1578028138
1.1800000000	1.3912283145
1.1850000000	1.7189881951
1.1900000000	2.2029970473
1.1950000000	2.9619243029
1.2000000000	4.2481433007
1.2050000000	6.6775072682
1.2100000000	12.0203614765
1.2150000000	26.4638635175
1.2200000000	64.9050403892
1.2250000000	58.3705617364
1.2300000000	23.3527323040
1.2350000000	11.0104987942
1.2400000000	6.3379609962
1.2450000000	4.1966294719
1.2500000000	3.0716356878
1.2550000000	2.4276107721
1.2600000000	2.0416691805
1.2650000000	1.8067608780
1.2700000000	1.6755836966
1.2750000000	1.6176202939
1.2800000000	1.6190712303
1.2850000000	1.6748774744
1.2900000000	1.7865566066
1.2950000000	1.9604720529
1.3000000000	2.2166120270
1.3050000000	2.5809971467
1.3100000000	3.1006914631
1.3150000000	3.8567820795
1.3200000000	4.9944453693
1.3250000000	6.7909210830
1.3300000000	9.8513224486
1.3350000000	15.5806276410
1.3400000000	27.8249327321
1.3450000000	58.2283411515
1.3500000000	123.6974568901
1.3550000000	115.4405692348
1.3600000000	53.2554524229
1.3650000000	26.1702118838
1.3700000000	15.0082846907
1.3750000000	9.6507742662
1.3800000000	6.7294608575
1.3850000000	4.9699844894
1.3900000000	3.8365779128
1.3950000000	3.0637918342
1.4000000000	2.5150251240
1.4050000000	2.1131877873
1.4100000000	1.8120522619
1.4150000000	1.5848260399
1.4200000000	1.4139550590
1.4250000000	1.2995156756
1.4300000000	1.2576231504
1.4350000000	1.2809755281
1.4400000000	0.9866671041
1.4450000000	0.0851860052
1.4500000000	-1.3783432885
1.4550000000	-0.3864301100
1.4600000000	1.6691805345
1.4650000000	0.9036622041
1.4700000000	-0.8534681212
1.4750000000	-3.7350731492
1.4800000000	-1.6623541345
1.4850000000	2.7321925758
1.4900000000	2.2147266784
1.4950000000	1.4335281542
1.5000000000	1.0072216185
1.5050000000	0.7776708489
1.5100000000	0.6468338358
1.5150000000	0.5673766675
1.5200000000	0.5160487913
1.5250000000	0.4841573130
1.5300000000	0.4597960329
1.5350000000	0.4430041279
1.5400000000	0.4319434517
1.5450000000	0.4256277755
1.5500000000	0.4234203963
1.5550000000	0.4253375426
1.5600000000	0.4325134478
1.5650000000	0.4443659766
1.5700000000	0.4635570465
1.5750000000	0.4933337168
1.5800000000	0.5397927853
1.5850000000	0.6148020085
1.5900000000	0.7433649380
1.5950000000	0.9808125425
1.6000000000	1.4440202023
1.6050000000	2.2099171155
1.6100000000	2.5646244655
1.6150000000	1.8996749543
1.6200000000	1.2758775136
1.6250000000	0.9465986645
1.6300000000	0.7812673069
1.6350000000	0.6961486351
1.6400000000	0.6530047427
1.6450000000	0.6340634572
1.6500000000	0.6304250267
1.6550000000	0.6379203281
1.6600000000	0.6540611484
1.6650000000	0.6777112239
1.6700000000	0.7084385033
1.6750000000	0.7462454514
1.6800000000	0.7914699626
1.6850000000	0.8446362311
1.6900000000	0.9062076483
1.6950000000	0.9753091095
1.7000000000	1.0507800785
1.7050000000	1.1281221046
1.7100000000	1.2163737610
1.7150000000	1.4357196101
1.7200000000	1.8205711820
1.7250000000	2.1731743985
1.7300000000	2.5515781380
1.7350000000	2.9673670361
1.7400000000	3.3753590572
1.7450000000	3.8994026589
1.7500000000	4.6918860052
1.7550000000	5.8714145048
1.7600000000	7.6362072793
1.7650000000	10.3566502104
1.7700000000	14.7388063750
1.7750000000	22.1216004288
1.7800000000	34.7017367354
1.7850000000	53.2545007780
1.7900000000	66.1810753359
1.7950000000	56.3544800880
1.8000000000	37.5054921895
1.8050000000	23.6855857909
1.8100000000	15.6164793483
1.8150000000	10.8868584266
1.8200000000	7.9761853766
1.8250000000	6.0891867779
1.8300000000	4.8079805633
1.8350000000	3.9036524265
1.8400000000	3.2448074757
1.8450000000	2.7517389959
1.8500000000	2.3742142081
1.8550000000	2.0808012283
1.8600000000	1.8495735341
1.8650000000	1.6656295137
1.8700000000	1.5183708720
1.8750000000	1.4000168911
1.8800000000	1.3043958746
1.8850000000	1.2260545326
1.8900000000	1.1587092233
1.8950000000	1.0929833430
1.9000000000	1.0126852930
1.9050000000	0.8606708591
1.9100000000	0.6514629319
1.9150000000	0.5406934072
1.9200000000	1.3220417891
1.9250000000	3.4814566394
1.9300000000	5.1940170230
1.9350000000	5.1141066060
1.9400000000	4.0223715505
1.9450000000	2.9639056380
1.9500000000	2.2207422134
1.9550000000	1.7337990351
1.9600000000	1.4120121176
1.9650000000	1.1966347332
1.9700000000	1.0411496991
1.9750000000	0.9271732898
1.9800000000	0.8401568940
1.9850000000	0.7695451468
1.9900000000	0.7072611242
1.9950000000	0.6462556704
2.0000000000	0.5855011240
2.0050000000	0.5466870502
2.0100000000	0.5689257076
2.0150000000	0.6301876346
2.0200000000	0.6679620505
2.0250000000	0.6779979297
2.0300000000	0.6802594246
2.0350000000	0.6843720917
2.0400000000	0.6939124460
2.0450000000	0.7097922717
2.0500000000	0.7326030388
2.0550000000	0.7628818449
2.0600000000	0.8006291030
2.0650000000	0.8435586477
2.0700000000	0.8860008728
2.0750000000	0.9237069791
2.0800000000	0.9604262133
2.0850000000	1.0039121653
2.0900000000	1.0593623133
2.0950000000	1.1289654890
2.1000000000	1.2150763932
2.1050000000	1.3169153550
2.1100000000	1.4416397290
2.1150000000	1.5944816796
2.1200000000	1.7827787717
2.1250000000	2.0168230858
2.1300000000	2.3111223613
2.1350000000	2.6863891949
2.1400000000	3.1725318860
2.1450000000	3.8132765912
2.1500000000	4.6723339111
2.1550000000	5.8398717089
2.1600000000	7.4312906994
2.1650000000	9.5443209883
2.1700000000	12.1398674577
2.1750000000	14.7203851967
2.1800000000	16.3148279121
2.1850000000	16.3976972610
2.1900000000	15.6727837579
2.1950000000	15.1086915173
2.2000000000	14.8585543465
2.2050000000	14.1636226145
2.2100000000	12.6881965325
2.2150000000	10.8741422109
2.2200000000	9.2456362638
2.2250000000	7.8997540613
2.2300000000	6.7146917772
2.2350000000	5.6432745362
2.2400000000	4.7229980440
2.2450000000	3.9866643374
2.2500000000	3.4222001024
2.2550000000	2.9981654608
2.2600000000	2.6806686995
2.2650000000	2.4357482023
2.2700000000	2.2266918121
2.2750000000	2.0173306415
2.2800000000	1.7919350139
2.2850000000	1.5774618539
2.2900000000	1.4292571890
2.2950000000	1.3786483863
2.3000000000	1.3967623598
2.3050000000	1.4244099433
2.3100000000	1.4267405381
2.3150000000	1.4040374017
2.3200000000	1.3713866991
2.3250000000	1.3443706402
2.3300000000	1.3309622607
2.3350000000	1.3325313442
2.3400000000	1.3446124497
2.3450000000	1.3570990677
2.3500000000	1.3572650946
2.3550000000	1.3369913809
2.3600000000	1.2985756999
2.3650000000	1.2520587430
2.3700000000	1.2077901421
2.3750000000	1.1719511341
2.3800000000	1.1465494563
2.3850000000	1.1310167679
2.3900000000	1.1240576429
2.3950000000	1.1241716292
2.4000000000	1.1317674910
2.4050000000	1.1493466408
2.4100000000	1.1777475603
2.4150000000	1.2181309206
2.4200000000	1.2711943322
2.4250000000	1.3381585998
2.4300000000	1.4208041248
2.4350000000	1.5215192351
2.4400000000	1.6433858604
2.4450000000	1.7903391146
2.4500000000	1.9673437459
2.4550000000	2.1806400007
2.4600000000	2.4378948196
2.4650000000	2.7483070179
2.4700000000	3.1224266709
2.4750000000	3.5708216922
2.4800000000	4.1044063325
2.4850000000	4.7275012008
2.4900000000	5.4340162119
2.4950000000	6.1986681400
2.5000000000	6.9679869597
2.5050000000	7.6876518164
2.5100000000	8.1738366500
2.5150000000	8.3205162259
2.5200000000	8.1024239532
2.5250000000	7.5868823356
2.5300000000	6.8911772844
2.5350000000	6.1284266087
2.5400000000	5.3785458517
2.5450000000	4.6866878009
2.5500000000	4.0729309626
2.5550000000	3.5418460096
2.5600000000	3.0861308891
2.5650000000	2.7029898915
2.5700000000	2.3834025358
2.5750000000	2.1217219243
2.5800000000	1.9137300386
2.5850000000	1.7548416738
2.5900000000	1.6375154812
2.5950000000	1.5511490546
2.6000000000	1.4847030188
2.6050000000	1.4374809069
2.6100000000	1.3965927166
2.6150000000	1.3613903138
2.6200000000	1.3325691760
2.6250000000	1.3108997984
2.6300000000	1.2968966862
2.6350000000	1.2908223658
2.6400000000	1.2928293052
2.6450000000	1.3030593867
2.6500000000	1.3217903137
2.6550000000	1.3490998717
2.6600000000	1.3854071669
2.6650000000	1.4311355735
2.6700000000	1.4868051817
2.6750000000	1.5530462568
2.6800000000	1.6305573460
2.6850000000	1.7200530374
2.6900000000	1.8221186691
2.6950000000	1.9370937334
2.7000000000	2.0648618294
2.7050000000	2.2199546020
2.7100000000	2.3892171425
2.7150000000	2.5693535294
2.7200000000	2.7555700310
2.7250000000	2.9418444769
2.7300000000	3.1213816576
2.7350000000	3.2870049592
2.7400000000	3.4312506627
2.7450000000	3.5474935235
2.7500000000	3.6254565916
2.7550000000	3.6589183831
2.7600000000	3.6431581120
2.7650000000	3.5776267516
2.7700000000	3.4667160983
2.7750000000	3.3192254178
2.7800000000	3.1466239645
2.7850000000	2.9610790580
2.7900000000	2.7735077434
2.7950000000	2.5926644885
2.8000000000	2.4247395552
2.8050000000	2.2548389323
2.8100000000	2.1094262890
2.8150000000	1.9881115871
2.8200000000	1.8889419892
2.8250000000	1.8093436612
2.8300000000	1.7467238976
2.8350000000	1.6988638225
2.8400000000	1.6634276157
2.8450000000	1.6404965986
2.8500000000	1.6283732350
2.8550000000	1.6264107162
2.8600000000	1.6341260581
2.8650000000	1.6510841612
2.8700000000	1.6767983175
2.8750000000	1.7106510386
2.8800000000	1.7518327995
2.8850000000	1.7992908036
2.8900000000	1.8517595257
2.8950000000	1.9078076674
2.9000000000	1.9659300492
2.9050000000	2.0357754160
2.9100000000	2.1027793883
2.9150000000	2.1648343267
2.9200000000	2.2197282426
2.9250000000	2.2649513102
2.9300000000	2.2981924914
2.9350000000	2.3158578322
2.9400000000	2.3163961274
2.9450000000	2.2991465885
2.9500000000	2.2651044760
2.9550000000	2.2168571119
2.9600000000	2.1581390257
2.9650000000	2.0931817533
2.9700000000	2.0260771653
2.9750000000	1.9603221959
2.9800000000	1.8985963228
2.9850000000	1.8427276810
2.9900000000	1.7938158360
2.9950000000	1.7523769525
3.0000000000	1.7185196389
