# energy (eV)    P(omega), $W$ = 300 nm, $h$ = 300 nm, $s$ = 20 nm, $d/W = 5$, $E_{\rm e}$ = 200 keV
0.2000000000	0.0654646984
0.2050000000	0.0664615921
0.2100000000	0.0673879953
0.2150000000	0.0682462621
0.2200000000	0.0690385116
0.2250000000	0.0697664933
0.2300000000	0.0704316045
0.2350000000	0.0710348180
0.2400000000	0.0715766290
0.2450000000	0.0720569683
0.2500000000	0.0724751348
0.2550000000	0.0728296196
0.2600000000	0.0731180748
0.2650000000	0.0733370105
0.2700000000	0.0734816837
0.2750000000	0.0735457422
0.2800000000	0.0735209031
0.2850000000	0.0733964755
0.2900000000	0.0731587856
0.2950000000	0.0727904104
0.3000000000	0.0722691132
0.3050000000	0.0715665554
0.3100000000	0.0706464406
0.3150000000	0.0748070507
0.3200000000	0.0797480666
0.3250000000	0.0860018105
0.3300000000	0.0943847171
0.3350000000	0.1048161940
0.3400000000	0.1184758871
0.3450000000	0.1350290427
0.3500000000	0.1566743448
0.3550000000	0.1853001031
0.3600000000	0.2226476834
0.3650000000	0.2746873314
0.3700000000	0.3432358866
0.3750000000	0.4385134429
0.3800000000	0.5762073953
0.3850000000	0.7906206772
0.3900000000	1.1290765161
0.3950000000	1.7035362157
0.4000000000	2.7978781034
0.4050000000	5.2496330518
0.4100000000	11.9344348627
0.4150000000	38.2633596767
0.4200000000	24.3955196677
0.4250000000	-45.7916068649
0.4300000000	12.7084935362
0.4350000000	7.9090530559
0.4400000000	4.8276115900
0.4450000000	3.1701557139
0.4500000000	2.2166630860
0.4550000000	1.6302678384
0.4600000000	1.2485809128
0.4650000000	0.9886256985
0.4700000000	0.8049798018
0.4750000000	0.6722081297
0.4800000000	0.5737887900
0.4850000000	0.4997303993
0.4900000000	0.4431847078
0.4950000000	0.3995564727
0.5000000000	0.3657041465
0.5050000000	0.3393252248
0.5100000000	0.3189345528
0.5150000000	0.3034376499
0.5200000000	0.2916977717
0.5250000000	0.2831964690
0.5300000000	0.2773825525
0.5350000000	0.2738511628
0.5400000000	0.2723034148
0.5450000000	0.2724897464
0.5500000000	0.2743262270
0.5550000000	0.2776706081
0.5600000000	0.2824470793
0.5650000000	0.2886194051
0.5700000000	0.2961526374
0.5750000000	0.3050982492
0.5800000000	0.3155395385
0.5850000000	0.3275297569
0.5900000000	0.3411757815
0.5950000000	0.3566144682
0.6000000000	0.3740195016
0.6050000000	0.3936471569
0.6100000000	0.4157386808
0.6150000000	0.4406263550
0.6200000000	0.4687537766
0.6250000000	0.5005457711
0.6300000000	0.5366315683
0.6350000000	0.5777951639
0.6400000000	0.6248512669
0.6450000000	0.6789778580
0.6500000000	0.7417225327
0.6550000000	0.8146953791
0.6600000000	0.9003732923
0.6650000000	1.0019309978
0.6700000000	1.1231001848
0.6750000000	1.2695743844
0.6800000000	1.4490064202
0.6850000000	1.6714175529
0.6900000000	1.9523280647
0.6950000000	2.3134394127
0.7000000000	2.7892184252
0.7050000000	3.4323421395
0.7100000000	4.3320484201
0.7150000000	5.6471686671
0.7200000000	7.6733153532
0.7250000000	11.0352517585
0.7300000000	17.2036471781
0.7350000000	30.3967739733
0.7400000000	66.5638507859
0.7450000000	220.6489253636
0.7500000000	683.0276686157
0.7550000000	171.6934443870
0.7600000000	56.8154127234
0.7650000000	27.2008965102
0.7700000000	15.8063554851
0.7750000000	10.3080572414
0.7800000000	7.2483588779
0.7850000000	5.3790040965
0.7900000000	4.1523460225
0.7950000000	3.3066696002
0.8000000000	2.6989700874
0.8050000000	2.2465376231
0.8100000000	1.9016586201
0.8150000000	1.6283864100
0.8200000000	1.4127830153
0.8250000000	1.2392379258
0.8300000000	1.0971268650
0.8350000000	0.9803143912
0.8400000000	0.8824201422
0.8450000000	0.8002930139
0.8500000000	0.7308805671
0.8550000000	0.6709982922
0.8600000000	0.6198811824
0.8650000000	0.5762124600
0.8700000000	0.5376384424
0.8750000000	0.5048104541
0.8800000000	0.4769335590
0.8850000000	0.4519428000
0.8900000000	0.4318469859
0.8950000000	0.4135673095
0.9000000000	0.3990254910
0.9050000000	0.3889088783
0.9100000000	0.3796310958
0.9150000000	0.3738761985
0.9200000000	0.3728795570
0.9250000000	0.3720718612
0.9300000000	0.3663618725
0.9350000000	0.3499078162
0.9400000000	0.2594993268
0.9450000000	-0.1502897157
0.9500000000	-2.3105304704
0.9550000000	-13.2590743822
0.9600000000	3.1271881621
0.9650000000	5.4887823539
0.9700000000	2.4333251967
0.9750000000	1.2772762298
0.9800000000	0.8006145640
0.9850000000	0.5777382463
0.9900000000	0.4493828788
0.9950000000	0.3715745031
1.0000000000	0.3219001224
1.0050000000	0.2903931025
1.0100000000	0.2659912972
1.0150000000	0.2481716336
1.0200000000	0.2361615176
1.0250000000	0.2261033428
1.0300000000	0.2184754192
1.0350000000	0.2127211136
1.0400000000	0.2090745761
1.0450000000	0.2060710462
1.0500000000	0.2041228115
1.0550000000	0.2031111751
1.0600000000	0.2032982693
1.0650000000	0.2039535273
1.0700000000	0.2053768132
1.0750000000	0.2075743746
1.0800000000	0.2107441732
1.0850000000	0.2147639075
1.0900000000	0.2206553354
1.0950000000	0.2276428817
1.1000000000	0.2359536354
1.1050000000	0.2455482369
1.1100000000	0.2567209524
1.1150000000	0.2697256030
1.1200000000	0.2848536666
1.1250000000	0.3025267960
1.1300000000	0.3232621164
1.1350000000	0.3477196065
1.1400000000	0.3766402907
1.1450000000	0.4114209066
1.1500000000	0.4535441281
1.1550000000	0.5051699026
1.1600000000	0.5693457551
1.1650000000	0.6500154545
1.1700000000	0.7546156266
1.1750000000	0.8929753913
1.1800000000	1.0813590110
1.1850000000	1.3465113830
1.1900000000	1.7387789951
1.1950000000	2.3549551452
1.2000000000	3.4004898668
1.2050000000	5.3766590025
1.2100000000	9.7238349405
1.2150000000	21.4710551008
1.2200000000	52.7017260351
1.2250000000	47.3040459471
1.2300000000	18.8262938046
1.2350000000	8.7959670113
1.2400000000	4.9961068427
1.2450000000	3.2494514028
1.2500000000	2.3256195541
1.2550000000	1.7896722416
1.2600000000	1.4603408131
1.2650000000	1.2503542672
1.2700000000	1.1203025191
1.2750000000	1.0445696170
1.2800000000	1.0105590429
1.2850000000	1.0122403081
1.2900000000	1.0480672082
1.2950000000	1.1196180471
1.3000000000	1.2365028522
1.3050000000	1.4108815199
1.3100000000	1.6661938107
1.3150000000	2.0431920069
1.3200000000	2.6154415299
1.3250000000	3.5229371687
1.3300000000	5.0732802190
1.3350000000	7.9786685653
1.3400000000	14.1888222948
1.3450000000	29.6020721302
1.3500000000	62.7559876735
1.3550000000	58.4894381021
1.3600000000	26.9623407453
1.3650000000	13.2462329026
1.3700000000	7.5972201497
1.3750000000	4.8867521970
1.3800000000	3.4089515432
1.3850000000	2.5186380994
1.3900000000	1.9445647189
1.3950000000	1.5526888305
1.4000000000	1.2735372625
1.4050000000	1.0679883115
1.4100000000	0.9121369408
1.4150000000	0.7913425858
1.4200000000	0.6947106192
1.4250000000	0.6173135224
1.4300000000	0.5547012767
1.4350000000	0.4910396236
1.4400000000	0.2894834403
1.4450000000	-0.2324865886
1.4500000000	-1.1873639510
1.4550000000	-0.4312275267
1.4600000000	1.0833750553
1.4650000000	0.6592608477
1.4700000000	-0.2813303401
1.4750000000	-1.7192129452
1.4800000000	-0.7493695023
1.4850000000	1.3495843078
1.4900000000	1.0918267237
1.4950000000	0.7114002602
1.5000000000	0.5031700141
1.5050000000	0.3900525460
1.5100000000	0.3252033523
1.5150000000	0.2852883222
1.5200000000	0.2590333683
1.5250000000	0.2423221187
1.5300000000	0.2290456057
1.5350000000	0.2193287246
1.5400000000	0.2122127776
1.5450000000	0.2071121582
1.5500000000	0.2036428572
1.5550000000	0.2016107712
1.5600000000	0.2013425787
1.5650000000	0.2020891794
1.5700000000	0.2045335122
1.5750000000	0.2091409000
1.5800000000	0.2168552533
1.5850000000	0.2295355715
1.5900000000	0.2511025068
1.5950000000	0.2901715665
1.6000000000	0.3646965842
1.6050000000	0.4853447646
1.6100000000	0.5388625918
1.6150000000	0.4351992865
1.6200000000	0.3414664202
1.6250000000	0.2949786897
1.6300000000	0.2746540625
1.6350000000	0.2673788883
1.6400000000	0.2672808875
1.6450000000	0.2717038505
1.6500000000	0.2793935527
1.6550000000	0.2898258574
1.6600000000	0.3027975259
1.6650000000	0.3183318635
1.6700000000	0.3366051371
1.6750000000	0.3579242248
1.6800000000	0.3827248205
1.6850000000	0.4115869499
1.6900000000	0.4452548150
1.6950000000	0.4844356150
1.7000000000	0.5306218213
1.7050000000	0.5865345012
1.7100000000	0.6554003287
1.7150000000	0.7531794205
1.7200000000	0.8886755234
1.7250000000	1.0529210396
1.7300000000	1.2591929574
1.7350000000	1.4796185924
1.7400000000	1.6742216437
1.7450000000	1.9162154138
1.7500000000	2.2916536940
1.7550000000	2.8583986563
1.7600000000	3.7106157987
1.7650000000	5.0261638747
1.7700000000	7.1452956040
1.7750000000	10.7133813006
1.7800000000	16.7873836722
1.7850000000	25.7307358921
1.7900000000	31.9318614643
1.7950000000	27.1474682205
1.8000000000	18.0342530486
1.8050000000	11.3647275608
1.8100000000	7.4744547654
1.8150000000	5.1956853684
1.8200000000	3.7937375345
1.8250000000	2.8847613744
1.8300000000	2.2671757198
1.8350000000	1.8305910596
1.8400000000	1.5116623263
1.8450000000	1.2718843514
1.8500000000	1.0869567983
1.8550000000	0.9416343413
1.8600000000	0.8251364025
1.8650000000	0.7300131815
1.8700000000	0.6507648358
1.8750000000	0.5830792768
1.8800000000	0.5231649085
1.8850000000	0.4671764430
1.8900000000	0.4102271580
1.8950000000	0.3448865608
1.9000000000	0.2586495644
1.9050000000	0.1118682895
1.9100000000	-0.1012682025
1.9150000000	-0.3308110667
1.9200000000	-0.2281513905
1.9250000000	0.4425145149
1.9300000000	0.9812191094
1.9350000000	1.0249353978
1.9400000000	0.8448734625
1.9450000000	0.6629384784
1.9500000000	0.5321226613
1.9550000000	0.4443545559
1.9600000000	0.3851386222
1.9650000000	0.3459345172
1.9700000000	0.3162464019
1.9750000000	0.2944577446
1.9800000000	0.2780464229
1.9850000000	0.2652307577
1.9900000000	0.2547411197
1.9950000000	0.2455490407
2.0000000000	0.2374064814
2.0050000000	0.2332573463
2.0100000000	0.2370632605
2.0150000000	0.2461631623
2.0200000000	0.2533258637
2.0250000000	0.2582089751
2.0300000000	0.2634223179
2.0350000000	0.2700918083
2.0400000000	0.2790765454
2.0450000000	0.2909357286
2.0500000000	0.3063415826
2.0550000000	0.3259758520
2.0600000000	0.3498710108
2.0650000000	0.3757570087
2.0700000000	0.3980022466
2.0750000000	0.4121339530
2.0800000000	0.4212056431
2.0850000000	0.4320371709
2.0900000000	0.4488504515
2.0950000000	0.4729359193
2.1000000000	0.5049877109
2.1050000000	0.5442726921
2.1100000000	0.5935317686
2.1150000000	0.6546677146
2.1200000000	0.7305045063
2.1250000000	0.8251016393
2.1300000000	0.9442473428
2.1350000000	1.0962436632
2.1400000000	1.2930909072
2.1450000000	1.5523297181
2.1500000000	1.8994942686
2.1550000000	2.3706749156
2.1600000000	3.0120153163
2.1650000000	3.8625376700
2.1700000000	4.9074606648
2.1750000000	5.9503034591
2.1800000000	6.6096592076
2.1850000000	6.6838854743
2.1900000000	6.4569018340
2.1950000000	6.3062070886
2.2000000000	6.2628084344
2.2050000000	5.9616087414
2.2100000000	5.2495455119
2.2150000000	4.3450688402
2.2200000000	3.5175013395
2.2250000000	2.8546682157
2.2300000000	2.3329619206
2.2350000000	1.9185846528
2.2400000000	1.5898214311
2.2450000000	1.3332152078
2.2500000000	1.1330929817
2.2550000000	0.9751990908
2.2600000000	0.8476340321
2.2650000000	0.7404971130
2.2700000000	0.6454694076
2.2750000000	0.5567120256
2.2800000000	0.4746377600
2.2850000000	0.4095503405
2.2900000000	0.3767124523
2.2950000000	0.3813848497
2.3000000000	0.4085117800
2.3050000000	0.4350224947
2.3100000000	0.4464653114
2.3150000000	0.4435738746
2.3200000000	0.4326755464
2.3250000000	0.4202297245
2.3300000000	0.4097270452
2.3350000000	0.4023773113
2.3400000000	0.3979298953
2.3450000000	0.3950897612
2.3500000000	0.3921279203
2.3550000000	0.3879387189
2.3600000000	0.3828288013
2.3650000000	0.3781392322
2.3700000000	0.3751995031
2.3750000000	0.3746593236
2.3800000000	0.3764085218
2.3850000000	0.3797805936
2.3900000000	0.3840330293
2.3950000000	0.3885307848
2.4000000000	0.3936528926
2.4050000000	0.4008114178
2.4100000000	0.4107241711
2.4150000000	0.4243013518
2.4200000000	0.4421620306
2.4250000000	0.4648694241
2.4300000000	0.4930552877
2.4350000000	0.5275115041
2.4400000000	0.5692569420
2.4450000000	0.6196060811
2.4500000000	0.6802318623
2.4550000000	0.7532507795
2.4600000000	0.8412763571
2.4650000000	0.9474708865
2.4700000000	1.0754973977
2.4750000000	1.2290845428
2.4800000000	1.4122654370
2.4850000000	1.6268536256
2.4900000000	1.8710729983
2.4950000000	2.1360901992
2.5000000000	2.4022812285
2.5050000000	2.6483056350
2.5100000000	2.8072442443
2.5150000000	2.8420412909
2.5200000000	2.7479052126
2.5250000000	2.5542892017
2.5300000000	2.3060027312
2.5350000000	2.0423502194
2.5400000000	1.7882269569
2.5450000000	1.5559373288
2.5500000000	1.3500791826
2.5550000000	1.1712367141
2.5600000000	1.0168151884
2.5650000000	0.8864760684
2.5700000000	0.7776186769
2.5750000000	0.6887036198
2.5800000000	0.6185286495
2.5850000000	0.5656043876
2.5900000000	0.5272421382
2.5950000000	0.4995495625
2.6000000000	0.4784555528
2.6050000000	0.4634109972
2.6100000000	0.4499024494
2.6150000000	0.4377637796
2.6200000000	0.4272983170
2.6250000000	0.4188042846
2.6300000000	0.4124617563
2.6350000000	0.4083488064
2.6400000000	0.4065063966
2.6450000000	0.4069807986
2.6500000000	0.4098713707
2.6550000000	0.4151948336
2.6600000000	0.4230908500
2.6650000000	0.4336827998
2.6700000000	0.4471160565
2.6750000000	0.4635631010
2.6800000000	0.4832158998
2.6850000000	0.5062841094
2.6900000000	0.5329703272
2.6950000000	0.5634581820
2.7000000000	0.5978748707
2.7050000000	0.6403645967
2.7100000000	0.6879869617
2.7150000000	0.7404149798
2.7200000000	0.7969419743
2.7250000000	0.8563907640
2.7300000000	0.9170301159
2.7350000000	0.9765014430
2.7400000000	1.0317805466
2.7450000000	1.0796749309
2.7500000000	1.1155502226
2.7550000000	1.1362231713
2.7600000000	1.1393030017
2.7650000000	1.1241747489
2.7700000000	1.0922162533
2.7750000000	1.0465190208
2.7800000000	0.9911831632
2.7850000000	0.9305705011
2.7900000000	0.8685776473
2.7950000000	0.8083243128
2.8000000000	0.7520110037
2.8050000000	0.6947488934
2.8100000000	0.6453179728
2.8150000000	0.6036054852
2.8200000000	0.5689557726
2.8250000000	0.5404974217
2.8300000000	0.5173562752
2.8350000000	0.4987873196
2.8400000000	0.4839985564
2.8450000000	0.4730433321
2.8500000000	0.4653412297
2.8550000000	0.4606759844
2.8600000000	0.4588945997
2.8650000000	0.4598762031
2.8700000000	0.4635131894
2.8750000000	0.4696954453
2.8800000000	0.4782955780
2.8850000000	0.4891551909
2.8900000000	0.5020792637
2.8950000000	0.5168296110
2.9000000000	0.5331237221
2.9050000000	0.5545277727
2.9100000000	0.5765027948
2.9150000000	0.5982013479
2.9200000000	0.6186043792
2.9250000000	0.6365303241
2.9300000000	0.6508686746
2.9350000000	0.6601409866
2.9400000000	0.6636067086
2.9450000000	0.6608866277
2.9500000000	0.6522039789
2.9550000000	0.6383508806
2.9600000000	0.6205337983
2.9650000000	0.6001523524
2.9700000000	0.5785799747
2.9750000000	0.5570083377
2.9800000000	0.5363616437
2.9850000000	0.5172846224
2.9900000000	0.5001740286
2.9950000000	0.4852319616
3.0000000000	0.4725235818
