# energy (eV)    P(omega), $W$ = 300 nm, $h$ = 300 nm, $s$ = 20 nm, $d/W = 5$, $E_{\rm e}$ = 200 keV
0.2000000000	0.0702538540
0.2050000000	0.0712630749
0.2100000000	0.0722117187
0.2150000000	0.0731016798
0.2200000000	0.0739345912
0.2250000000	0.0747118032
0.2300000000	0.0754343075
0.2350000000	0.0761027240
0.2400000000	0.0767172299
0.2450000000	0.0772774080
0.2500000000	0.0777823323
0.2550000000	0.0782302224
0.2600000000	0.0786184773
0.2650000000	0.0789434705
0.2700000000	0.0792002314
0.2750000000	0.0793822528
0.2800000000	0.0794810998
0.2850000000	0.0794859877
0.2900000000	0.0793830606
0.2950000000	0.0791548471
0.3000000000	0.0787788483
0.3050000000	0.0782266407
0.3100000000	0.0774617341
0.3150000000	0.0816351123
0.3200000000	0.0865922950
0.3250000000	0.0928587524
0.3300000000	0.1012443364
0.3350000000	0.1116856479
0.3400000000	0.1253601328
0.3450000000	0.1419606132
0.3500000000	0.1636860045
0.3550000000	0.1924470715
0.3600000000	0.2300283500
0.3650000000	0.2824453498
0.3700000000	0.3516286727
0.3750000000	0.4479384893
0.3800000000	0.5873298866
0.3850000000	0.8046614803
0.3900000000	1.1482576774
0.3950000000	1.7323246763
0.4000000000	2.8465114324
0.4050000000	5.3461571179
0.4100000000	12.1716455289
0.4150000000	39.0943139233
0.4200000000	24.8845451260
0.4250000000	-46.9741497830
0.4300000000	13.0901543848
0.4350000000	8.1677011773
0.4400000000	5.0004758605
0.4450000000	3.2944023103
0.4500000000	2.3116153164
0.4550000000	1.7064496990
0.4600000000	1.3120842672
0.4650000000	1.0432087302
0.4700000000	0.8530855004
0.4750000000	0.7155399233
0.4800000000	0.6135396912
0.4850000000	0.5367863939
0.4900000000	0.4782120651
0.4950000000	0.4330698926
0.5000000000	0.3981162433
0.5050000000	0.3709684506
0.5100000000	0.3500953899
0.5150000000	0.3343704281
0.5200000000	0.3226089744
0.5250000000	0.3142834195
0.5300000000	0.3088227757
0.5350000000	0.3058106142
0.5400000000	0.3049404409
0.5450000000	0.3059563762
0.5500000000	0.3087821969
0.5550000000	0.3132751683
0.5600000000	0.3193657431
0.5650000000	0.3270245484
0.5700000000	0.3362267245
0.5750000000	0.3470381171
0.5800000000	0.3595657606
0.5850000000	0.3738799829
0.5900000000	0.3901145968
0.5950000000	0.4084355453
0.6000000000	0.4290539459
0.6050000000	0.4522724259
0.6100000000	0.4783825032
0.6150000000	0.5077798192
0.6200000000	0.5409924652
0.6250000000	0.5785260691
0.6300000000	0.6211279669
0.6350000000	0.6697296761
0.6400000000	0.7253008344
0.6450000000	0.7892403628
0.6500000000	0.8633881986
0.6550000000	0.9496600807
0.6600000000	1.0509992741
0.6650000000	1.1711852936
0.6700000000	1.3146615124
0.6750000000	1.4882009728
0.6800000000	1.7009229165
0.6850000000	1.9647647254
0.6900000000	2.2982304073
0.6950000000	2.7271907806
0.7000000000	3.2927658774
0.7050000000	4.0578155270
0.7100000000	5.1288812193
0.7150000000	6.6956429446
0.7200000000	9.1113030573
0.7250000000	13.1226238852
0.7300000000	20.4882295835
0.7350000000	36.2545376486
0.7400000000	79.5113145036
0.7450000000	263.9695738078
0.7500000000	818.3834938217
0.7550000000	206.0366128593
0.7600000000	68.2865209436
0.7650000000	32.7442606960
0.7700000000	19.0578111458
0.7750000000	12.4483657754
0.7800000000	8.7674841912
0.7850000000	6.5169190910
0.7900000000	5.0390143278
0.7950000000	4.0193702623
0.8000000000	3.2861352223
0.8050000000	2.7398541859
0.8100000000	2.3231423644
0.8150000000	1.9926785429
0.8200000000	1.7317859801
0.8250000000	1.5216594521
0.8300000000	1.3494754511
0.8350000000	1.2078774297
0.8400000000	1.0891492536
0.8450000000	0.9894993222
0.8500000000	0.9052594621
0.8550000000	0.8325436881
0.8600000000	0.7704675492
0.8650000000	0.7174564650
0.8700000000	0.6706027147
0.8750000000	0.6307677153
0.8800000000	0.5969973720
0.8850000000	0.5667172141
0.8900000000	0.5424916937
0.8950000000	0.5204513153
0.9000000000	0.5030537563
0.9050000000	0.4912048696
0.9100000000	0.4803530156
0.9150000000	0.4739330470
0.9200000000	0.4735517324
0.9250000000	0.4733509622
0.9300000000	0.4667316714
0.9350000000	0.4460069729
0.9400000000	0.3290171512
0.9450000000	-0.2040879936
0.9500000000	-3.0203066064
0.9550000000	-17.3148278618
0.9600000000	4.0897440319
0.9650000000	7.1881694030
0.9700000000	3.1903752042
0.9750000000	1.6756274775
0.9800000000	1.0503915135
0.9850000000	0.7578859499
0.9900000000	0.5892650122
0.9950000000	0.4869831237
1.0000000000	0.4216637025
1.0050000000	0.3802705382
1.0100000000	0.3481445888
1.0150000000	0.3246608140
1.0200000000	0.3088502453
1.0250000000	0.2955449909
1.0300000000	0.2854147651
1.0350000000	0.2777238518
1.0400000000	0.2728113551
1.0450000000	0.2686810998
1.0500000000	0.2659016329
1.0550000000	0.2643137779
1.0600000000	0.2642847239
1.0650000000	0.2647927490
1.0700000000	0.2662503990
1.0750000000	0.2686625092
1.0800000000	0.2722994878
1.0850000000	0.2769232122
1.0900000000	0.2838150585
1.0950000000	0.2920109172
1.1000000000	0.3017984879
1.1050000000	0.3130521373
1.1100000000	0.3261394322
1.1150000000	0.3413504138
1.1200000000	0.3590409585
1.1250000000	0.3796172951
1.1300000000	0.4036932644
1.1350000000	0.4320101864
1.1400000000	0.4654261225
1.1450000000	0.5054449619
1.1500000000	0.5537538552
1.1550000000	0.6127675102
1.1600000000	0.6858920959
1.1650000000	0.7775603385
1.1700000000	0.8960095295
1.1750000000	1.0522330519
1.1800000000	1.2643786533
1.1850000000	1.5622590851
1.1900000000	2.0021447556
1.1950000000	2.6918872575
1.2000000000	3.8608534932
1.2050000000	6.0687552513
1.2100000000	10.9245520250
1.2150000000	24.0513733512
1.2200000000	58.9882021056
1.2250000000	53.0493632780
1.2300000000	21.2237895306
1.2350000000	10.0066892697
1.2400000000	5.7601047863
1.2450000000	3.8139767102
1.2500000000	2.7915341265
1.2550000000	2.2062131341
1.2600000000	1.8554466547
1.2650000000	1.6419433423
1.2700000000	1.5227126658
1.2750000000	1.4700188741
1.2800000000	1.4713198069
1.2850000000	1.5220166495
1.2900000000	1.6234872396
1.2950000000	1.7815130870
1.3000000000	2.0142569000
1.3050000000	2.3453626801
1.3100000000	2.8175965759
1.3150000000	3.5046409722
1.3200000000	4.5384153198
1.3250000000	6.1708427285
1.3300000000	8.9517803749
1.3350000000	14.1579096987
1.3400000000	25.2841171699
1.3450000000	52.9112127130
1.3500000000	112.4019427434
1.3550000000	104.8989994893
1.3600000000	48.3923679858
1.3650000000	23.7804465290
1.3700000000	13.6377849722
1.3750000000	8.7695029218
1.3800000000	6.1149533449
1.3850000000	4.5161459028
1.3900000000	3.4862376009
1.3950000000	2.7840191211
1.4000000000	2.2853630853
1.4050000000	1.9202190239
1.4100000000	1.6465804584
1.4150000000	1.4401009699
1.4200000000	1.2848285216
1.4250000000	1.1808301724
1.4300000000	1.1427436795
1.4350000000	1.1639281210
1.4400000000	0.8964693236
1.4450000000	0.0772747353
1.4500000000	-1.2527157348
1.4550000000	-0.3512567736
1.4600000000	1.5168740425
1.4650000000	0.8212419284
1.4700000000	-0.7754588918
1.4750000000	-3.3939166130
1.4800000000	-1.5105089132
1.4850000000	2.4826834795
1.4900000000	2.0124726355
1.4950000000	1.3026175049
1.5000000000	0.9152433719
1.5050000000	0.7066558535
1.5100000000	0.5877671055
1.5150000000	0.5155658814
1.5200000000	0.4689250222
1.5250000000	0.4399455752
1.5300000000	0.4178085365
1.5350000000	0.4025495601
1.5400000000	0.3924983466
1.5450000000	0.3867586940
1.5500000000	0.3847520254
1.5550000000	0.3864930108
1.5600000000	0.3930122231
1.5650000000	0.4037805172
1.5700000000	0.4212164958
1.5750000000	0.4482702811
1.5800000000	0.4904811556
1.5850000000	0.5586316455
1.5900000000	0.6754388841
1.5950000000	0.8911741319
1.6000000000	1.3120250026
1.6050000000	2.0078850999
1.6100000000	2.3301546353
1.6150000000	1.7260101615
1.6200000000	1.1592566776
1.6250000000	0.8600903994
1.6300000000	0.7098797595
1.6350000000	0.6325469754
1.6400000000	0.5933508139
1.6450000000	0.5761443160
1.6500000000	0.5728416225
1.6550000000	0.5796548920
1.6600000000	0.5943235189
1.6650000000	0.6158152210
1.6700000000	0.6437375475
1.6750000000	0.6780928521
1.6800000000	0.7191882808
1.6850000000	0.7675002853
1.6900000000	0.8234501568
1.6950000000	0.8862432016
1.7000000000	0.9548257518
1.7050000000	1.0251123014
1.7100000000	1.1053154072
1.7150000000	1.3046251082
1.7200000000	1.6543070190
1.7250000000	1.9747053323
1.7300000000	2.3185608775
1.7350000000	2.6963854124
1.7400000000	3.0671150510
1.7450000000	3.5432935567
1.7500000000	4.2633974661
1.7550000000	5.3352004250
1.7600000000	6.9388178291
1.7650000000	9.4108084365
1.7700000000	13.3927514190
1.7750000000	20.1012892734
1.7800000000	31.5325033460
1.7850000000	48.3908683127
1.7900000000	60.1368616483
1.7950000000	51.2076929708
1.8000000000	34.0801447656
1.8050000000	21.5223882616
1.8100000000	14.1902222816
1.8150000000	9.8925519506
1.8200000000	7.2477073867
1.8250000000	5.5330462366
1.8300000000	4.3688509768
1.8350000000	3.5471137105
1.8400000000	2.9484396668
1.8450000000	2.5004016033
1.8500000000	2.1573544019
1.8550000000	1.8907367643
1.8600000000	1.6806246016
1.8650000000	1.5134771271
1.8700000000	1.3796638041
1.8750000000	1.2721142680
1.8800000000	1.1852201149
1.8850000000	1.1140255638
1.8900000000	1.0528200337
1.8950000000	0.9930819931
1.9000000000	0.9200965303
1.9050000000	0.7819330356
1.9100000000	0.5917823983
1.9150000000	0.4910517703
1.9200000000	1.2009196622
1.9250000000	3.1629540019
1.9300000000	4.7189813431
1.9350000000	4.6464051966
1.9400000000	3.6545297808
1.9450000000	2.6928772175
1.9500000000	2.0176864281
1.9550000000	1.5752800817
1.9600000000	1.2829239289
1.9650000000	1.0872452400
1.9700000000	0.9459804561
1.9750000000	0.8424280177
1.9800000000	0.7633700014
1.9850000000	0.6992165093
1.9900000000	0.6426294307
1.9950000000	0.5872044462
2.0000000000	0.5320078604
2.0050000000	0.4967450433
2.0100000000	0.5169496185
2.0150000000	0.5726075606
2.0200000000	0.6069272204
2.0250000000	0.6160465631
2.0300000000	0.6181033477
2.0350000000	0.6218424945
2.0400000000	0.6305134982
2.0450000000	0.6449449361
2.0500000000	0.6656744327
2.0550000000	0.6931902276
2.0600000000	0.7274927077
2.0650000000	0.7665039554
2.0700000000	0.8050708092
2.0750000000	0.8393313684
2.0800000000	0.8726930491
2.0850000000	0.9122027614
2.0900000000	0.9625841005
2.0950000000	1.0258261091
2.1000000000	1.1040682278
2.1050000000	1.1966018244
2.1100000000	1.3099302532
2.1150000000	1.4488075472
2.1200000000	1.6199008136
2.1250000000	1.8325617529
2.1300000000	2.0999725741
2.1350000000	2.4409534505
2.1400000000	2.8826800752
2.1450000000	3.4648835278
2.1500000000	4.2454534232
2.1550000000	5.3063193136
2.1600000000	6.7523381587
2.1650000000	8.6723107374
2.1700000000	11.0307142496
2.1750000000	13.3754637485
2.1800000000	14.8242368397
2.1850000000	14.8995519257
2.1900000000	14.2408977597
2.1950000000	13.7283763120
2.2000000000	13.5011170451
2.2050000000	12.8696678570
2.2100000000	11.5289926757
2.2150000000	9.8806038617
2.2200000000	8.4008118488
2.2250000000	7.1778439118
2.2300000000	6.1010361851
2.2350000000	5.1275173516
2.2400000000	4.2913411229
2.2450000000	3.6223008007
2.2500000000	3.1094214002
2.2550000000	2.7241348824
2.2600000000	2.4356468400
2.2650000000	2.2131002328
2.2700000000	2.0231399454
2.2750000000	1.8329054449
2.2800000000	1.6281071301
2.2850000000	1.4332387595
2.2900000000	1.2985866077
2.2950000000	1.2526126241
2.3000000000	1.2690802532
2.3050000000	1.2942085372
2.3100000000	1.2963308533
2.3150000000	1.2757048638
2.3200000000	1.2460384992
2.3250000000	1.2214903754
2.3300000000	1.2093051866
2.3350000000	1.2107278425
2.3400000000	1.2217015217
2.3450000000	1.2330442291
2.3500000000	1.2331939604
2.3550000000	1.2147742569
2.3600000000	1.1798727091
2.3650000000	1.1376115435
2.3700000000	1.0973936488
2.3750000000	1.0648347641
2.3800000000	1.0417588110
2.3850000000	1.0276491821
2.3900000000	1.0213287095
2.3950000000	1.0214340097
2.4000000000	1.0283365871
2.4050000000	1.0443094794
2.4100000000	1.0701147353
2.4150000000	1.1068071607
2.4200000000	1.1550207678
2.4250000000	1.2158648479
2.4300000000	1.2909570875
2.4350000000	1.3824675309
2.4400000000	1.4931964278
2.4450000000	1.6267192319
2.4500000000	1.7875469390
2.4550000000	1.9813494734
2.4600000000	2.2150930683
2.4650000000	2.4971358427
2.4700000000	2.8370636894
2.4750000000	3.2444787527
2.4800000000	3.7292979381
2.4850000000	4.2954471500
2.4900000000	4.9373930583
2.4950000000	5.6321630871
2.5000000000	6.3311734341
2.5050000000	6.9850666096
2.5100000000	7.4268150793
2.5150000000	7.5600831229
2.5200000000	7.3619148486
2.5250000000	6.8934826825
2.5300000000	6.2613554509
2.5350000000	5.5683131752
2.5400000000	4.8869666901
2.5450000000	4.2583409075
2.5500000000	3.7006783743
2.5550000000	3.2181316385
2.5600000000	2.8040659608
2.5650000000	2.4559413951
2.5700000000	2.1655620640
2.5750000000	1.9277973083
2.5800000000	1.7388147073
2.5850000000	1.5944481355
2.5900000000	1.4878454193
2.5950000000	1.4093730207
2.6000000000	1.3490003555
2.6050000000	1.3060944864
2.6100000000	1.2689434144
2.6150000000	1.2369582548
2.6200000000	1.2107709591
2.6250000000	1.1910816136
2.6300000000	1.1783577002
2.6350000000	1.1728377515
2.6400000000	1.1746602875
2.6450000000	1.1839542296
2.6500000000	1.2009718924
2.6550000000	1.2257839437
2.6600000000	1.2587711766
2.6650000000	1.3003182520
2.6700000000	1.3508977020
2.6750000000	1.4110821731
2.6800000000	1.4815063464
2.6850000000	1.5628194913
2.6900000000	1.6555534619
2.6950000000	1.7600167639
2.7000000000	1.8761037100
2.7050000000	2.0170175045
2.7100000000	2.1708061777
2.7150000000	2.3344753656
2.7200000000	2.5036698456
2.7250000000	2.6729182056
2.7300000000	2.8360465174
2.7350000000	2.9865341007
2.7400000000	3.1175991723
2.7450000000	3.2232215976
2.7500000000	3.2940632044
2.7550000000	3.3244706689
2.7600000000	3.3101543287
2.7650000000	3.2506151579
2.7700000000	3.1498435199
2.7750000000	3.0158345209
2.7800000000	2.8590092769
2.7850000000	2.6904231840
2.7900000000	2.5199956049
2.7950000000	2.3556809593
2.8000000000	2.2031037938
2.8050000000	2.0487314037
2.8100000000	1.9166087281
2.8150000000	1.8063813695
2.8200000000	1.7162749736
2.8250000000	1.6439509372
2.8300000000	1.5870535123
2.8350000000	1.5435666255
2.8400000000	1.5113679330
2.8450000000	1.4905313379
2.8500000000	1.4795144481
2.8550000000	1.4777295745
2.8600000000	1.4847378826
2.8650000000	1.5001440530
2.8700000000	1.5235058866
2.8750000000	1.5542623767
2.8800000000	1.5916780448
2.8850000000	1.6347963958
2.8900000000	1.6824676708
2.8950000000	1.7333914842
2.9000000000	1.7862003162
2.9050000000	1.8496611909
2.9100000000	1.9105410074
2.9150000000	1.9669246973
2.9200000000	2.0168023331
2.9250000000	2.0578933296
2.9300000000	2.0880977295
2.9350000000	2.1041499375
2.9400000000	2.1046404286
2.9450000000	2.0889687444
2.9500000000	2.0580391284
2.9550000000	2.0142023989
2.9600000000	1.9608517445
2.9650000000	1.9018319407
2.9700000000	1.8408608771
2.9750000000	1.7811158880
2.9800000000	1.7250315656
2.9850000000	1.6742689721
2.9900000000	1.6298271886
2.9950000000	1.5921752202
3.0000000000	1.5614117605
