# energy (eV)    P(omega), $W$ = 400 nm, $h$ = 300 nm, $s$ = 20 nm, $d/W = 5$, $E_{\rm e}$ = 200 keV
0.2000000000	0.0530619871
0.2050000000	0.0535446643
0.2100000000	0.0538844836
0.2150000000	0.0540757222
0.2200000000	0.0541103772
0.2250000000	0.0539775764
0.2300000000	0.0536630136
0.2350000000	0.0531480616
0.2400000000	0.0524087648
0.2450000000	0.0514142494
0.2500000000	0.0501250425
0.2550000000	0.0484903547
0.2600000000	0.0464447356
0.2650000000	0.0485879860
0.2700000000	0.0540322497
0.2750000000	0.0618228200
0.2800000000	0.0726772833
0.2850000000	0.0886795910
0.2900000000	0.1085075551
0.2950000000	0.1369325866
0.3000000000	0.1751439011
0.3050000000	0.2337126746
0.3100000000	0.3152970526
0.3150000000	0.4731591107
0.3200000000	0.7197086627
0.3250000000	0.8885062236
0.3300000000	1.1220075404
0.3350000000	1.4530288915
0.3400000000	1.9726652907
0.3450000000	2.8641941903
0.3500000000	4.6419792785
0.3550000000	8.7573282054
0.3600000000	21.5221888348
0.3650000000	0.0972716140
0.3700000000	9.9747425849
0.3750000000	13.1163896619
0.3800000000	6.1117769945
0.3850000000	3.4428143769
0.3900000000	2.2082574279
0.3950000000	1.5561105304
0.4000000000	1.1785180714
0.4050000000	0.9323543584
0.4100000000	0.7720963489
0.4150000000	0.6663972747
0.4200000000	0.5995931974
0.4250000000	0.5471270436
0.4300000000	0.4851311465
0.4350000000	0.4360650479
0.4400000000	0.3972592280
0.4450000000	0.3664039899
0.4500000000	0.3420438984
0.4550000000	0.3227269746
0.4600000000	0.3076581178
0.4650000000	0.2959963794
0.4700000000	0.2871850372
0.4750000000	0.2808345699
0.4800000000	0.2766050636
0.4850000000	0.2741984695
0.4900000000	0.2734385286
0.4950000000	0.2741896340
0.5000000000	0.2763359159
0.5050000000	0.2798257252
0.5100000000	0.2846167499
0.5150000000	0.2906838412
0.5200000000	0.2980395685
0.5250000000	0.3066942379
0.5300000000	0.3167749100
0.5350000000	0.3283380649
0.5400000000	0.3414854145
0.5450000000	0.3563503462
0.5500000000	0.3731215814
0.5550000000	0.3920055524
0.5600000000	0.4132535211
0.5650000000	0.4371885856
0.5700000000	0.4642567693
0.5750000000	0.4947886447
0.5800000000	0.5294027552
0.5850000000	0.5689442353
0.5900000000	0.6139831313
0.5950000000	0.6657189824
0.6000000000	0.7257365345
0.6050000000	0.7952235090
0.6100000000	0.8769026216
0.6150000000	0.9730316918
0.6200000000	1.0874865695
0.6250000000	1.2258277900
0.6300000000	1.3937261240
0.6350000000	1.6018374864
0.6400000000	1.8619181436
0.6450000000	2.1953015664
0.6500000000	2.6292389721
0.6550000000	3.2098912664
0.6600000000	4.0152002207
0.6650000000	5.1683068460
0.6700000000	6.9143836999
0.6750000000	9.7218088132
0.6800000000	14.6844564796
0.6850000000	24.6423194929
0.6900000000	49.3870492531
0.6950000000	138.6365468975
0.7000000000	672.3976596887
0.7050000000	326.9020870358
0.7100000000	83.9741797961
0.7150000000	35.7105074113
0.7200000000	19.5019442912
0.7250000000	12.2506954410
0.7300000000	8.4022767571
0.7350000000	6.1272868408
0.7400000000	4.6704670924
0.7450000000	3.6816361878
0.7500000000	2.9811674783
0.7550000000	2.4665538788
0.7600000000	2.0786783502
0.7650000000	1.7778866413
0.7700000000	1.5404425730
0.7750000000	1.3498195436
0.7800000000	1.1949129287
0.7850000000	1.0673632747
0.7900000000	0.9605063481
0.7950000000	0.8712612235
0.8000000000	0.7953788433
0.8050000000	0.7303671225
0.8100000000	0.6750226565
0.8150000000	0.6265155827
0.8200000000	0.5842850065
0.8250000000	0.5488461325
0.8300000000	0.5178253753
0.8350000000	0.4908573163
0.8400000000	0.4693811543
0.8450000000	0.4506420235
0.8500000000	0.4347531755
0.8550000000	0.4247096849
0.8600000000	0.4166645589
0.8650000000	0.4109040018
0.8700000000	0.4129082197
0.8750000000	0.4136096544
0.8800000000	0.4113827086
0.8850000000	0.3934954623
0.8900000000	0.3053681859
0.8950000000	-0.1362800810
0.9000000000	-2.5045129078
0.9050000000	-16.4565413794
0.9100000000	3.1336494402
0.9150000000	7.4230165535
0.9200000000	3.0814367143
0.9250000000	1.6030534177
0.9300000000	0.9785434831
0.9350000000	0.6801735711
0.9400000000	0.5192160228
0.9450000000	0.4299984145
0.9500000000	0.3666398916
0.9550000000	0.3242287147
0.9600000000	0.2979996047
0.9650000000	0.2763580718
0.9700000000	0.2609161084
0.9750000000	0.2503930269
0.9800000000	0.2439878683
0.9850000000	0.2428165472
0.9900000000	0.2451583155
0.9950000000	0.2546014672
1.0000000000	0.2771727413
1.0050000000	0.3298657163
1.0100000000	0.4679570997
1.0150000000	0.9412342546
1.0200000000	1.8076744751
1.0250000000	0.8217290867
1.0300000000	0.4208146246
1.0350000000	0.3013235453
1.0400000000	0.2543338460
1.0450000000	0.2322887373
1.0500000000	0.2212366614
1.0550000000	0.2154368049
1.0600000000	0.2128312352
1.0650000000	0.2123399099
1.0700000000	0.2133640371
1.0750000000	0.2156926644
1.0800000000	0.2189078018
1.0850000000	0.2232843994
1.0900000000	0.2296096398
1.0950000000	0.2369841385
1.1000000000	0.2454801223
1.1050000000	0.2551128533
1.1100000000	0.2660347580
1.1150000000	0.2783911471
1.1200000000	0.2923544893
1.1250000000	0.3080675134
1.1300000000	0.3259372808
1.1350000000	0.3462381902
1.1400000000	0.3693811473
1.1450000000	0.3958886772
1.1500000000	0.4261674102
1.1550000000	0.4614834119
1.1600000000	0.5026372841
1.1650000000	0.5506776475
1.1700000000	0.6058218246
1.1750000000	0.6617473171
1.1800000000	0.7146701576
1.1850000000	0.9932915334
1.1900000000	1.2326830099
1.1950000000	1.6898301045
1.2000000000	2.3014404287
1.2050000000	2.0187421034
1.2100000000	1.9319562630
1.2150000000	2.1508136826
1.2200000000	2.5723883398
1.2250000000	3.2197960367
1.2300000000	4.2042264616
1.2350000000	5.7614929455
1.2400000000	8.3847086772
1.2450000000	13.3242059086
1.2500000000	24.0217622252
1.2550000000	51.9995561428
1.2600000000	125.6005501048
1.2650000000	127.2280895385
1.2700000000	52.9242699223
1.2750000000	24.4298836595
1.2800000000	13.5297016411
1.2850000000	8.5082784011
1.2900000000	5.8316459329
1.2950000000	4.2501886661
1.3000000000	3.2428703543
1.3050000000	2.5646461323
1.3100000000	2.0863887063
1.3150000000	1.7408238802
1.3200000000	1.4846560352
1.3250000000	1.2918801478
1.3300000000	1.1467008391
1.3350000000	1.0394258250
1.3400000000	0.9650230277
1.3450000000	0.9221122144
1.3500000000	0.9169520083
1.3550000000	0.9637909130
1.3600000000	1.0988838661
1.3650000000	1.4144900810
1.3700000000	2.1682052849
1.3750000000	4.0435139412
1.3800000000	6.6047800237
1.3850000000	4.6139451156
1.3900000000	2.3513044109
1.3950000000	1.3643112667
1.4000000000	0.8934894108
1.4050000000	0.6041197824
1.4100000000	0.3422122064
1.4150000000	-0.0485063307
1.4200000000	-0.9232692187
1.4250000000	-3.2411612979
1.4300000000	-4.3579481759
1.4350000000	1.9965472578
1.4400000000	2.5538914238
1.4450000000	1.5311671815
1.4500000000	0.9527530742
1.4550000000	0.6567738732
1.4600000000	0.4849888175
1.4650000000	0.3492270620
1.4700000000	0.2040117128
1.4750000000	0.2397435260
1.4800000000	0.3514704611
1.4850000000	0.3191469360
1.4900000000	0.2825975367
1.4950000000	0.2589570759
1.5000000000	0.2434272045
1.5050000000	0.2331588808
1.5100000000	0.2261735428
1.5150000000	0.2223621588
1.5200000000	0.2195526636
1.5250000000	0.2185392408
1.5300000000	0.2194152875
1.5350000000	0.2225817001
1.5400000000	0.2290386194
1.5450000000	0.2410071935
1.5500000000	0.2634797307
1.5550000000	0.3064073236
1.5600000000	0.3708447653
1.5650000000	0.3811714043
1.5700000000	0.3230221108
1.5750000000	0.2822170943
1.5800000000	0.2646138928
1.5850000000	0.2590744510
1.5900000000	0.2597914313
1.5950000000	0.2642428396
1.6000000000	0.2713298974
1.6050000000	0.2806743087
1.6100000000	0.2919936090
1.6150000000	0.3052457157
1.6200000000	0.3206417167
1.6250000000	0.3383637096
1.6300000000	0.3587109919
1.6350000000	0.3820694229
1.6400000000	0.4089324149
1.6450000000	0.4399301548
1.6500000000	0.4758536757
1.6550000000	0.5177054416
1.6600000000	0.5667842477
1.6650000000	0.6247665623
1.6700000000	0.6932824280
1.6750000000	0.7763320206
1.6800000000	0.8774511500
1.6850000000	1.0022022999
1.6900000000	1.1584831648
1.6950000000	1.3578833016
1.7000000000	1.6178494528
1.7050000000	1.9764796113
1.7100000000	2.4768322668
1.7150000000	3.2041050915
1.7200000000	4.3124928830
1.7250000000	6.0709053598
1.7300000000	8.7731051138
1.7350000000	12.2409161011
1.7400000000	16.6247995233
1.7450000000	24.3177809739
1.7500000000	34.3039679195
1.7550000000	34.8557960661
1.7600000000	24.4535613830
1.7650000000	15.2322856148
1.7700000000	9.7644922491
1.7750000000	6.6553038537
1.7800000000	4.8179067980
1.7850000000	3.6876806269
1.7900000000	2.9867697678
1.7950000000	2.5857186410
1.8000000000	2.4238464413
1.8050000000	2.3726002311
1.8100000000	2.1109328971
1.8150000000	1.6356695079
1.8200000000	1.2559664416
1.8250000000	1.0601922426
1.8300000000	0.9230061410
1.8350000000	0.8010861690
1.8400000000	0.7016696437
1.8450000000	0.6227763942
1.8500000000	0.5591966534
1.8550000000	0.5066724695
1.8600000000	0.4583572360
1.8650000000	0.4175107861
1.8700000000	0.3762287832
1.8750000000	0.3167175938
1.8800000000	0.1810657710
1.8850000000	-0.1162384528
1.8900000000	-0.5161297195
1.8950000000	-0.5847421563
1.9000000000	0.0625723309
1.9050000000	0.6660993738
1.9100000000	0.7365233004
1.9150000000	0.6222257317
1.9200000000	0.5102035960
1.9250000000	0.4307123910
1.9300000000	0.3825723528
1.9350000000	0.3458196423
1.9400000000	0.3213710315
1.9450000000	0.3051876103
1.9500000000	0.2938758248
1.9550000000	0.2844098733
1.9600000000	0.2762358723
1.9650000000	0.2704313064
1.9700000000	0.2673313426
1.9750000000	0.2667297556
1.9800000000	0.2684593259
1.9850000000	0.2725702248
1.9900000000	0.2793323243
1.9950000000	0.2890832478
2.0000000000	0.3015694018
2.0050000000	0.3157341766
2.0100000000	0.3258947314
2.0150000000	0.3326711037
2.0200000000	0.3408421089
2.0250000000	0.3534548767
2.0300000000	0.3714060926
2.0350000000	0.3951446041
2.0400000000	0.4254854510
2.0450000000	0.4638428518
2.0500000000	0.5122479159
2.0550000000	0.5729578337
2.0600000000	0.6470673779
2.0650000000	0.7334114186
2.0700000000	0.8332869734
2.0750000000	0.9578354307
2.0800000000	1.1254510962
2.0850000000	1.3540685781
2.0900000000	1.6541181557
2.0950000000	2.0040425980
2.1000000000	2.3159231557
2.1050000000	2.4670493359
2.1100000000	2.3952820262
2.1150000000	2.2301349086
2.1200000000	2.1134074953
2.1250000000	2.1084279071
2.1300000000	2.2339843562
2.1350000000	2.5049681767
2.1400000000	2.9512060211
2.1450000000	3.6254658512
2.1500000000	4.6016402614
2.1550000000	5.9352341380
2.1600000000	7.5187019120
2.1650000000	8.8495784762
2.1700000000	9.1640444824
2.1750000000	8.2033001777
2.1800000000	6.6227389142
2.1850000000	5.1097530757
2.1900000000	3.9268223019
2.1950000000	3.0721903311
2.2000000000	2.4725955222
2.2050000000	2.0589251631
2.2100000000	1.7717537888
2.2150000000	1.5514908131
2.2200000000	1.3541212224
2.2250000000	1.1663908161
2.2300000000	0.9964139247
2.2350000000	0.8504652633
2.2400000000	0.7268519180
2.2450000000	0.6201165117
2.2500000000	0.5248269365
2.2550000000	0.4379451842
2.2600000000	0.3510618739
2.2650000000	0.2878565654
2.2700000000	0.2535236103
2.2750000000	0.2621670466
2.2800000000	0.3120338541
2.2850000000	0.3755334384
2.2900000000	0.4220139141
2.2950000000	0.4426149049
2.3000000000	0.4449715618
2.3050000000	0.4378636677
2.3100000000	0.4285004343
2.3150000000	0.4202037622
2.3200000000	0.4142870078
2.3250000000	0.4114715981
2.3300000000	0.4123413367
2.3350000000	0.4173798167
2.3400000000	0.4270001031
2.3450000000	0.4416200938
2.3500000000	0.4616824937
2.3550000000	0.4878509693
2.3600000000	0.5196958179
2.3650000000	0.5574151282
2.3700000000	0.6009039728
2.3750000000	0.6506344222
2.3800000000	0.7084016321
2.3850000000	0.7763357300
2.3900000000	0.8549077607
2.3950000000	0.9406190542
2.4000000000	1.0244753478
2.4050000000	1.0967409734
2.4100000000	1.1367960580
2.4150000000	1.1406247819
2.4200000000	1.1180198520
2.4250000000	1.0856804615
2.4300000000	1.0584275059
2.4350000000	1.0452075381
2.4400000000	1.0495906262
2.4450000000	1.0721535778
2.4500000000	1.1129684732
2.4550000000	1.1729447806
2.4600000000	1.2559276359
2.4650000000	1.3658587758
2.4700000000	1.5071276026
2.4750000000	1.6824756366
2.4800000000	1.8905194095
2.4850000000	2.1223822261
2.4900000000	2.3577588087
2.4950000000	2.5629536119
2.5000000000	2.6958016236
2.5050000000	2.7128804141
2.5100000000	2.5968517560
2.5150000000	2.3793858237
2.5200000000	2.1110859669
2.5250000000	1.8364086018
2.5300000000	1.5824526290
2.5350000000	1.3606040994
2.5400000000	1.1725392809
2.5450000000	1.0154679059
2.5500000000	0.8853464759
2.5550000000	0.7785419446
2.5600000000	0.6892352124
2.5650000000	0.6224000083
2.5700000000	0.5743771180
2.5750000000	0.5434538951
2.5800000000	0.5261979210
2.5850000000	0.5179147791
2.5900000000	0.5141988579
2.5950000000	0.5123068168
2.6000000000	0.5113541126
2.6050000000	0.5154318369
2.6100000000	0.5218924109
2.6150000000	0.5317250330
2.6200000000	0.5454552564
2.6250000000	0.5631154618
2.6300000000	0.5842071594
2.6350000000	0.6076723560
2.6400000000	0.6318944972
2.6450000000	0.6548236689
2.6500000000	0.6742889035
2.6550000000	0.6885102402
2.6600000000	0.6966608725
2.6650000000	0.6992264511
2.6700000000	0.6979023351
2.6750000000	0.6951667288
2.6800000000	0.6934209749
2.6850000000	0.6949086345
2.6900000000	0.7011921332
2.6950000000	0.7132316646
2.7000000000	0.7314876090
2.7050000000	0.7588149094
2.7100000000	0.7939843290
2.7150000000	0.8364272675
2.7200000000	0.8849683778
2.7250000000	0.9376124889
2.7300000000	0.9913475343
2.7350000000	1.0421126238
2.7400000000	1.0850774027
2.7450000000	1.1153374028
2.7500000000	1.1289395682
2.7550000000	1.1238922645
2.7600000000	1.1007043586
2.7650000000	1.0622014822
2.7700000000	1.0127074890
2.7750000000	0.9570129061
2.7800000000	0.8995104809
2.7850000000	0.8437142708
2.7900000000	0.7916615428
2.7950000000	0.7455816391
2.8000000000	0.7059357500
2.8050000000	0.6692163455
2.8100000000	0.6402656783
2.8150000000	0.6179439657
2.8200000000	0.6010130162
2.8250000000	0.5883366215
2.8300000000	0.5789491022
2.8350000000	0.5720494619
2.8400000000	0.5669608766
2.8450000000	0.5631087153
2.8500000000	0.5600315539
2.8550000000	0.5574230729
2.8600000000	0.5551795739
2.8650000000	0.5534152964
2.8700000000	0.5524334004
2.8750000000	0.5526508336
2.8800000000	0.5545060127
2.8850000000	0.5583755393
2.8900000000	0.5645162212
2.8950000000	0.5730300910
2.9000000000	0.5838472088
2.9050000000	0.6000275273
2.9100000000	0.6177712395
2.9150000000	0.6358936565
2.9200000000	0.6528975856
2.9250000000	0.6671746787
2.9300000000	0.6772316292
2.9350000000	0.6819519057
2.9400000000	0.6808118211
2.9450000000	0.6739805304
2.9500000000	0.6622567823
2.9550000000	0.6468653379
2.9600000000	0.6291988367
2.9650000000	0.6105764212
2.9700000000	0.5920829390
2.9750000000	0.5744986017
2.9800000000	0.5583037551
2.9850000000	0.5437307494
2.9900000000	0.5308336177
2.9950000000	0.5195558099
3.0000000000	0.5097854679
