# energy (eV)    P(omega), $W$ = 400 nm, $h$ = 300 nm, $s$ = 20 nm, $d/W = 5$, $E_{\rm e}$ = 200 keV
0.2000000000	0.1854739818
0.2050000000	0.1871608442
0.2100000000	0.1883486196
0.2150000000	0.1890173057
0.2200000000	0.1891389304
0.2250000000	0.1886754962
0.2300000000	0.1875770055
0.2350000000	0.1857783632
0.2400000000	0.1831958504
0.2450000000	0.1797215787
0.2500000000	0.1752176071
0.2550000000	0.1695064503
0.2600000000	0.1623593910
0.2650000000	0.1698485914
0.2700000000	0.1888721192
0.2750000000	0.2160943416
0.2800000000	0.2540228523
0.2850000000	0.3099396930
0.2900000000	0.3792252365
0.2950000000	0.4785524266
0.3000000000	0.6120774629
0.3050000000	0.8167403637
0.3100000000	1.1018312163
0.3150000000	1.6534704081
0.3200000000	2.5150285988
0.3250000000	3.1048998905
0.3300000000	3.9208857666
0.3350000000	5.0776679021
0.3400000000	6.8935873656
0.3450000000	10.0091320779
0.3500000000	16.2218143889
0.3550000000	30.6034491180
0.3600000000	75.2121335299
0.3650000000	0.3392857304
0.3700000000	34.8587725101
0.3750000000	45.8380979340
0.3800000000	21.3591377752
0.3850000000	12.0318965696
0.3900000000	7.7174658926
0.3950000000	5.4383885861
0.4000000000	4.1188017241
0.4050000000	3.2585219521
0.4100000000	2.6984609446
0.4150000000	2.3290710198
0.4200000000	2.0956117980
0.4250000000	1.9122598611
0.4300000000	1.6955982279
0.4350000000	1.5241232934
0.4400000000	1.3885060595
0.4450000000	1.2806746751
0.4500000000	1.1955429460
0.4550000000	1.1280364695
0.4600000000	1.0753766496
0.4650000000	1.0346246052
0.4700000000	1.0038346730
0.4750000000	0.9816456677
0.4800000000	0.9668696589
0.4850000000	0.9584650193
0.4900000000	0.9558158430
0.4950000000	0.9584482635
0.5000000000	0.9659573982
0.5050000000	0.9781627724
0.5100000000	0.9949166515
0.5150000000	1.0161311801
0.5200000000	1.0418504273
0.5250000000	1.0721104653
0.5300000000	1.1073555983
0.5350000000	1.1477832630
0.5400000000	1.1937492048
0.5450000000	1.2457197331
0.5500000000	1.3043547269
0.5550000000	1.3703759032
0.5600000000	1.4446617076
0.5650000000	1.5283418459
0.5700000000	1.6229756045
0.5750000000	1.7297188128
0.5800000000	1.8507339744
0.5850000000	1.9889758014
0.5900000000	2.1464373717
0.5950000000	2.3273125172
0.6000000000	2.5371416270
0.6050000000	2.7800774297
0.6100000000	3.0656389442
0.6150000000	3.4017200843
0.6200000000	3.8018715683
0.6250000000	4.2855342349
0.6300000000	4.8725341224
0.6350000000	5.6001267170
0.6400000000	6.5094144882
0.6450000000	7.6749839501
0.6500000000	9.1921126443
0.6550000000	11.2221887153
0.6600000000	14.0377160287
0.6650000000	18.0692250011
0.6700000000	24.1738998532
0.6750000000	33.9893093017
0.6800000000	51.3399188845
0.6850000000	86.1550886623
0.6900000000	172.6690423635
0.6950000000	484.7091238518
0.7000000000	2350.8870749260
0.7050000000	1142.9451172599
0.7100000000	293.5996835944
0.7150000000	124.8555847461
0.7200000000	68.1855025372
0.7250000000	42.8328603594
0.7300000000	29.3775453215
0.7350000000	21.4234278978
0.7400000000	16.3298919552
0.7450000000	12.8725961137
0.7500000000	10.4235090132
0.7550000000	8.6242331168
0.7600000000	7.2680769052
0.7650000000	6.2163955722
0.7700000000	5.3861998405
0.7750000000	4.7197073076
0.7800000000	4.1780922043
0.7850000000	3.7321275945
0.7900000000	3.3585121976
0.7950000000	3.0464745915
0.8000000000	2.7811583704
0.8050000000	2.5538502389
0.8100000000	2.3603429428
0.8150000000	2.1907418533
0.8200000000	2.0430860306
0.8250000000	1.9191774269
0.8300000000	1.8107165247
0.8350000000	1.7164258167
0.8400000000	1.6413381355
0.8450000000	1.5758205778
0.8500000000	1.5202692110
0.8550000000	1.4851577443
0.8600000000	1.4570339391
0.8650000000	1.4368985992
0.8700000000	1.4439160431
0.8750000000	1.4463773883
0.8800000000	1.4385973112
0.8850000000	1.3760505904
0.8900000000	1.0678636348
0.8950000000	-0.4766399831
0.9000000000	-8.7587307918
0.9050000000	-57.5514581669
0.9100000000	10.9590495110
0.9150000000	25.9599024252
0.9200000000	10.7765080728
0.9250000000	5.6062791408
0.9300000000	3.4222230650
0.9350000000	2.3787507869
0.9400000000	1.8158411493
0.9450000000	1.5038238007
0.9500000000	1.2822403378
0.9550000000	1.1339142642
0.9600000000	1.0421805291
0.9650000000	0.9664884447
0.9700000000	0.9124754760
0.9750000000	0.8756618392
0.9800000000	0.8532446308
0.9850000000	0.8491240804
0.9900000000	0.8572759678
0.9950000000	0.8902392457
1.0000000000	0.9690671554
1.0050000000	1.1531272819
1.0100000000	1.6355229545
1.0150000000	3.2889321666
1.0200000000	6.3162126561
1.0250000000	2.8718407330
1.0300000000	1.4711319304
1.0350000000	1.0536376390
1.0400000000	0.8894556983
1.0450000000	0.8124319861
1.0500000000	0.7738216349
1.0550000000	0.7535649164
1.0600000000	0.7444720403
1.0650000000	0.7427690589
1.0700000000	0.7463637844
1.0750000000	0.7545194647
1.0800000000	0.7657751222
1.0850000000	0.7810928719
1.0900000000	0.8032268263
1.0950000000	0.8290310204
1.1000000000	0.8587579519
1.1050000000	0.8924616956
1.1100000000	0.9306752992
1.1150000000	0.9739072313
1.1200000000	1.0227608848
1.1250000000	1.0777352213
1.1300000000	1.1402549341
1.1350000000	1.2112794007
1.1400000000	1.2922463427
1.1450000000	1.3849831556
1.1500000000	1.4909112719
1.1550000000	1.6144593296
1.1600000000	1.7584243254
1.1650000000	1.9264639181
1.1700000000	2.1193062089
1.1750000000	2.3146933778
1.1800000000	2.4992137415
1.1850000000	3.4754533343
1.1900000000	4.3127526767
1.1950000000	5.9110781038
1.2000000000	8.0497485898
1.2050000000	7.0617273079
1.2100000000	6.7588691464
1.2150000000	7.5248926692
1.2200000000	9.0000174543
1.2250000000	11.2652257880
1.2300000000	14.7095886753
1.2350000000	20.1581895479
1.2400000000	29.3363566700
1.2450000000	46.6187999673
1.2500000000	84.0477704014
1.2550000000	181.9376539548
1.2600000000	439.4568390478
1.2650000000	445.1533380713
1.2700000000	185.1755596246
1.2750000000	85.4776755007
1.2800000000	47.3393676857
1.2850000000	29.7700368059
1.2900000000	20.4048298981
1.2950000000	14.8715099876
1.3000000000	11.3470409059
1.3050000000	8.9740427833
1.3100000000	7.3007174501
1.3150000000	6.0916836807
1.3200000000	5.1954588748
1.3250000000	4.5210625237
1.3300000000	4.0132376673
1.3350000000	3.6380873209
1.3400000000	3.3780314611
1.3450000000	3.2282847276
1.3500000000	3.2108259399
1.3550000000	3.3756671879
1.3600000000	3.8500047285
1.3650000000	4.9574783584
1.3700000000	7.6016847722
1.3750000000	14.1801275421
1.3800000000	23.1646624885
1.3850000000	16.1814935491
1.3900000000	8.2449607227
1.3950000000	4.7831391071
1.4000000000	3.1320160021
1.4050000000	2.1176082649
1.4100000000	1.2000913736
1.4150000000	-0.1677625468
1.4200000000	-3.2291770427
1.4250000000	-11.3403207549
1.4300000000	-15.2484994404
1.4350000000	6.9872857112
1.4400000000	8.9374944288
1.4450000000	5.3586231884
1.4500000000	3.3345036321
1.4550000000	2.2986817004
1.4600000000	1.6973728387
1.4650000000	1.2218619790
1.4700000000	0.7128210794
1.4750000000	0.8385380790
1.4800000000	1.2307839820
1.4850000000	1.1175494007
1.4900000000	0.9894422785
1.4950000000	0.9065946684
1.5000000000	0.8521792423
1.5050000000	0.8162005576
1.5100000000	0.7917234409
1.5150000000	0.7783595202
1.5200000000	0.7685035527
1.5250000000	0.7649312211
1.5300000000	0.7679654725
1.5350000000	0.7790027749
1.5400000000	0.8015319840
1.5450000000	0.8433025771
1.5500000000	0.9217337530
1.5550000000	1.0715465947
1.5600000000	1.2964182798
1.5650000000	1.3324758610
1.5700000000	1.1296153304
1.5750000000	0.9872918502
1.5800000000	0.9259380855
1.5850000000	0.9066888955
1.5900000000	0.9092813126
1.5950000000	0.9249165249
1.6000000000	0.9497619715
1.6050000000	0.9825001670
1.6100000000	1.0221465747
1.6150000000	1.0685561629
1.6200000000	1.1224691429
1.6250000000	1.1845240699
1.6300000000	1.2557694889
1.6350000000	1.3375568540
1.6400000000	1.4316140904
1.6450000000	1.5401480211
1.6500000000	1.6659286554
1.6550000000	1.8124663164
1.6600000000	1.9843090332
1.6650000000	2.1873273782
1.6700000000	2.4272303782
1.6750000000	2.7180243247
1.6800000000	3.0720922545
1.6850000000	3.5089141941
1.6900000000	4.0561493755
1.6950000000	4.7543873925
1.7000000000	5.6647350880
1.7050000000	6.9206285152
1.7100000000	8.6729041863
1.7150000000	11.2200200954
1.7200000000	15.1021753919
1.7250000000	21.2614376665
1.7300000000	30.7263503233
1.7350000000	42.8688752110
1.7400000000	58.2106208502
1.7450000000	85.1341609438
1.7500000000	120.0873201391
1.7550000000	122.0174354480
1.7600000000	85.6035575610
1.7650000000	53.3238410862
1.7700000000	34.1833942702
1.7750000000	23.2994509574
1.7800000000	16.8676121626
1.7850000000	12.9114576789
1.7900000000	10.4584542153
1.7950000000	9.0556382106
1.8000000000	8.4907984154
1.8050000000	8.3133444357
1.8100000000	7.3970297180
1.8150000000	5.7308837076
1.8200000000	4.3997271600
1.8250000000	3.7136823920
1.8300000000	3.2330423308
1.8350000000	2.8058484308
1.8400000000	2.4575176227
1.8450000000	2.1811223315
1.8500000000	1.9583989344
1.8550000000	1.7744209526
1.8600000000	1.6052070678
1.8650000000	1.4621615305
1.8700000000	1.3176092848
1.8750000000	1.1092532027
1.8800000000	0.6343399099
1.8850000000	-0.4065203930
1.8900000000	-1.8065523413
1.8950000000	-2.0468205978
1.9000000000	0.2193344089
1.9050000000	2.3322394825
1.9100000000	2.5787937219
1.9150000000	2.1786404316
1.9200000000	1.7864481641
1.9250000000	1.5081420200
1.9300000000	1.3395915421
1.9350000000	1.2109025190
1.9400000000	1.1252821817
1.9450000000	1.0685918877
1.9500000000	1.0289659287
1.9550000000	0.9958344959
1.9600000000	0.9672519844
1.9650000000	0.9469642915
1.9700000000	0.9361336952
1.9750000000	0.9340378396
1.9800000000	0.9400915574
1.9850000000	0.9544686603
1.9900000000	0.9781092827
1.9950000000	1.0121903112
2.0000000000	1.0558288026
2.0050000000	1.1053671229
2.0100000000	1.1409821922
2.0150000000	1.1648478484
2.0200000000	1.1936257903
2.0250000000	1.2379437269
2.0300000000	1.3009390690
2.0350000000	1.3841942261
2.0400000000	1.4905748921
2.0450000000	1.6250447659
2.0500000000	1.7947289118
2.0550000000	2.0075466473
2.0600000000	2.2673475053
2.0650000000	2.5700648175
2.0700000000	2.9202643606
2.0750000000	3.3570141149
2.0800000000	3.9448070595
2.0850000000	4.7465331672
2.0900000000	5.7987661048
2.0950000000	7.0258827390
2.1000000000	8.1194776189
2.1050000000	8.6491017880
2.1100000000	8.3967545039
2.1150000000	7.8166932809
2.1200000000	7.4062565816
2.1250000000	7.3875024620
2.1300000000	7.8262195612
2.1350000000	8.7744701105
2.1400000000	10.3366259623
2.1450000000	12.6974292661
2.1500000000	16.1156513318
2.1550000000	20.7857250387
2.1600000000	26.3310499492
2.1650000000	30.9919019202
2.1700000000	32.0932665953
2.1750000000	28.7287588692
2.1800000000	23.1935661339
2.1850000000	17.8949657304
2.1900000000	13.7521857560
2.1950000000	10.7590842621
2.2000000000	8.6590958209
2.2050000000	7.2101864387
2.2100000000	6.2042817185
2.2150000000	5.4327674561
2.2200000000	4.7415701634
2.2250000000	4.0842552719
2.2300000000	3.4891596103
2.2350000000	2.9781969283
2.2400000000	2.5454195447
2.2450000000	2.1717173064
2.2500000000	1.8380755139
2.2550000000	1.5338660470
2.2600000000	1.2296497886
2.2650000000	1.0083622570
2.2700000000	0.8881875965
2.2750000000	0.9185073859
2.2800000000	1.0931801347
2.2850000000	1.3155916001
2.2900000000	1.4784062923
2.2950000000	1.5505978996
2.3000000000	1.5589036042
2.3050000000	1.5340690050
2.3100000000	1.5013352013
2.3150000000	1.4723306708
2.3200000000	1.4516534120
2.3250000000	1.4418342262
2.3300000000	1.4449251675
2.3350000000	1.4626269971
2.3400000000	1.4963915001
2.3450000000	1.5476863753
2.3500000000	1.6180653386
2.3550000000	1.7098556558
2.3600000000	1.8215528725
2.3650000000	1.9538504112
2.3700000000	2.1063801371
2.3750000000	2.2807976097
2.3800000000	2.4833994137
2.3850000000	2.7216567196
2.3900000000	2.9972207088
2.3950000000	3.2978167434
2.4000000000	3.5918929828
2.4050000000	3.8452878636
2.4100000000	3.9856732780
2.4150000000	3.9989626347
2.4200000000	3.9195063661
2.4250000000	3.8058799221
2.4300000000	3.7100674137
2.4350000000	3.6634438682
2.4400000000	3.6785248713
2.4450000000	3.7573240237
2.4500000000	3.9000823138
2.4550000000	4.1099729393
2.4600000000	4.4004633187
2.4650000000	4.7853599905
2.4700000000	5.2800433601
2.4750000000	5.8941249196
2.4800000000	6.6227667962
2.4850000000	7.4348822207
2.4900000000	8.2593464649
2.4950000000	8.9781241096
2.5000000000	9.4435058633
2.5050000000	9.5033754766
2.5100000000	9.0969843625
2.5150000000	8.3352601413
2.5200000000	7.3954586476
2.5250000000	6.4333075959
2.5300000000	5.5437350476
2.5350000000	4.7666279830
2.5400000000	4.1078608789
2.5450000000	3.5576609713
2.5500000000	3.1018660247
2.5550000000	2.7277511012
2.5600000000	2.4149329966
2.5650000000	2.1808365745
2.5700000000	2.0126447829
2.5750000000	1.9043592204
2.5800000000	1.8439563957
2.5850000000	1.8149913139
2.5900000000	1.8020298971
2.5950000000	1.7954613857
2.6000000000	1.7921871851
2.6050000000	1.8065494665
2.6100000000	1.8292681711
2.6150000000	1.8638116516
2.6200000000	1.9120225860
2.6250000000	1.9740140184
2.6300000000	2.0480365634
2.6350000000	2.1303778173
2.6400000000	2.2153651204
2.6450000000	2.2958052084
2.6500000000	2.3640799643
2.6550000000	2.4139432989
2.6600000000	2.4424935773
2.6650000000	2.4514345319
2.6700000000	2.4467142427
2.6750000000	2.4370273211
2.6800000000	2.4307986715
2.6850000000	2.4358990151
2.6900000000	2.4578091403
2.6950000000	2.4998967342
2.7000000000	2.5637760216
2.7050000000	2.6594405521
2.7100000000	2.7825935814
2.7150000000	2.9312419597
2.7200000000	3.1012667864
2.7250000000	3.2856770150
2.7300000000	3.4739188752
2.7350000000	3.6517639195
2.7400000000	3.8022882829
2.7450000000	3.9083073806
2.7500000000	3.9559706892
2.7550000000	3.9382990335
2.7600000000	3.8570741021
2.7650000000	3.7221947807
2.7700000000	3.5488094148
2.7750000000	3.3537012071
2.7800000000	3.1522612671
2.7850000000	2.9568009881
2.7900000000	2.7744584513
2.7950000000	2.6130446776
2.8000000000	2.4741752950
2.8050000000	2.3455655831
2.8100000000	2.2441763001
2.8150000000	2.1660128544
2.8200000000	2.1067358084
2.8250000000	2.0623629372
2.8300000000	2.0295094156
2.8350000000	2.0053674514
2.8400000000	1.9875643509
2.8450000000	1.9740854235
2.8500000000	1.9633129912
2.8550000000	1.9541730949
2.8600000000	1.9463026791
2.8650000000	1.9401030380
2.8700000000	1.9366383343
2.8750000000	1.9373717249
2.8800000000	1.9438418589
2.8850000000	1.9573703600
2.8900000000	1.9788588118
2.8950000000	2.0086658775
2.9000000000	2.0465474140
2.9050000000	2.1032227954
2.9100000000	2.1653827463
2.9150000000	2.2288757395
2.9200000000	2.2884551529
2.9250000000	2.3384846464
2.9300000000	2.3737309389
2.9350000000	2.3902808221
2.9400000000	2.3862984652
2.9450000000	2.3623758073
2.9500000000	2.3213110457
2.9550000000	2.2673951183
2.9600000000	2.2055074092
2.9650000000	2.1402697523
2.9700000000	2.0754830764
2.9750000000	2.0138809013
2.9800000000	1.9571460106
2.9850000000	1.9060923603
2.9900000000	1.8609088946
2.9950000000	1.8213972838
3.0000000000	1.7871654325
