# energy (eV)    P(omega), $W$ = 300 nm, $h$ = 300 nm, $s$ = 20 nm, $d/W = 5$, $E_{\rm e}$ = 200 keV
0.2000000000	0.0640793484
0.2050000000	0.0649998634
0.2100000000	0.0658651290
0.2150000000	0.0666768727
0.2200000000	0.0674365841
0.2250000000	0.0681454945
0.2300000000	0.0688045084
0.2350000000	0.0694141910
0.2400000000	0.0699747039
0.2450000000	0.0704856664
0.2500000000	0.0709462338
0.2550000000	0.0713547822
0.2600000000	0.0717089390
0.2650000000	0.0720053966
0.2700000000	0.0722396212
0.2750000000	0.0724056774
0.2800000000	0.0724958718
0.2850000000	0.0725003677
0.2900000000	0.0724065270
0.2950000000	0.0721984140
0.3000000000	0.0718555075
0.3050000000	0.0713518824
0.3100000000	0.0706542559
0.3150000000	0.0744607949
0.3200000000	0.0789822421
0.3250000000	0.0846978764
0.3300000000	0.0923463616
0.3350000000	0.1018698757
0.3400000000	0.1143423656
0.3450000000	0.1294836622
0.3500000000	0.1492993941
0.3550000000	0.1755323741
0.3600000000	0.2098102875
0.3650000000	0.2576198874
0.3700000000	0.3207221043
0.3750000000	0.4085664778
0.3800000000	0.5357057001
0.3850000000	0.7339344316
0.3900000000	1.0473295877
0.3950000000	1.5800591398
0.4000000000	2.5963131817
0.4050000000	4.8762505593
0.4100000000	11.1018099889
0.4150000000	35.6581103413
0.4200000000	22.6973054930
0.4250000000	-42.8453966420
0.4300000000	11.9396192192
0.4350000000	7.4498213833
0.4400000000	4.5609751744
0.4450000000	3.0048540730
0.4500000000	2.1084471354
0.4550000000	1.5564711209
0.4600000000	1.1967673885
0.4650000000	0.9515238770
0.4700000000	0.7781109255
0.4750000000	0.6526544571
0.4800000000	0.5596191830
0.4850000000	0.4896118510
0.4900000000	0.4361857167
0.4950000000	0.3950111766
0.5000000000	0.3631296886
0.5050000000	0.3383680033
0.5100000000	0.3193295711
0.5150000000	0.3049867821
0.5200000000	0.2942591596
0.5250000000	0.2866654690
0.5300000000	0.2816849074
0.5350000000	0.2789376475
0.5400000000	0.2781441342
0.5450000000	0.2790709782
0.5500000000	0.2816486584
0.5550000000	0.2857469860
0.5600000000	0.2913025289
0.5650000000	0.2982884975
0.5700000000	0.3066822200
0.5750000000	0.3165437577
0.5800000000	0.3279707427
0.5850000000	0.3410273254
0.5900000000	0.3558355627
0.5950000000	0.3725468189
0.6000000000	0.3913536633
0.6050000000	0.4125321340
0.6100000000	0.4363481369
0.6150000000	0.4631625520
0.6200000000	0.4934570727
0.6250000000	0.5276929018
0.6300000000	0.5665517143
0.6350000000	0.6108831835
0.6400000000	0.6615717546
0.6450000000	0.7198934382
0.6500000000	0.7875265136
0.6550000000	0.8662184020
0.6600000000	0.9586537702
0.6650000000	1.0682800654
0.6700000000	1.1991502626
0.6750000000	1.3574423229
0.6800000000	1.5514742691
0.6850000000	1.7921346623
0.6900000000	2.0963017454
0.6950000000	2.4875733275
0.7000000000	3.0034566344
0.7050000000	3.7012886384
0.7100000000	4.6782501186
0.7150000000	6.1073558266
0.7200000000	8.3107758783
0.7250000000	11.9696624015
0.7300000000	18.6881277289
0.7350000000	33.0692141339
0.7400000000	72.5254743964
0.7450000000	240.7773655867
0.7500000000	746.4810563130
0.7550000000	187.9344830862
0.7600000000	62.2869695382
0.7650000000	29.8674088437
0.7700000000	17.3834318710
0.7750000000	11.3546822463
0.7800000000	7.9971967237
0.7850000000	5.9443621642
0.7900000000	4.5963031995
0.7950000000	3.6662429065
0.8000000000	2.9974282471
0.8050000000	2.4991421570
0.8100000000	2.1190415843
0.8150000000	1.8176114279
0.8200000000	1.5796401525
0.8250000000	1.3879747274
0.8300000000	1.2309182864
0.8350000000	1.1017606229
0.8400000000	0.9934635181
0.8450000000	0.9025684975
0.8500000000	0.8257296666
0.8550000000	0.7594024470
0.8600000000	0.7027800993
0.8650000000	0.6544263866
0.8700000000	0.6116890399
0.8750000000	0.5753538086
0.8800000000	0.5445504230
0.8850000000	0.5169305847
0.8900000000	0.4948334643
0.8950000000	0.4747295035
0.9000000000	0.4588604788
0.9050000000	0.4480526706
0.9100000000	0.4381542957
0.9150000000	0.4322984639
0.9200000000	0.4319507977
0.9250000000	0.4317678061
0.9300000000	0.4257301211
0.9350000000	0.4068260952
0.9400000000	0.3001133244
0.9450000000	-0.1861613250
0.9500000000	-2.7549908940
0.9550000000	-15.7938220832
0.9600000000	3.7304849084
0.9650000000	6.5567342538
0.9700000000	2.9101215177
0.9750000000	1.5284346505
0.9800000000	0.9581215418
0.9850000000	0.6913106388
0.9900000000	0.5375018990
0.9950000000	0.4442047668
1.0000000000	0.3846232025
1.0050000000	0.3468661467
1.0100000000	0.3175622342
1.0150000000	0.2961413399
1.0200000000	0.2817196197
1.0250000000	0.2695831301
1.0300000000	0.2603427622
1.0350000000	0.2533274268
1.0400000000	0.2488464450
1.0450000000	0.2450789807
1.0500000000	0.2425436422
1.0550000000	0.2410952353
1.0600000000	0.2410686975
1.0650000000	0.2415320488
1.0700000000	0.2428615983
1.0750000000	0.2450617566
1.0800000000	0.2483791800
1.0850000000	0.2525966515
1.0900000000	0.2588829786
1.0950000000	0.2663587505
1.1000000000	0.2752863930
1.1050000000	0.2855512979
1.1100000000	0.2974887415
1.1150000000	0.3113632807
1.1200000000	0.3274995271
1.1250000000	0.3462680038
1.1300000000	0.3682286208
1.1350000000	0.3940575609
1.1400000000	0.4245374945
1.1450000000	0.4610401574
1.1500000000	0.5051044594
1.1550000000	0.5589329336
1.1600000000	0.6256324565
1.1650000000	0.7092462647
1.1700000000	0.8172878461
1.1750000000	0.9597846203
1.1800000000	1.1532897295
1.1850000000	1.4249963340
1.1900000000	1.8262304940
1.1950000000	2.4553670771
1.2000000000	3.5216190127
1.2050000000	5.5355174479
1.2100000000	9.9646462851
1.2150000000	21.9380446174
1.2200000000	53.8050640203
1.2250000000	48.3880750473
1.2300000000	19.3589384940
1.2350000000	9.1274563619
1.2400000000	5.2540088542
1.2450000000	3.4788832271
1.2500000000	2.5462818074
1.2550000000	2.0123937978
1.2600000000	1.6924511958
1.2650000000	1.4977114455
1.2700000000	1.3889616671
1.2750000000	1.3409033316
1.2800000000	1.3420965864
1.2850000000	1.3883470660
1.2900000000	1.4809120639
1.2950000000	1.6250657630
1.3000000000	1.8373762155
1.3050000000	2.1394115835
1.3100000000	2.5701830620
1.3150000000	3.1969035072
1.3200000000	4.1399093428
1.3250000000	5.6290039594
1.3300000000	8.1657648227
1.3350000000	12.9147758277
1.3400000000	23.0640590296
1.3450000000	48.2653895058
1.3500000000	102.5326118236
1.3550000000	95.6884708544
1.3600000000	44.1433389625
1.3650000000	21.6924359038
1.3700000000	12.4403371644
1.3750000000	7.9995079262
1.3800000000	5.5780373834
1.3850000000	4.1196110529
1.3900000000	3.1801325433
1.3950000000	2.5395715477
1.4000000000	2.0846995841
1.4050000000	1.7516168879
1.4100000000	1.5020053951
1.4150000000	1.3136565798
1.4200000000	1.1720194067
1.4250000000	1.0771559172
1.4300000000	1.0424208358
1.4350000000	1.0617584919
1.4400000000	0.8177931074
1.4450000000	0.0705392878
1.4500000000	-1.1426337817
1.4550000000	-0.3203724700
1.4600000000	1.3836432253
1.4650000000	0.7490969168
1.4700000000	-0.7073983374
1.4750000000	-3.0959495788
1.4800000000	-1.3778976228
1.4850000000	2.2647005688
1.4900000000	1.8357752116
1.4950000000	1.1882452455
1.5000000000	0.8348826035
1.5050000000	0.6446092608
1.5100000000	0.5361591126
1.5150000000	0.4702973419
1.5200000000	0.4277517418
1.5250000000	0.4013168646
1.5300000000	0.3811236676
1.5350000000	0.3672046535
1.5400000000	0.3580361838
1.5450000000	0.3528007583
1.5500000000	0.3509706071
1.5550000000	0.3525591411
1.5600000000	0.3585064777
1.5650000000	0.3683299965
1.5700000000	0.3842360280
1.5750000000	0.4089158245
1.5800000000	0.4474225934
1.5850000000	0.5095926867
1.5900000000	0.6161497945
1.5950000000	0.8129538556
1.6000000000	1.1968745429
1.6050000000	1.8316725868
1.6100000000	2.1256635197
1.6150000000	1.5745332704
1.6200000000	1.0575121737
1.6250000000	0.7845971461
1.6300000000	0.6475667576
1.6350000000	0.5770191006
1.6400000000	0.5412614865
1.6450000000	0.5255638402
1.6500000000	0.5225498170
1.6550000000	0.5287639452
1.6600000000	0.5421439603
1.6650000000	0.5617481343
1.6700000000	0.5872184196
1.6750000000	0.6185569200
1.6800000000	0.6560437729
1.6850000000	0.7001135487
1.6900000000	0.7511504668
1.6950000000	0.8084294230
1.7000000000	0.8709889298
1.7050000000	0.9351013914
1.7100000000	1.0082585142
1.7150000000	1.1900704540
1.7200000000	1.5090589379
1.7250000000	1.8013275417
1.7300000000	2.1149889731
1.7350000000	2.4596376515
1.7400000000	2.7978181396
1.7450000000	3.2321906894
1.7500000000	3.8890716303
1.7550000000	4.8667721203
1.7600000000	6.3295939208
1.7650000000	8.5845465177
1.7700000000	12.2168793928
1.7750000000	18.3364155627
1.7800000000	28.7639836494
1.7850000000	44.1422083417
1.7900000000	54.8569257251
1.7950000000	46.7117339391
1.8000000000	31.0879648170
1.8050000000	19.6327626911
1.8100000000	12.9443504532
1.8150000000	9.0240091730
1.8200000000	6.6113779399
1.8250000000	5.0472614334
1.8300000000	3.9852808090
1.8350000000	3.2356909750
1.8400000000	2.6895798498
1.8450000000	2.2808792123
1.8500000000	1.9679515318
1.8550000000	1.7247431688
1.8600000000	1.5330793730
1.8650000000	1.3806082642
1.8700000000	1.2585449167
1.8750000000	1.1604398275
1.8800000000	1.0811771375
1.8850000000	1.0162363764
1.8900000000	0.9604086501
1.8950000000	0.9059210863
1.9000000000	0.8393514984
1.9050000000	0.7133306997
1.9100000000	0.5398935578
1.9150000000	0.4480360425
1.9200000000	1.0956239682
1.9250000000	2.8854560791
1.9300000000	4.3049141918
1.9350000000	4.2386965521
1.9400000000	3.3338489663
1.9450000000	2.4565736623
1.9500000000	1.8406259259
1.9550000000	1.4370378371
1.9600000000	1.1703342211
1.9650000000	0.9918251172
1.9700000000	0.8629556676
1.9750000000	0.7684894826
1.9800000000	0.6963684094
1.9850000000	0.6378439813
1.9900000000	0.5862219284
1.9950000000	0.5356598283
2.0000000000	0.4853059213
2.0050000000	0.4531367190
2.0100000000	0.4715685086
2.0150000000	0.5223431478
2.0200000000	0.5536514190
2.0250000000	0.5619700866
2.0300000000	0.5638456021
2.0350000000	0.5672556752
2.0400000000	0.5751646430
2.0450000000	0.5883283107
2.0500000000	0.6072370354
2.0550000000	0.6323361170
2.0600000000	0.6636259043
2.0650000000	0.6992111215
2.0700000000	0.7343915538
2.0750000000	0.7656447961
2.0800000000	0.7960788799
2.0850000000	0.8321214659
2.0900000000	0.8780811262
2.0950000000	0.9357722261
2.1000000000	1.0071464442
2.1050000000	1.0915574281
2.1100000000	1.1949376700
2.1150000000	1.3216239123
2.1200000000	1.4776980226
2.1250000000	1.6716907922
2.1300000000	1.9156272602
2.1350000000	2.2266755041
2.1400000000	2.6296256504
2.1450000000	3.1607210562
2.1500000000	3.8727696041
2.1550000000	4.8405088237
2.1600000000	6.1595910190
2.1650000000	7.9110217997
2.1700000000	10.0623965356
2.1750000000	12.2013152463
2.1800000000	13.5229073531
2.1850000000	13.5916045772
2.1900000000	12.9907590411
2.1950000000	12.5232163317
2.2000000000	12.3158976177
2.2050000000	11.7398830009
2.2100000000	10.5169163844
2.2150000000	9.0132574190
2.2200000000	7.6633948302
2.2250000000	6.5478030268
2.2300000000	5.5655283503
2.2350000000	4.6774653499
2.2400000000	3.9146844621
2.2450000000	3.3043680473
2.2500000000	2.8365063277
2.2550000000	2.4850393189
2.2600000000	2.2218755610
2.2650000000	2.0188661268
2.2700000000	1.8455828672
2.2750000000	1.6720484426
2.2800000000	1.4852265416
2.2850000000	1.3074608658
2.2900000000	1.1846245317
2.2950000000	1.1426821969
2.3000000000	1.1577009930
2.3050000000	1.1806209011
2.3100000000	1.1825551644
2.3150000000	1.1637387200
2.3200000000	1.1366761246
2.3250000000	1.1142830724
2.3300000000	1.1031682489
2.3350000000	1.1044671774
2.3400000000	1.1144789197
2.3450000000	1.1248270824
2.3500000000	1.1249640957
2.3550000000	1.1081606997
2.3600000000	1.0763213218
2.3650000000	1.0377678202
2.3700000000	1.0010780971
2.3750000000	0.9713752042
2.3800000000	0.9503230953
2.3850000000	0.9374505853
2.3900000000	0.9316838790
2.3950000000	0.9317792831
2.4000000000	0.9380756573
2.4050000000	0.9526464413
2.4100000000	0.9761867227
2.4150000000	1.0096586452
2.4200000000	1.0536405130
2.4250000000	1.1091442300
2.4300000000	1.1776454946
2.4350000000	1.2611238847
2.4400000000	1.3621338713
2.4450000000	1.4839370900
2.4500000000	1.6306486011
2.4550000000	1.8074406705
2.4600000000	2.0206680923
2.4650000000	2.2779553723
2.4700000000	2.5880470223
2.4750000000	2.9597023631
2.4800000000	3.4019678206
2.4850000000	3.9184246515
2.4900000000	4.5040251364
2.4950000000	5.1378130717
2.5000000000	5.7754691659
2.5050000000	6.3719685801
2.5100000000	6.7749448328
2.5150000000	6.8965179520
2.5200000000	6.7157463615
2.5250000000	6.2884322336
2.5300000000	5.7117898714
2.5350000000	5.0795779412
2.5400000000	4.4580344504
2.5450000000	3.8845839339
2.5500000000	3.3758681018
2.5550000000	2.9356751743
2.5600000000	2.5579527726
2.5650000000	2.2403837910
2.5700000000	1.9754916471
2.5750000000	1.7585959531
2.5800000000	1.5862006296
2.5850000000	1.4545052114
2.5900000000	1.3572589733
2.5950000000	1.2856739766
2.6000000000	1.2306000908
2.6050000000	1.1914599789
2.6100000000	1.1575696477
2.6150000000	1.1283918944
2.6200000000	1.1045031894
2.6250000000	1.0865421677
2.6300000000	1.0749352797
2.6350000000	1.0699001218
2.6400000000	1.0715630607
2.6450000000	1.0800417000
2.6500000000	1.0955662112
2.6550000000	1.1182010628
2.6600000000	1.1482936283
2.6650000000	1.1861948137
2.6700000000	1.2323356854
2.6750000000	1.2872386338
2.6800000000	1.3514826419
2.6850000000	1.4256599951
2.6900000000	1.5102558615
2.6950000000	1.6055516533
2.7000000000	1.7114509313
2.7050000000	1.8399981595
2.7100000000	1.9802901639
2.7150000000	2.1295952764
2.7200000000	2.2839403924
2.7250000000	2.4383341959
2.7300000000	2.5871445641
2.7350000000	2.7244231344
2.7400000000	2.8439834482
2.7450000000	2.9403339175
2.7500000000	3.0049561749
2.7550000000	3.0326932660
2.7600000000	3.0196321625
2.7650000000	2.9653177053
2.7700000000	2.8733900359
2.7750000000	2.7511425017
2.7800000000	2.6080815094
2.7850000000	2.4542920688
2.7900000000	2.2988228777
2.7950000000	2.1489301616
2.8000000000	2.0097447776
2.8050000000	1.8689217772
2.8100000000	1.7483956769
2.8150000000	1.6478431880
2.8200000000	1.5656456918
2.8250000000	1.4996698489
2.8300000000	1.4477666792
2.8350000000	1.4080970592
2.8400000000	1.3787249281
2.8450000000	1.3597176972
2.8500000000	1.3496683528
2.8550000000	1.3480407862
2.8600000000	1.3544346773
2.8650000000	1.3684893991
2.8700000000	1.3898015550
2.8750000000	1.4178593612
2.8800000000	1.4519918703
2.8850000000	1.4913265095
2.8900000000	1.5348143967
2.8950000000	1.5812692452
2.9000000000	1.6294435288
2.9050000000	1.6873347317
2.9100000000	1.7428711756
2.9150000000	1.7943059011
2.9200000000	1.8398054337
2.9250000000	1.8772894124
2.9300000000	1.9048422471
2.9350000000	1.9194850095
2.9400000000	1.9199319249
2.9450000000	1.9056352615
2.9500000000	1.8774199171
2.9550000000	1.8374303890
2.9600000000	1.7887620505
2.9650000000	1.7349222236
2.9700000000	1.6793024759
2.9750000000	1.6248012624
2.9800000000	1.5736394860
2.9850000000	1.5273324118
2.9900000000	1.4867914266
2.9950000000	1.4524443645
3.0000000000	1.4243812523
