# energy (eV)    P(omega), $W$ = 300 nm, $h$ = 300 nm, $s$ = 20 nm, $d/W = 5$, $E_{\rm e}$ = 200 keV
0.2000000000	0.0519445519
0.2050000000	0.0527355632
0.2100000000	0.0534706422
0.2150000000	0.0541516567
0.2200000000	0.0547802883
0.2250000000	0.0553579250
0.2300000000	0.0558856756
0.2350000000	0.0563643119
0.2400000000	0.0567942269
0.2450000000	0.0571753658
0.2500000000	0.0575071721
0.2550000000	0.0577884485
0.2600000000	0.0580173322
0.2650000000	0.0581910538
0.2700000000	0.0583058500
0.2750000000	0.0583566805
0.2800000000	0.0583369729
0.2850000000	0.0582382444
0.2900000000	0.0580496449
0.2950000000	0.0577573499
0.3000000000	0.0573437151
0.3050000000	0.0567862545
0.3100000000	0.0560561677
0.3150000000	0.0593575097
0.3200000000	0.0632780843
0.3250000000	0.0682402763
0.3300000000	0.0748919062
0.3350000000	0.0831690262
0.3400000000	0.0940076561
0.3450000000	0.1071421773
0.3500000000	0.1243171915
0.3550000000	0.1470310257
0.3600000000	0.1766654113
0.3650000000	0.2179575913
0.3700000000	0.2723491833
0.3750000000	0.3479495809
0.3800000000	0.4572063469
0.3850000000	0.6273380158
0.3900000000	0.8958944079
0.3950000000	1.3517140697
0.4000000000	2.2200474857
0.4050000000	4.1654548554
0.4100000000	9.4696810511
0.4150000000	30.3610370587
0.4200000000	19.3572471745
0.4250000000	-36.3345178080
0.4300000000	10.0838781842
0.4350000000	6.2756398683
0.4400000000	3.8305915866
0.4450000000	2.5154409563
0.4500000000	1.7588679090
0.4550000000	1.2935776392
0.4600000000	0.9907184063
0.4650000000	0.7844503060
0.4700000000	0.6387317806
0.4750000000	0.5333807069
0.4800000000	0.4552873683
0.4850000000	0.3965238466
0.4900000000	0.3516562231
0.4950000000	0.3170382857
0.5000000000	0.2901772926
0.5050000000	0.2692462634
0.5100000000	0.2530667639
0.5150000000	0.2407703507
0.5200000000	0.2314550448
0.5250000000	0.2247094694
0.5300000000	0.2200962692
0.5350000000	0.2172941984
0.5400000000	0.2160660989
0.5450000000	0.2162139491
0.5500000000	0.2176711524
0.5550000000	0.2203248379
0.5600000000	0.2241148520
0.5650000000	0.2290124425
0.5700000000	0.2349898792
0.5750000000	0.2420880045
0.5800000000	0.2503729135
0.5850000000	0.2598868598
0.5900000000	0.2707146480
0.5950000000	0.2829648696
0.6000000000	0.2967753396
0.6050000000	0.3123494056
0.6100000000	0.3298784912
0.6150000000	0.3496262538
0.6200000000	0.3719446769
0.6250000000	0.3971708489
0.6300000000	0.4258040485
0.6350000000	0.4584663572
0.6400000000	0.4958042265
0.6450000000	0.5387523553
0.6500000000	0.5885387229
0.6550000000	0.6464408946
0.6600000000	0.7144242264
0.6650000000	0.7950077850
0.6700000000	0.8911525754
0.6750000000	1.0073762738
0.6800000000	1.1497512090
0.6850000000	1.3262290077
0.6900000000	1.5491246317
0.6950000000	1.8356576579
0.7000000000	2.2131766713
0.7050000000	2.7234796106
0.7100000000	3.4373745380
0.7150000000	4.4808902816
0.7200000000	6.0885881048
0.7250000000	8.7562023821
0.7300000000	13.6506731682
0.7350000000	24.1190963319
0.7400000000	52.8167863117
0.7450000000	175.0795198462
0.7500000000	541.9657265236
0.7550000000	136.2345417240
0.7600000000	45.0816375618
0.7650000000	21.5832445034
0.7700000000	12.5419554189
0.7750000000	8.1791905167
0.7800000000	5.7513948615
0.7850000000	4.2681076713
0.7900000000	3.2947845659
0.7950000000	2.6237610646
0.8000000000	2.1415664048
0.8050000000	1.7825723426
0.8100000000	1.5089193158
0.8150000000	1.2920845223
0.8200000000	1.1210085199
0.8250000000	0.9833047518
0.8300000000	0.8705431132
0.8350000000	0.7778552834
0.8400000000	0.7001786000
0.8450000000	0.6350127403
0.8500000000	0.5799356681
0.8550000000	0.5324205534
0.8600000000	0.4918603820
0.8650000000	0.4572103230
0.8700000000	0.4266027872
0.8750000000	0.4005545843
0.8800000000	0.3784349517
0.8850000000	0.3586053974
0.8900000000	0.3426598607
0.8950000000	0.3281553849
0.9000000000	0.3166168071
0.9050000000	0.3085895198
0.9100000000	0.3012278240
0.9150000000	0.2966614499
0.9200000000	0.2958706333
0.9250000000	0.2952297408
0.9300000000	0.2906990029
0.9350000000	0.2776431200
0.9400000000	0.2059062616
0.9450000000	-0.1192510007
0.9500000000	-1.8333474774
0.9550000000	-10.5207403830
0.9600000000	2.4813447232
0.9650000000	4.3552099179
0.9700000000	1.9307819528
0.9750000000	1.0134863588
0.9800000000	0.6352673977
0.9850000000	0.4584206852
0.9900000000	0.3565739544
0.9950000000	0.2948349812
1.0000000000	0.2554196202
1.0050000000	0.2304195991
1.0100000000	0.2110573865
1.0150000000	0.1969179366
1.0200000000	0.1873882151
1.0250000000	0.1794073103
1.0300000000	0.1733547485
1.0350000000	0.1687888553
1.0400000000	0.1658954224
1.0450000000	0.1635122008
1.0500000000	0.1619663297
1.0550000000	0.1611636258
1.0600000000	0.1613120849
1.0650000000	0.1618320208
1.0700000000	0.1629613683
1.0750000000	0.1647050846
1.0800000000	0.1672202471
1.0850000000	0.1704098138
1.0900000000	0.1750845244
1.0950000000	0.1806289790
1.1000000000	0.1872233669
1.1050000000	0.1948364585
1.1100000000	0.2037017466
1.1150000000	0.2140206324
1.1200000000	0.2260243967
1.1250000000	0.2400476120
1.1300000000	0.2565006051
1.1350000000	0.2759070539
1.1400000000	0.2988549440
1.1450000000	0.3264525553
1.1500000000	0.3598763556
1.1550000000	0.4008402138
1.1600000000	0.4517622714
1.1650000000	0.5157718186
1.1700000000	0.5987696492
1.1750000000	0.7085549455
1.1800000000	0.8580330298
1.1850000000	1.0684253663
1.1900000000	1.3796807458
1.1950000000	1.8686024480
1.2000000000	2.6982103873
1.2050000000	4.2662555190
1.2100000000	7.7156404938
1.2150000000	17.0367918102
1.2200000000	41.8176167218
1.2250000000	37.5346799297
1.2300000000	14.9382329554
1.2350000000	6.9793974038
1.2400000000	3.9642949698
1.2450000000	2.5783636167
1.2500000000	1.8453239796
1.2550000000	1.4200618423
1.2600000000	1.1587446583
1.2650000000	0.9921248751
1.2700000000	0.8889314761
1.2750000000	0.8288387781
1.2800000000	0.8018517111
1.2850000000	0.8031851987
1.2900000000	0.8316123268
1.2950000000	0.8883853951
1.3000000000	0.9811296584
1.3050000000	1.1194936040
1.3100000000	1.3220759551
1.3150000000	1.6212124023
1.3200000000	2.0752748618
1.3250000000	2.7953449196
1.3300000000	4.0254948461
1.3350000000	6.3308319500
1.3400000000	11.2583996930
1.3450000000	23.4883435830
1.3500000000	49.7949641900
1.3550000000	46.4095855418
1.3600000000	21.3937947973
1.3650000000	10.5104816338
1.3700000000	6.0281624142
1.3750000000	3.8774888294
1.3800000000	2.7048991233
1.3850000000	1.9984625787
1.3900000000	1.5429528620
1.3950000000	1.2320112887
1.4000000000	1.0105130092
1.4050000000	0.8474161450
1.4100000000	0.7237527685
1.4150000000	0.6279060175
1.4200000000	0.5512312949
1.4250000000	0.4898186643
1.4300000000	0.4401369155
1.4350000000	0.3896217994
1.4400000000	0.2296920366
1.4450000000	-0.1844766325
1.4500000000	-0.9421471254
1.4550000000	-0.3421707028
1.4600000000	0.8596300314
1.4650000000	0.5231075772
1.4700000000	-0.2232239236
1.4750000000	-1.3641395429
1.4800000000	-0.5945999249
1.4850000000	1.0708534284
1.4900000000	0.8663307245
1.4950000000	0.5644742249
1.5000000000	0.3992500272
1.5050000000	0.3094948322
1.5100000000	0.2580390089
1.5150000000	0.2263676647
1.5200000000	0.2055351648
1.5250000000	0.1922752997
1.5300000000	0.1817407888
1.5350000000	0.1740307353
1.5400000000	0.1683844423
1.5450000000	0.1643372483
1.5500000000	0.1615844549
1.5550000000	0.1599720457
1.5600000000	0.1597592297
1.5650000000	0.1603516166
1.5700000000	0.1622910959
1.5750000000	0.1659468832
1.5800000000	0.1720679359
1.5850000000	0.1821292990
1.5900000000	0.1992418612
1.5950000000	0.2302416972
1.6000000000	0.2893744783
1.6050000000	0.3851041785
1.6100000000	0.4275684122
1.6150000000	0.3453154809
1.6200000000	0.2709420716
1.6250000000	0.2340558991
1.6300000000	0.2179291540
1.6350000000	0.2121566538
1.6400000000	0.2120789706
1.6450000000	0.2155885057
1.6500000000	0.2216900824
1.6550000000	0.2299678186
1.6600000000	0.2402604552
1.6650000000	0.2525864867
1.6700000000	0.2670857771
1.6750000000	0.2840018264
1.6800000000	0.3036803466
1.6850000000	0.3265815732
1.6900000000	0.3532960136
1.6950000000	0.3843848240
1.7000000000	0.4210322604
1.7050000000	0.4653974704
1.7100000000	0.5200406930
1.7150000000	0.5976251798
1.7200000000	0.7051363610
1.7250000000	0.8354599863
1.7300000000	0.9991306936
1.7350000000	1.1740318399
1.7400000000	1.3284431617
1.7450000000	1.5204573635
1.7500000000	1.8183556602
1.7550000000	2.2680498678
1.7600000000	2.9442573121
1.7650000000	3.9881032866
1.7700000000	5.6695675828
1.7750000000	8.5007311821
1.7800000000	13.3202605737
1.7850000000	20.4165283117
1.7900000000	25.3369250838
1.7950000000	21.5406590003
1.8000000000	14.3096097865
1.8050000000	9.0175516379
1.8100000000	5.9307429505
1.8150000000	4.1226113887
1.8200000000	3.0102100636
1.8250000000	2.2889661974
1.8300000000	1.7989314864
1.8350000000	1.4525153408
1.8400000000	1.1994554472
1.8450000000	1.0091991709
1.8500000000	0.8624649588
1.8550000000	0.7471561248
1.8600000000	0.6547186181
1.8650000000	0.5792412539
1.8700000000	0.5163600747
1.8750000000	0.4626535665
1.8800000000	0.4151132054
1.8850000000	0.3706878588
1.8900000000	0.3255000399
1.8950000000	0.2736538448
1.9000000000	0.2052268137
1.9050000000	0.0887594303
1.9100000000	-0.0803592878
1.9150000000	-0.2624968810
1.9200000000	-0.1810437188
1.9250000000	0.3511029674
1.9300000000	0.7785437554
1.9350000000	0.8132324571
1.9400000000	0.6703641298
1.9450000000	0.5260093350
1.9500000000	0.4222144896
1.9550000000	0.3525754504
1.9600000000	0.3055909002
1.9650000000	0.2744846396
1.9700000000	0.2509287291
1.9750000000	0.2336406091
1.9800000000	0.2206191214
1.9850000000	0.2104506089
1.9900000000	0.2021276989
1.9950000000	0.1948343690
2.0000000000	0.1883738113
2.0050000000	0.1850818136
2.0100000000	0.1881015882
2.0150000000	0.1953217824
2.0200000000	0.2010050054
2.0250000000	0.2048796057
2.0300000000	0.2090162941
2.0350000000	0.2143083996
2.0400000000	0.2214375796
2.0450000000	0.2308475442
2.0500000000	0.2430716908
2.0550000000	0.2586509710
2.0600000000	0.2776111517
2.0650000000	0.2981509927
2.0700000000	0.3158019310
2.0750000000	0.3270149079
2.0800000000	0.3342128200
2.0850000000	0.3428070767
2.0900000000	0.3561476740
2.0950000000	0.3752585368
2.1000000000	0.4006904314
2.1050000000	0.4318616300
2.1100000000	0.4709469420
2.1150000000	0.5194561459
2.1200000000	0.5796299642
2.1250000000	0.6546894617
2.1300000000	0.7492273922
2.1350000000	0.8698311378
2.1400000000	1.0260225179
2.1450000000	1.2317194151
2.1500000000	1.5071822940
2.1550000000	1.8810475791
2.1600000000	2.3899286302
2.1650000000	3.0647881819
2.1700000000	3.8938977831
2.1750000000	4.7213568403
2.1800000000	5.2445325839
2.1850000000	5.3034289974
2.1900000000	5.1233263048
2.1950000000	5.0037563288
2.2000000000	4.9693217038
2.2050000000	4.7303297776
2.2100000000	4.1653305924
2.2150000000	3.4476572443
2.2200000000	2.7910086798
2.2250000000	2.2650719454
2.2300000000	1.8511157427
2.2350000000	1.5223224429
2.2400000000	1.2614613044
2.2450000000	1.0578541530
2.2500000000	0.8990648258
2.2550000000	0.7737819329
2.2600000000	0.6725636727
2.2650000000	0.5875542648
2.2700000000	0.5121530391
2.2750000000	0.4417271809
2.2800000000	0.3766043332
2.2850000000	0.3249601340
2.2900000000	0.2989048765
2.2950000000	0.3026126685
2.3000000000	0.3241372509
2.3050000000	0.3451728179
2.3100000000	0.3542524691
2.3150000000	0.3519583389
2.3200000000	0.3433109705
2.3250000000	0.3334356712
2.3300000000	0.3251021413
2.3350000000	0.3192703250
2.3400000000	0.3157413770
2.3450000000	0.3134877635
2.3500000000	0.3111376320
2.3550000000	0.3078137101
2.3600000000	0.3037593027
2.3650000000	0.3000384672
2.3700000000	0.2977060763
2.3750000000	0.2972776302
2.3800000000	0.2986656995
2.3850000000	0.3013414290
2.3900000000	0.3047156579
2.3950000000	0.3082844989
2.4000000000	0.3123487044
2.4050000000	0.3180287033
2.4100000000	0.3258940614
2.4150000000	0.3366669965
2.4200000000	0.3508387230
2.4250000000	0.3688561333
2.4300000000	0.3912205004
2.4350000000	0.4185601515
2.4400000000	0.4516835177
2.4450000000	0.4916335865
2.4500000000	0.5397377700
2.4550000000	0.5976754227
2.4600000000	0.6675202737
2.4650000000	0.7517814776
2.4700000000	0.8533655061
2.4750000000	0.9752309040
2.4800000000	1.1205777991
2.4850000000	1.2908451812
2.4900000000	1.4846237885
2.4950000000	1.6949047058
2.5000000000	1.9061170320
2.5050000000	2.1013279072
2.5100000000	2.2274394776
2.5150000000	2.2550493994
2.5200000000	2.1803558023
2.5250000000	2.0267287527
2.5300000000	1.8297229082
2.5350000000	1.6205248125
2.5400000000	1.4188878832
2.5450000000	1.2345751257
2.5500000000	1.0712347207
2.5550000000	0.9293301935
2.5600000000	0.8068027183
2.5650000000	0.7033836902
2.5700000000	0.6170095793
2.5750000000	0.5464589414
2.5800000000	0.4907778430
2.5850000000	0.4487845201
2.5900000000	0.4183455950
2.5950000000	0.3963726436
2.6000000000	0.3796353950
2.6050000000	0.3676981462
2.6100000000	0.3569796507
2.6150000000	0.3473480918
2.6200000000	0.3390441498
2.6250000000	0.3323044530
2.6300000000	0.3272718821
2.6350000000	0.3240083858
2.6400000000	0.3225464646
2.6450000000	0.3229228338
2.6500000000	0.3252163300
2.6550000000	0.3294402204
2.6600000000	0.3357053216
2.6650000000	0.3441095291
2.6700000000	0.3547681901
2.6750000000	0.3678181603
2.6800000000	0.3834117566
2.6850000000	0.4017153329
2.6900000000	0.4228896434
2.6950000000	0.4470803918
2.7000000000	0.4743885073
2.7050000000	0.5081022378
2.7100000000	0.5458885197
2.7150000000	0.5874879162
2.7200000000	0.6323397219
2.7250000000	0.6795099054
2.7300000000	0.7276248094
2.7350000000	0.7748129902
2.7400000000	0.8186748577
2.7450000000	0.8566772783
2.7500000000	0.8851430400
2.7550000000	0.9015463447
2.7600000000	0.9039901934
2.7650000000	0.8919866291
2.7700000000	0.8666289134
2.7750000000	0.8303700366
2.7800000000	0.7864632784
2.7850000000	0.7383695725
2.7900000000	0.6891807318
2.7950000000	0.6413721239
2.8000000000	0.5966897641
2.8050000000	0.5512545677
2.8100000000	0.5120331023
2.8150000000	0.4789358997
2.8200000000	0.4514427204
2.8250000000	0.4288621324
2.8300000000	0.4105005262
2.8350000000	0.3957667628
2.8400000000	0.3840324225
2.8450000000	0.3753398339
2.8500000000	0.3692284587
2.8550000000	0.3655266999
2.8600000000	0.3641131612
2.8650000000	0.3648919356
2.8700000000	0.3677776447
2.8750000000	0.3726829192
2.8800000000	0.3795066811
2.8850000000	0.3881232522
2.8900000000	0.3983778955
2.8950000000	0.4100816246
2.9000000000	0.4230102818
2.9050000000	0.4399934892
2.9100000000	0.4574297646
2.9150000000	0.4746466962
2.9200000000	0.4908357021
2.9250000000	0.5050592529
2.9300000000	0.5164361997
2.9350000000	0.5237934524
2.9400000000	0.5265434097
2.9450000000	0.5243851793
2.9500000000	0.5174958873
2.9550000000	0.5065040466
2.9600000000	0.4923669383
2.9650000000	0.4761951042
2.9700000000	0.4590783069
2.9750000000	0.4419620903
2.9800000000	0.4255797720
2.9850000000	0.4104429187
2.9900000000	0.3968663402
2.9950000000	0.3850103942
3.0000000000	0.3749267831
