# energy (eV)    P(omega), $W$ = 300 nm, $h$ = 300 nm, $s$ = 20 nm, $d/W = 5$, $E_{\rm e}$ = 200 keV
0.2000000000	0.0878427262
0.2050000000	0.0891045227
0.2100000000	0.0902906261
0.2150000000	0.0914034023
0.2200000000	0.0924448912
0.2250000000	0.0934167787
0.2300000000	0.0943203031
0.2350000000	0.0951562374
0.2400000000	0.0959248018
0.2450000000	0.0966254734
0.2500000000	0.0972570929
0.2550000000	0.0978174338
0.2600000000	0.0983032426
0.2650000000	0.0987099854
0.2700000000	0.0990314466
0.2750000000	0.0992594903
0.2800000000	0.0993835707
0.2850000000	0.0993902041
0.2900000000	0.0992620676
0.2950000000	0.0989773175
0.3000000000	0.0985078258
0.3050000000	0.0978180568
0.3100000000	0.0968623895
0.3150000000	0.1020799750
0.3200000000	0.1082774782
0.3250000000	0.1161118111
0.3300000000	0.1265954204
0.3350000000	0.1396491076
0.3400000000	0.1567449005
0.3450000000	0.1774988692
0.3500000000	0.2046600813
0.3550000000	0.2406174397
0.3600000000	0.2876021212
0.3650000000	0.3531348328
0.3700000000	0.4396296184
0.3750000000	0.5600391953
0.3800000000	0.7343114782
0.3850000000	1.0060284809
0.3900000000	1.4356086878
0.3950000000	2.1658400851
0.4000000000	3.5588608120
0.4050000000	6.6840748828
0.4100000000	15.2177660408
0.4150000000	48.8784675022
0.4200000000	31.1123179102
0.4250000000	-58.7310936983
0.4300000000	16.3666072292
0.4350000000	10.2121430572
0.4400000000	6.2521869761
0.4450000000	4.1190881356
0.4500000000	2.8903076166
0.4550000000	2.1336651660
0.4600000000	1.6405858872
0.4650000000	1.3044069309
0.4700000000	1.0666925012
0.4750000000	0.8947165108
0.4800000000	0.7671834187
0.4850000000	0.6712171066
0.4900000000	0.5979804455
0.4950000000	0.5415384506
0.5000000000	0.4978355788
0.5050000000	0.4638927458
0.5100000000	0.4377955801
0.5150000000	0.4181354530
0.5200000000	0.4034312244
0.5250000000	0.3930232449
0.5300000000	0.3861975946
0.5350000000	0.3824336164
0.5400000000	0.3813481047
0.5450000000	0.3826211361
0.5500000000	0.3861574431
0.5550000000	0.3917785751
0.5600000000	0.3993976081
0.5650000000	0.4089778436
0.5700000000	0.4204882349
0.5750000000	0.4340111552
0.5800000000	0.4496804986
0.5850000000	0.4675842500
0.5900000000	0.4878897929
0.5950000000	0.5108046927
0.6000000000	0.5365930165
0.6050000000	0.5656332732
0.6100000000	0.5982900894
0.6150000000	0.6350583162
0.6200000000	0.6765984677
0.6250000000	0.7235429568
0.6300000000	0.7768265178
0.6350000000	0.8376142403
0.6400000000	0.9071189050
0.6450000000	0.9870902094
0.6500000000	1.0798294551
0.6550000000	1.1877327566
0.6600000000	1.3144813908
0.6650000000	1.4648026256
0.6700000000	1.6442540018
0.6750000000	1.8613069406
0.6800000000	2.1273673788
0.6850000000	2.4573660751
0.6900000000	2.8744470405
0.6950000000	3.4109684414
0.7000000000	4.1183615238
0.7050000000	5.0752488824
0.7100000000	6.4148885747
0.7150000000	8.3745251647
0.7200000000	11.3959313137
0.7250000000	16.4131313287
0.7300000000	25.6257524496
0.7350000000	45.3456880957
0.7400000000	99.4498169502
0.7450000000	330.1644907748
0.7500000000	1023.6106379975
0.7550000000	257.7055487663
0.7600000000	85.4113908131
0.7650000000	40.9559909039
0.7700000000	23.8372808299
0.7750000000	15.5703179959
0.7800000000	10.9663368045
0.7850000000	8.1513655743
0.7900000000	6.3028226849
0.7950000000	5.0274639525
0.8000000000	4.1103408516
0.8050000000	3.4270569053
0.8100000000	2.9058363207
0.8150000000	2.4924934826
0.8200000000	2.1661696373
0.8250000000	1.9033435119
0.8300000000	1.6879755525
0.8350000000	1.5108644139
0.8400000000	1.3623587435
0.8450000000	1.2377161062
0.8500000000	1.1323484056
0.8550000000	1.0413949938
0.8600000000	0.9637496856
0.8650000000	0.8974430750
0.8700000000	0.8388380186
0.8750000000	0.7890121693
0.8800000000	0.7467721603
0.8850000000	0.7088976663
0.8900000000	0.6785966282
0.8950000000	0.6510287344
0.9000000000	0.6292683701
0.9050000000	0.6144487553
0.9100000000	0.6008761868
0.9150000000	0.5928474355
0.9200000000	0.5923725211
0.9250000000	0.5921233245
0.9300000000	0.5838446716
0.9350000000	0.5579203150
0.9400000000	0.4115711136
0.9450000000	-0.2553271245
0.9500000000	-3.7783445477
0.9550000000	-21.6604749900
0.9600000000	5.1161926231
0.9650000000	8.9922891249
0.9700000000	3.9911179696
0.9750000000	2.0961900524
0.9800000000	1.3140272341
0.9850000000	0.9481058957
0.9900000000	0.7371625482
0.9950000000	0.6092086577
1.0000000000	0.5274945104
1.0050000000	0.4757120412
1.0100000000	0.4355226402
1.0150000000	0.4061445190
1.0200000000	0.3863656060
1.0250000000	0.3697206977
1.0300000000	0.3570476912
1.0350000000	0.3474262014
1.0400000000	0.3412805134
1.0450000000	0.3361132742
1.0500000000	0.3326357907
1.0550000000	0.3306489299
1.0600000000	0.3306120889
1.0650000000	0.3312469750
1.0700000000	0.3330697161
1.0750000000	0.3360863603
1.0800000000	0.3406352076
1.0850000000	0.3464182079
1.0900000000	0.3550382343
1.0950000000	0.3652893068
1.1000000000	0.3775313176
1.1050000000	0.3916069522
1.1100000000	0.4079759996
1.1150000000	0.4270012160
1.1200000000	0.4491277491
1.1250000000	0.4748634995
1.1300000000	0.5049762505
1.1350000000	0.5403931491
1.1400000000	0.5821874015
1.1450000000	0.6322397139
1.1500000000	0.6926602032
1.1550000000	0.7664688343
1.1600000000	0.8579255456
1.1650000000	0.9725742013
1.1700000000	1.1207166488
1.1750000000	1.3161018092
1.1800000000	1.5814261901
1.1850000000	1.9539750695
1.1900000000	2.5041233485
1.1950000000	3.3667553989
1.2000000000	4.8287296190
1.2050000000	7.5900515123
1.2100000000	13.6629737573
1.2150000000	30.0801045021
1.2200000000	73.7741486524
1.2250000000	66.3469567174
1.2300000000	26.5441106506
1.2350000000	12.5153528599
1.2400000000	7.2043324639
1.2450000000	4.7704067690
1.2500000000	3.4917043161
1.2550000000	2.7596995691
1.2600000000	2.3210506454
1.2650000000	2.0540799663
1.2700000000	1.9050235753
1.2750000000	1.8391956196
1.2800000000	1.8409137133
1.2850000000	1.9044312946
1.2900000000	2.0314787505
1.2950000000	2.2292961094
1.3000000000	2.5206159458
1.3050000000	2.9350321633
1.3100000000	3.5260690391
1.3150000000	4.3859433687
1.3200000000	5.6797566719
1.3250000000	7.7228001133
1.3300000000	11.2032356385
1.3350000000	17.7188708006
1.3400000000	31.6436684007
1.3450000000	66.2198630897
1.3500000000	140.6745100770
1.3550000000	131.2845430042
1.3600000000	60.5646897845
1.3650000000	29.7620434876
1.3700000000	17.0681529206
1.3750000000	10.9753277119
1.3800000000	7.6530655184
1.3850000000	5.6521023982
1.3900000000	4.3631376418
1.3950000000	3.4842887846
1.4000000000	2.8602069288
1.4050000000	2.4032217301
1.4100000000	2.0607618857
1.4150000000	1.8023595866
1.4200000000	1.6080551437
1.4250000000	1.4779443671
1.4300000000	1.4303771662
1.4350000000	1.4570716332
1.4400000000	1.1224685000
1.4450000000	0.0973898482
1.4500000000	-1.5665994301
1.4550000000	-0.4390259013
1.4600000000	1.8978208754
1.4650000000	1.0273060034
1.4700000000	-0.9708913849
1.4750000000	-4.2480318453
1.4800000000	-1.8906859605
1.4850000000	3.1072425547
1.4900000000	2.5187472841
1.4950000000	1.6303019927
1.5000000000	1.1454710773
1.5050000000	0.8844087531
1.5100000000	0.7356116891
1.5150000000	0.6452482462
1.5200000000	0.5868758284
1.5250000000	0.5506079127
1.5300000000	0.5229043138
1.5350000000	0.5038093718
1.5400000000	0.4912326744
1.5450000000	0.4840527508
1.5500000000	0.4815455621
1.5550000000	0.4837298449
1.5600000000	0.4918958220
1.5650000000	0.5053820772
1.5700000000	0.5272167458
1.5750000000	0.5610941069
1.5800000000	0.6139505895
1.5850000000	0.6992883229
1.5900000000	0.8455542501
1.5950000000	1.1156994563
1.6000000000	1.6426959142
1.6050000000	2.5140707927
1.6100000000	2.9176354683
1.6150000000	2.1611137418
1.6200000000	1.4514034648
1.6250000000	1.0767698423
1.6300000000	0.8886615226
1.6350000000	0.7918120737
1.6400000000	0.7427174000
1.6450000000	0.7211575874
1.6500000000	0.7170069927
1.6550000000	0.7255221907
1.6600000000	0.7438720159
1.6650000000	0.7707634378
1.6700000000	0.8057045653
1.6750000000	0.8486977797
1.6800000000	0.9001269525
1.6850000000	0.9605877547
1.6900000000	1.0306063661
1.6950000000	1.1091856783
1.7000000000	1.1950024907
1.7050000000	1.2829327384
1.7100000000	1.3832580370
1.7150000000	1.6327331776
1.7200000000	2.0705060942
1.7250000000	2.4715285086
1.7300000000	2.9018441260
1.7350000000	3.3746848701
1.7400000000	3.8386970345
1.7450000000	4.4347092086
1.7500000000	5.3360098137
1.7550000000	6.6774872635
1.7600000000	8.6845780710
1.7650000000	11.7785221244
1.7700000000	16.7623234116
1.7750000000	25.1587370607
1.7800000000	39.4660724986
1.7850000000	60.5660792021
1.7900000000	75.2674924879
1.7950000000	64.0918230451
1.8000000000	42.6549725424
1.8050000000	26.9376456579
1.8100000000	17.7606742409
1.8150000000	12.3816870179
1.8200000000	9.0713842473
1.8250000000	6.9253044284
1.8300000000	5.4681916975
1.8350000000	4.4397025602
1.8400000000	3.6904019645
1.8450000000	3.1296398182
1.8500000000	2.7002866403
1.8550000000	2.3665952123
1.8600000000	2.1036288889
1.8650000000	1.8944405604
1.8700000000	1.7269774621
1.8750000000	1.5923915525
1.8800000000	1.4836651501
1.8850000000	1.3945982697
1.8900000000	1.3180476466
1.8950000000	1.2433541673
1.9000000000	1.1521110446
1.9050000000	0.9793484776
1.9100000000	0.7416047880
1.9150000000	0.6159219310
1.9200000000	1.5050078590
1.9250000000	3.9615292039
1.9300000000	5.9097039218
1.9350000000	5.8186844528
1.9400000000	4.5764749320
1.9450000000	3.3721322312
1.9500000000	2.5265518233
1.9550000000	1.9725053477
1.9600000000	1.6063765504
1.9650000000	1.3613196783
1.9700000000	1.1844107888
1.9750000000	1.0547299242
1.9800000000	0.9557234392
1.9850000000	0.8753811907
1.9900000000	0.8045129048
1.9950000000	0.7350976147
2.0000000000	0.6659661407
2.0050000000	0.6217985813
2.0100000000	0.6471021664
2.0150000000	0.7168094749
2.0200000000	0.7597887265
2.0250000000	0.7712023875
2.0300000000	0.7737674033
2.0350000000	0.7784367759
2.0400000000	0.7892795139
2.0450000000	0.8073323327
2.0500000000	0.8332672447
2.0550000000	0.8676943420
2.0600000000	0.9106140506
2.0650000000	0.9594284295
2.0700000000	1.0076946811
2.0750000000	1.0505850598
2.0800000000	1.0923613184
2.0850000000	1.1418360081
2.0900000000	1.2049171289
2.0950000000	1.2840935916
2.1000000000	1.3820441948
2.1050000000	1.4978828697
2.1100000000	1.6397509187
2.1150000000	1.8135999642
2.1200000000	2.0277762575
2.1250000000	2.2939865602
2.1300000000	2.6287326268
2.1350000000	3.0555737917
2.1400000000	3.6085289846
2.1450000000	4.3373340843
2.1500000000	5.3144561217
2.1550000000	6.6424558136
2.1600000000	8.4525948207
2.1650000000	10.8560357916
2.1700000000	13.8083090726
2.1750000000	16.7434821403
2.1800000000	18.5570352097
2.1850000000	18.6512297291
2.1900000000	17.8265825973
2.1950000000	17.1848410305
2.2000000000	16.9002353204
2.2050000000	16.1098327171
2.2100000000	14.4318242215
2.2150000000	12.3687389247
2.2200000000	10.5166990846
2.2250000000	8.9860412995
2.2300000000	7.6381782204
2.2350000000	6.4194764067
2.2400000000	5.3726464863
2.2450000000	4.5350435136
2.2500000000	3.8929529056
2.2550000000	3.4106162962
2.2600000000	3.0494809828
2.2650000000	2.7709114122
2.2700000000	2.5331390758
2.2750000000	2.2950098209
2.2800000000	2.0386210308
2.2850000000	1.7946354368
2.2900000000	1.6260172418
2.2950000000	1.5684114273
2.3000000000	1.5889821897
2.3050000000	1.6204040818
2.3100000000	1.6230372849
2.3150000000	1.5972028964
2.3200000000	1.5600600452
2.3250000000	1.5293322286
2.3300000000	1.5140878367
2.3350000000	1.5158838762
2.3400000000	1.5296388169
2.3450000000	1.5438529095
2.3500000000	1.5440458686
2.3550000000	1.5209793690
2.3600000000	1.4772679029
2.3650000000	1.4243362115
2.3700000000	1.3739606351
2.3750000000	1.3331747374
2.3800000000	1.3042636117
2.3850000000	1.2865815410
2.3900000000	1.2786554402
2.3950000000	1.2787787226
2.4000000000	1.2874160045
2.4050000000	1.3074118583
2.4100000000	1.3397193353
2.4150000000	1.3856579486
2.4200000000	1.4460206702
2.4250000000	1.5221959970
2.4300000000	1.6162092104
2.4350000000	1.7307771678
2.4400000000	1.8694057523
2.4450000000	2.0365713985
2.4500000000	2.2379217652
2.4550000000	2.4805554347
2.4600000000	2.7731939017
2.4650000000	3.1263011838
2.4700000000	3.5518783758
2.4750000000	4.0619466992
2.4800000000	4.6689210492
2.4850000000	5.3777156474
2.4900000000	6.1814021021
2.4950000000	7.0512198226
2.5000000000	7.9263464051
2.5050000000	8.7449939278
2.5100000000	9.2980593910
2.5150000000	9.4649362285
2.5200000000	9.2168769781
2.5250000000	8.6304537047
2.5300000000	7.8390766451
2.5350000000	6.9714207571
2.5400000000	6.1183971461
2.5450000000	5.3313736603
2.5500000000	4.6331939273
2.5550000000	4.0290587705
2.5600000000	3.5106619435
2.5650000000	3.0748222479
2.5700000000	2.7112777672
2.5750000000	2.4136043422
2.5800000000	2.1770034209
2.5850000000	1.9962590453
2.5900000000	1.8627927974
2.5950000000	1.7645444175
2.6000000000	1.6889566222
2.6050000000	1.6352376086
2.6100000000	1.5887246337
2.6150000000	1.5486803640
2.6200000000	1.5158958008
2.6250000000	1.4912473865
2.6300000000	1.4753203996
2.6350000000	1.4684134799
2.6400000000	1.4707001169
2.6450000000	1.4823416870
2.6500000000	1.5036541241
2.6550000000	1.5347259482
2.6600000000	1.5760339512
2.6650000000	1.6280598228
2.6700000000	1.6913952895
2.6750000000	1.7667573726
2.6800000000	1.8549407904
2.6850000000	1.9567584538
2.6900000000	2.0728761603
2.6950000000	2.2036799397
2.7000000000	2.3490370911
2.7050000000	2.5254793272
2.7100000000	2.7180398182
2.7150000000	2.9229680541
2.7200000000	3.1348094688
2.7250000000	3.3467121704
2.7300000000	3.5509453817
2.7350000000	3.7393452289
2.7400000000	3.9034221363
2.7450000000	4.0356410590
2.7500000000	4.1243132483
2.7550000000	4.1623631356
2.7600000000	4.1444218280
2.7650000000	4.0698654417
2.7700000000	3.9436900401
2.7750000000	3.7759050594
2.7800000000	3.5795570201
2.7850000000	3.3684864763
2.7900000000	3.1551118325
2.7950000000	2.9493915062
2.8000000000	2.7583670802
2.8050000000	2.5650955757
2.8100000000	2.3996811240
2.8150000000	2.2616800666
2.8200000000	2.1488709381
2.8250000000	2.0583258891
2.8300000000	1.9870955927
2.8350000000	1.9326559316
2.8400000000	1.8923498120
2.8450000000	1.8662696881
2.8500000000	1.8524845315
2.8550000000	1.8502585458
2.8600000000	1.8590422824
2.8650000000	1.8783407356
2.8700000000	1.9076001512
2.8750000000	1.9461179267
2.8800000000	1.9929729596
2.8850000000	2.0469673340
2.8900000000	2.1066610598
2.8950000000	2.1704255883
2.9000000000	2.2365483475
2.9050000000	2.3160048203
2.9100000000	2.3922266291
2.9150000000	2.4628164353
2.9200000000	2.5252583724
2.9250000000	2.5766979241
2.9300000000	2.6145066754
2.9350000000	2.6345967295
2.9400000000	2.6352038549
2.9450000000	2.6155766052
2.9500000000	2.5768473484
2.9550000000	2.5219594336
2.9600000000	2.4551611724
2.9650000000	2.3812662328
2.9700000000	2.3049293510
2.9750000000	2.2301284670
2.9800000000	2.1599116063
2.9850000000	2.0963583361
2.9900000000	2.0407194304
2.9950000000	1.9935819953
3.0000000000	1.9550695361
