# energy (eV)    P(omega), $W$ = 300 nm, $h$ = 300 nm, $s$ = 20 nm, $d/W = 5$, $E_{\rm e}$ = 200 keV
0.2000000000	0.1054796244
0.2050000000	0.1070600515
0.2100000000	0.1085375687
0.2150000000	0.1099155317
0.2200000000	0.1111968073
0.2250000000	0.1123838288
0.2300000000	0.1134784573
0.2350000000	0.1144819266
0.2400000000	0.1153947072
0.2450000000	0.1162164540
0.2500000000	0.1169458161
0.2550000000	0.1175802076
0.2600000000	0.1181157456
0.2650000000	0.1185467893
0.2700000000	0.1188656966
0.2750000000	0.1190623384
0.2800000000	0.1191235647
0.2850000000	0.1190324669
0.2900000000	0.1187673875
0.2950000000	0.1183008441
0.3000000000	0.1175977314
0.3050000000	0.1166133148
0.3100000000	0.1152903229
0.3150000000	0.1218467986
0.3200000000	0.1296334693
0.3250000000	0.1394821988
0.3300000000	0.1526720419
0.3350000000	0.1690899425
0.3400000000	0.1905894540
0.3450000000	0.2166658011
0.3500000000	0.2507774828
0.3550000000	0.2959122676
0.3600000000	0.3548425377
0.3650000000	0.4369954166
0.3700000000	0.5453153212
0.3750000000	0.6959870376
0.3800000000	0.9138939147
0.3850000000	1.2534247287
0.3900000000	1.7897913259
0.3950000000	2.7008462725
0.4000000000	4.4375944122
0.4050000000	8.3312448349
0.4100000000	18.9552787384
0.4150000000	60.8302417337
0.4200000000	38.7580571393
0.4250000000	-72.9483320319
0.4300000000	20.2839851657
0.4350000000	12.6396407036
0.4400000000	7.7262744921
0.4450000000	5.0815293296
0.4500000000	3.5590492446
0.4550000000	2.6221444527
0.4600000000	2.0119554286
0.4650000000	1.5961539654
0.4700000000	1.3022764197
0.4750000000	1.0897394428
0.4800000000	0.9321613647
0.4850000000	0.8135874448
0.4900000000	0.7230756305
0.4950000000	0.6532805942
0.5000000000	0.5991815491
0.5050000000	0.5570948740
0.5100000000	0.5246484950
0.5150000000	0.5000959890
0.5200000000	0.4816123770
0.5250000000	0.4683750010
0.5300000000	0.4595012023
0.5350000000	0.4543453522
0.5400000000	0.4524314494
0.5450000000	0.4533618741
0.5500000000	0.4570105565
0.5550000000	0.4631532905
0.5600000000	0.4716753594
0.5650000000	0.4825251377
0.5700000000	0.4956555187
0.5750000000	0.5111581780
0.5800000000	0.5291821825
0.5850000000	0.5498247036
0.5900000000	0.5732742928
0.5950000000	0.5997682260
0.6000000000	0.6296087467
0.6050000000	0.6632341120
0.6100000000	0.7010623123
0.6150000000	0.7436645377
0.6200000000	0.7918027417
0.6250000000	0.8462074275
0.6300000000	0.9079584043
0.6350000000	0.9784014989
0.6400000000	1.0589369875
0.6450000000	1.1515862074
0.6500000000	1.2590067972
0.6550000000	1.3839652158
0.6600000000	1.5307135502
0.6650000000	1.7047074887
0.6700000000	1.9123610822
0.6750000000	2.1634551379
0.6800000000	2.4711430534
0.6850000000	2.8526552303
0.6900000000	3.3346785999
0.6950000000	3.9545366250
0.7000000000	4.7715178010
0.7050000000	5.8762581381
0.7100000000	7.4223288706
0.7150000000	9.6831035969
0.7200000000	13.1675178932
0.7250000000	18.9513814379
0.7300000000	29.5676650813
0.7350000000	52.2833043463
0.7400000000	114.5812098907
0.7450000000	380.1168389895
0.7500000000	1177.5910123371
0.7550000000	296.2453244775
0.7600000000	98.1085455220
0.7650000000	47.0075249552
0.7700000000	27.3376050746
0.7750000000	17.8422949516
0.7800000000	12.5562422772
0.7850000000	9.3254295830
0.7900000000	7.2045798278
0.7950000000	5.7418847488
0.8000000000	4.6904120155
0.8050000000	3.9073032345
0.8100000000	3.3101421410
0.8150000000	2.8367658821
0.8200000000	2.4631657250
0.8250000000	2.1623487565
0.8300000000	1.9159335815
0.8350000000	1.7133355438
0.8400000000	1.5435000723
0.8450000000	1.4009865447
0.8500000000	1.2805218263
0.8550000000	1.1765662573
0.8600000000	1.0878229817
0.8650000000	1.0120212530
0.8700000000	0.9450444362
0.8750000000	0.8880709347
0.8800000000	0.8397274685
0.8850000000	0.7963849270
0.8900000000	0.7616163204
0.8950000000	0.7299875990
0.9000000000	0.7049201178
0.9050000000	0.6876556511
0.9100000000	0.6718343515
0.9150000000	0.6622370679
0.9200000000	0.6610810530
0.9250000000	0.6602235613
0.9300000000	0.6505382580
0.9350000000	0.6214774272
0.9400000000	0.4595859328
0.9450000000	-0.2762510495
0.9500000000	-4.1595445380
0.9550000000	-23.8561360742
0.9600000000	5.6291976672
0.9650000000	9.8884413424
0.9700000000	4.3858852982
0.9750000000	2.3024836784
0.9800000000	1.4430003141
0.9850000000	1.0410184117
0.9900000000	0.8094056970
0.9950000000	0.6689615014
1.0000000000	0.5792875168
1.0050000000	0.5224362743
1.0100000000	0.4783625956
1.0150000000	0.4461639684
1.0200000000	0.4244763561
1.0250000000	0.4062728514
1.0300000000	0.3924439567
1.0350000000	0.3819825257
1.0400000000	0.3753315710
1.0450000000	0.3698013406
1.0500000000	0.3661533937
1.0550000000	0.3641717077
1.0600000000	0.3643444085
1.0650000000	0.3653128685
1.0700000000	0.3676310008
1.0750000000	0.3713084239
1.0800000000	0.3767086211
1.0850000000	0.3835617259
1.0900000000	0.3936709443
1.0950000000	0.4056761861
1.1000000000	0.4199802353
1.1050000000	0.4364661307
1.1100000000	0.4556545716
1.1150000000	0.4779770212
1.1200000000	0.5039449337
1.1250000000	0.5342269324
1.1300000000	0.5697185282
1.1350000000	0.6115345798
1.1400000000	0.6609446121
1.1450000000	0.7202666103
1.1500000000	0.7920207840
1.1550000000	0.8798507324
1.1600000000	0.9888968932
1.1650000000	1.1258291868
1.1700000000	1.3031426980
1.1750000000	1.5374244669
1.1800000000	1.8560958686
1.1850000000	2.3042304214
1.1900000000	2.9667761676
1.1950000000	4.0068402728
1.2000000000	5.7709365832
1.2050000000	9.1046097062
1.2100000000	16.4380164565
1.2150000000	36.2601157285
1.2200000000	88.9895448202
1.2250000000	79.9514125809
1.2300000000	31.8920044784
1.2350000000	14.9577442735
1.2400000000	8.5434642418
1.2450000000	5.5983470260
1.2500000000	4.0446713826
1.2550000000	3.1480056594
1.2600000000	2.6023712238
1.2650000000	2.2605884263
1.2700000000	2.0567809262
1.2750000000	1.9482364397
1.2800000000	1.9146223676
1.2850000000	1.9470584347
1.2900000000	2.0448274832
1.2950000000	2.2130139657
1.3000000000	2.4723841912
1.3050000000	2.8495692645
1.3100000000	3.3942207040
1.3150000000	4.1922477505
1.3200000000	5.3980931717
1.3250000000	7.3061222437
1.3300000000	10.5610294470
1.3350000000	16.6575340603
1.3400000000	29.6875454055
1.3450000000	62.0347779434
1.3500000000	131.6526377993
1.3550000000	122.7850366811
1.3600000000	56.6220792055
1.3650000000	27.8205103233
1.3700000000	15.9547557465
1.3750000000	10.2603715800
1.3800000000	7.1554846249
1.3850000000	5.2851340581
1.3900000000	4.0796702444
1.3950000000	3.2572200221
1.4000000000	2.6721956872
1.4050000000	2.2425114417
1.4100000000	1.9184517514
1.4150000000	1.6703177938
1.4200000000	1.4771591277
1.4250000000	1.3334139088
1.4300000000	1.2419417992
1.4350000000	1.1814361020
1.4400000000	0.8120587787
1.4450000000	-0.2110716651
1.4500000000	-1.9915102009
1.4550000000	-0.6655541984
1.4600000000	2.0251793197
1.4650000000	1.1733202244
1.4700000000	-0.7480544916
1.4750000000	-3.7873643357
1.4800000000	-1.6708543776
1.4850000000	2.8632465230
1.4900000000	2.3178847506
1.4950000000	1.5038681811
1.5000000000	1.0588305397
1.5050000000	0.8179076847
1.5100000000	0.6799969519
1.5150000000	0.5954412968
1.5200000000	0.5400592160
1.5250000000	0.5049086224
1.5300000000	0.4772098907
1.5350000000	0.4570904318
1.5400000000	0.4425181528
1.5450000000	0.4322814624
1.5500000000	0.4255431454
1.5550000000	0.4219547232
1.5600000000	0.4222391854
1.5650000000	0.4249407141
1.5700000000	0.4316176462
1.5750000000	0.4434969101
1.5800000000	0.4630213314
1.5850000000	0.4950008425
1.5900000000	0.5496106125
1.5950000000	0.6493443423
1.6000000000	0.8416043726
1.6050000000	1.1571393102
1.6100000000	1.3042242875
1.6150000000	1.0381944963
1.6200000000	0.7915442346
1.6250000000	0.6661655641
1.6300000000	0.6086125915
1.6350000000	0.5848781808
1.6400000000	0.5795588771
1.6450000000	0.5856088521
1.6500000000	0.5995985639
1.6550000000	0.6201182573
1.6600000000	0.6464496697
1.6650000000	0.6784948628
1.6700000000	0.7165189338
1.6750000000	0.7610695749
1.6800000000	0.8129483540
1.6850000000	0.8732253416
1.6900000000	0.9431445257
1.6950000000	1.0234278574
1.7000000000	1.1158450080
1.7050000000	1.2227729725
1.7100000000	1.3523717216
1.7150000000	1.5701936230
1.7200000000	1.8991964009
1.7250000000	2.2548587915
1.7300000000	2.6777727282
1.7350000000	3.1353287650
1.7400000000	3.5577060603
1.7450000000	4.0900187067
1.7500000000	4.9060512388
1.7550000000	6.1300272885
1.7600000000	7.9663960503
1.7650000000	10.7994522660
1.7700000000	15.3631906433
1.7750000000	23.0498571198
1.7800000000	36.1415682004
1.7850000000	55.4336273995
1.7900000000	68.8433898527
1.7950000000	58.5746937125
1.8000000000	38.9455067248
1.8050000000	24.5663679975
1.8100000000	16.1746811077
1.8150000000	11.2573282958
1.8200000000	8.2313525665
1.8250000000	6.2692566783
1.8300000000	4.9363357265
1.8350000000	3.9944905611
1.8400000000	3.3070602113
1.8450000000	2.7910397693
1.8500000000	2.3940633160
1.8550000000	2.0832984626
1.8600000000	1.8356520621
1.8650000000	1.6352509098
1.8700000000	1.4705290662
1.8750000000	1.3326151397
1.8800000000	1.2139583265
1.8850000000	1.1071973094
1.8900000000	1.0032218886
1.8950000000	0.8882316552
1.9000000000	0.7388426638
1.9050000000	0.4787447205
1.9100000000	0.1052419679
1.9150000000	-0.2542763830
1.9200000000	0.1805104763
1.9250000000	1.9189767020
1.9300000000	3.3077208591
1.9350000000	3.3387660318
1.9400000000	2.6801803238
1.9450000000	2.0312953793
1.9500000000	1.5713848274
1.9550000000	1.2671740264
1.9600000000	1.0644510703
1.9650000000	0.9293694007
1.9700000000	0.8299311163
1.9750000000	0.7570146548
1.9800000000	0.7016719296
1.9850000000	0.6574860038
1.9900000000	0.6196802818
1.9950000000	0.5842057920
2.0000000000	0.5503347232
2.0050000000	0.5301951432
2.0100000000	0.5437347041
2.0150000000	0.5790425750
2.0200000000	0.6029000420
2.0250000000	0.6132729356
2.0300000000	0.6211851246
2.0350000000	0.6317372399
2.0400000000	0.6474104537
2.0450000000	0.6692581333
2.0500000000	0.6983512432
2.0550000000	0.7357547636
2.0600000000	0.7815294593
2.0650000000	0.8320210211
2.0700000000	0.8781332530
2.0750000000	0.9127625017
2.0800000000	0.9411894872
2.0850000000	0.9748904695
2.0900000000	1.0211648124
2.0950000000	1.0825421138
2.1000000000	1.1609587562
2.1050000000	1.2552318174
2.1100000000	1.3719296696
2.1150000000	1.5157599776
2.1200000000	1.6934938905
2.1250000000	1.9147392315
2.1300000000	2.1931096795
2.1350000000	2.5480834263
2.1400000000	3.0077925277
2.1450000000	3.6133574315
2.1500000000	4.4246593484
2.1550000000	5.5263937433
2.1600000000	7.0269228039
2.1650000000	9.0180776375
2.1700000000	11.4648501489
2.1750000000	13.9046589560
2.1800000000	15.4368681565
2.1850000000	15.5804169448
2.1900000000	14.9986075105
2.1950000000	14.5858396029
2.2000000000	14.4416107304
2.2050000000	13.7629949626
2.2100000000	12.2064287905
2.2150000000	10.2479160404
2.2200000000	8.4665347729
2.2250000000	7.0230946462
2.2300000000	5.8381250864
2.2350000000	4.8464371112
2.2400000000	4.0322028254
2.2450000000	3.3892712341
2.2500000000	2.8910330390
2.2550000000	2.5054230210
2.2600000000	2.2027606675
2.2650000000	1.9562938046
2.2700000000	1.7407004793
2.2750000000	1.5345828424
2.2800000000	1.3329738092
2.2850000000	1.1604892348
2.2900000000	1.0590540357
2.2950000000	1.0474587041
2.3000000000	1.0933348265
2.3050000000	1.1416772300
2.3100000000	1.1587649099
2.3150000000	1.1456594352
2.3200000000	1.1169412383
2.3250000000	1.0875956372
2.3300000000	1.0655781090
2.3350000000	1.0532115339
2.3400000000	1.0487492657
2.3450000000	1.0471088981
2.3500000000	1.0417437962
2.3550000000	1.0284717982
2.3600000000	1.0084499379
2.3650000000	0.9867794858
2.3700000000	0.9686452598
2.3750000000	0.9569288398
2.3800000000	0.9520923607
2.3850000000	0.9529772770
2.3900000000	0.9581038945
2.3950000000	0.9660543948
2.4000000000	0.9775350199
2.4050000000	0.9955433268
2.4100000000	1.0213539637
2.4150000000	1.0567262858
2.4200000000	1.1028731946
2.4250000000	1.1610951135
2.4300000000	1.2329876717
2.4350000000	1.3205964754
2.4400000000	1.4265542526
2.4450000000	1.5542368962
2.4500000000	1.7079230927
2.4550000000	1.8930111989
2.4600000000	2.1161396491
2.4650000000	2.3853108622
2.4700000000	2.7097340880
2.4750000000	3.0986948450
2.4800000000	3.5619930319
2.4850000000	4.1036995922
2.4900000000	4.7187406838
2.4950000000	5.3846818369
2.5000000000	6.0530862114
2.5050000000	6.6725856321
2.5100000000	7.0787837615
2.5150000000	7.1794638628
2.5200000000	6.9592130906
2.5250000000	6.4863409634
2.5300000000	5.8693861601
2.5350000000	5.2068128988
2.5400000000	4.5636005019
2.5450000000	3.9736560297
2.5500000000	3.4506324874
2.5550000000	2.9968744081
2.5600000000	2.6059090646
2.5650000000	2.2763134323
2.5700000000	2.0010897099
2.5750000000	1.7760096164
2.5800000000	1.5978406251
2.5850000000	1.4627683017
2.5900000000	1.3641228056
2.5950000000	1.2923311228
2.6000000000	1.2373866114
2.6050000000	1.1981812991
2.6100000000	1.1634218287
2.6150000000	1.1326419176
2.6200000000	1.1065641358
2.6250000000	1.0859291426
2.6300000000	1.0712118746
2.6350000000	1.0626398186
2.6400000000	1.0603329619
2.6450000000	1.0644130704
2.6500000000	1.0751303579
2.6550000000	1.0925408150
2.6600000000	1.1170266407
2.6650000000	1.1489513500
2.6700000000	1.1887432735
2.6750000000	1.2369031201
2.6800000000	1.2939661630
2.6850000000	1.3604805999
2.6900000000	1.4369313252
2.6950000000	1.5236895376
2.7000000000	1.6208919895
2.7050000000	1.7399124175
2.7100000000	1.8717025882
2.7150000000	2.0146546655
2.7200000000	2.1660666875
2.7250000000	2.3220959948
2.7300000000	2.4777679784
2.7350000000	2.6269931959
2.7400000000	2.7625273075
2.7450000000	2.8771410382
2.7500000000	2.9600995954
2.7550000000	3.0042971269
2.7600000000	3.0043673256
2.7650000000	2.9591283021
2.7700000000	2.8721836711
2.7750000000	2.7513145463
2.7800000000	2.6067905508
2.7850000000	2.4495345694
2.7900000000	2.2893321980
2.7950000000	2.1340268780
2.8000000000	1.9891683839
2.8050000000	1.8420299886
2.8100000000	1.7153685853
2.8150000000	1.6089005458
2.8200000000	1.5209625283
2.8250000000	1.4493432310
2.8300000000	1.3918123157
2.8350000000	1.3464711673
2.8400000000	1.3113003357
2.8450000000	1.2864224538
2.8500000000	1.2703541134
2.8550000000	1.2625342657
2.8600000000	1.2625493121
2.8650000000	1.2700484531
2.8700000000	1.2846895179
2.8750000000	1.3060817331
2.8800000000	1.3337481231
2.8850000000	1.3670839732
2.8900000000	1.4053672949
2.8950000000	1.4477430024
2.9000000000	1.4932698740
2.9050000000	1.5508425365
2.9100000000	1.6083829138
2.9150000000	1.6638364264
2.9200000000	1.7148439634
2.9250000000	1.7586834080
2.9300000000	1.7928188242
2.9350000000	1.8136941358
2.9400000000	1.8196144275
2.9450000000	1.8097516654
2.9500000000	1.7847823804
2.9550000000	1.7468300355
2.9600000000	1.6990531067
2.9650000000	1.6450881054
2.9700000000	1.5884916733
2.9750000000	1.5323307626
2.9800000000	1.4789769444
2.9850000000	1.4300691897
2.9900000000	1.3866172786
2.9950000000	1.3491110517
3.0000000000	1.3176924554
