# energy (eV)    P(omega), $W$ = 400 nm, $h$ = 300 nm, $s$ = 20 nm, $d/W = 5$, $E_{\rm e}$ = 200 keV
0.2000000000	0.0927203826
0.2050000000	0.0935637882
0.2100000000	0.0941575832
0.2150000000	0.0944917677
0.2200000000	0.0945523577
0.2250000000	0.0943203554
0.2300000000	0.0937707629
0.2350000000	0.0928710324
0.2400000000	0.0915793048
0.2450000000	0.0898416337
0.2500000000	0.0875890467
0.2550000000	0.0847327978
0.2600000000	0.0811585236
0.2650000000	0.0849034594
0.2700000000	0.0944162764
0.2750000000	0.1080288295
0.2800000000	0.1269949774
0.2850000000	0.1549560459
0.2900000000	0.1896017911
0.2950000000	0.2392693847
0.3000000000	0.3060368127
0.3050000000	0.4083753295
0.3100000000	0.5509296757
0.3150000000	0.8267659444
0.3200000000	1.2575684875
0.3250000000	1.5525139520
0.3300000000	1.9605186889
0.3350000000	2.5389239056
0.3400000000	3.4469032424
0.3450000000	5.0047044887
0.3500000000	8.1110951277
0.3550000000	15.3020028542
0.3600000000	37.6065483890
0.3650000000	0.1699199970
0.3700000000	17.4293027496
0.3750000000	22.9188535380
0.3800000000	10.6793948096
0.3850000000	6.0157996303
0.3900000000	3.8586030800
0.3950000000	2.7190771844
0.4000000000	2.0592925007
0.4050000000	1.6291591739
0.4100000000	1.3491328941
0.4150000000	1.1644400876
0.4200000000	1.0477105038
0.4250000000	0.9560342333
0.4300000000	0.8477057938
0.4350000000	0.7619702172
0.4400000000	0.6941629485
0.4450000000	0.6402481437
0.4500000000	0.5976826654
0.4550000000	0.5639293964
0.4600000000	0.5375990254
0.4650000000	0.5172221258
0.4700000000	0.5018259063
0.4750000000	0.4907297450
0.4800000000	0.4833396933
0.4850000000	0.4791349547
0.4900000000	0.4778075495
0.4950000000	0.4791205284
0.5000000000	0.4828714307
0.5050000000	0.4889700089
0.5100000000	0.4973423395
0.5150000000	0.5079444812
0.5200000000	0.5207984071
0.5250000000	0.5359221293
0.5300000000	0.5535376860
0.5350000000	0.5737437704
0.5400000000	0.5967181301
0.5450000000	0.6226938492
0.5500000000	0.6520007152
0.5550000000	0.6849994567
0.5600000000	0.7221291406
0.5650000000	0.7639543720
0.5700000000	0.8112545472
0.5750000000	0.8646073314
0.5800000000	0.9250935951
0.5850000000	0.9941901664
0.5900000000	1.0728931787
0.5950000000	1.1632987688
0.6000000000	1.2681761873
0.6050000000	1.3896009351
0.6100000000	1.5323308142
0.6150000000	1.7003112623
0.6200000000	1.9003151350
0.6250000000	2.1420592025
0.6300000000	2.4354528494
0.6350000000	2.7991167851
0.6400000000	3.2535945208
0.6450000000	3.8361652841
0.6500000000	4.5944493771
0.6550000000	5.6091107373
0.6600000000	7.0163490741
0.6650000000	9.0313476056
0.6700000000	12.0825342151
0.6750000000	16.9883783806
0.6800000000	25.6603762783
0.6850000000	43.0612888481
0.6900000000	86.3015938383
0.6950000000	242.2611467238
0.7000000000	1174.9855775286
0.7050000000	571.2475390043
0.7100000000	146.7414238779
0.7150000000	62.4026870061
0.7200000000	34.0788945494
0.7250000000	21.4076330183
0.7300000000	14.6826757932
0.7350000000	10.7072209295
0.7400000000	8.1614851805
0.7450000000	6.4335411535
0.7500000000	5.2094985839
0.7550000000	4.3102304858
0.7600000000	3.6324322556
0.7650000000	3.1068096326
0.7700000000	2.6918845965
0.7750000000	2.3587775732
0.7800000000	2.0880836472
0.7850000000	1.8651950358
0.7900000000	1.6784661900
0.7950000000	1.5225133514
0.8000000000	1.3899114394
0.8050000000	1.2763056230
0.8100000000	1.1795930185
0.8150000000	1.0948285172
0.8200000000	1.0210319874
0.8250000000	0.9591037749
0.8300000000	0.9048960833
0.8350000000	0.8577703673
0.8400000000	0.8202416360
0.8450000000	0.7874957996
0.8500000000	0.7597307676
0.8550000000	0.7421804568
0.8600000000	0.7281222616
0.8650000000	0.7180563230
0.8700000000	0.7215593555
0.8750000000	0.7227857430
0.8800000000	0.7188946940
0.8850000000	0.6876369344
0.8900000000	0.5336332651
0.8950000000	-0.2381556033
0.9000000000	-4.3766926523
0.9050000000	-28.7581757953
0.9100000000	5.4761318766
0.9150000000	12.9719098922
0.9200000000	5.3848930188
0.9250000000	2.8013806503
0.9300000000	1.7100330571
0.9350000000	1.1886235186
0.9400000000	0.9073457024
0.9450000000	0.7514354132
0.9500000000	0.6407144684
0.9550000000	0.5665995502
0.9600000000	0.5207632276
0.9650000000	0.4829436768
0.9700000000	0.4559579002
0.9750000000	0.4375678081
0.9800000000	0.4263735936
0.9850000000	0.4243252070
0.9900000000	0.4284151934
0.9950000000	0.4449135790
1.0000000000	0.4843508272
1.0050000000	0.5764198929
1.0100000000	0.8177056246
1.0150000000	1.6446658276
1.0200000000	3.1586281688
1.0250000000	1.4358843065
1.0300000000	0.7353563780
1.0350000000	0.5265652133
1.0400000000	0.4444581217
1.0450000000	0.4059378573
1.0500000000	0.3866264133
1.0550000000	0.3764925568
1.0600000000	0.3719404087
1.0650000000	0.3710827430
1.0700000000	0.3728732643
1.0750000000	0.3769433822
1.0800000000	0.3825626991
1.0850000000	0.3902117298
1.0900000000	0.4012661780
1.0950000000	0.4141542972
1.1000000000	0.4290022960
1.1050000000	0.4458368957
1.1100000000	0.4649244630
1.1150000000	0.4865189517
1.1200000000	0.5109217716
1.1250000000	0.5383823298
1.1300000000	0.5696120587
1.1350000000	0.6050904575
1.1400000000	0.6455356446
1.1450000000	0.6918607461
1.1500000000	0.7447763083
1.1550000000	0.8064948799
1.1600000000	0.8784153103
1.1650000000	0.9623693534
1.1700000000	1.0587343326
1.1750000000	1.1564502748
1.1800000000	1.2488907941
1.1850000000	1.7359286560
1.1900000000	2.1542782581
1.1950000000	2.9531218976
1.2000000000	4.0219054147
1.2050000000	3.5279311692
1.2100000000	3.3763197594
1.2150000000	3.7588257345
1.2200000000	4.4955965256
1.2250000000	5.6270381607
1.2300000000	7.3474735143
1.2350000000	10.0690214753
1.2400000000	14.6534694279
1.2450000000	23.2859547615
1.2500000000	41.9814863622
1.2550000000	90.8767575551
1.2600000000	219.5052869838
1.2650000000	222.3497976556
1.2700000000	92.4930138113
1.2750000000	42.6948832383
1.2800000000	23.6452053839
1.2850000000	14.8695245263
1.2900000000	10.1917124823
1.2950000000	7.4278817848
1.3000000000	5.6674447504
1.3050000000	4.4821492867
1.3100000000	3.6463264761
1.3150000000	3.0424049075
1.3200000000	2.5947193318
1.3250000000	2.2578227086
1.3300000000	2.0041109669
1.3350000000	1.8166465523
1.3400000000	1.6866371827
1.3450000000	1.6116740323
1.3500000000	1.6027011002
1.3550000000	1.6846317858
1.3600000000	1.9208531513
1.3650000000	2.4726653614
1.3700000000	3.7904299178
1.3750000000	7.0690987245
1.3800000000	11.5470363967
1.3850000000	8.0664292414
1.3900000000	4.1106228188
1.3950000000	2.3850638418
1.4000000000	1.5619461047
1.4050000000	1.0560825345
1.4100000000	0.5982741158
1.4150000000	-0.0846233627
1.4200000000	-1.6134559304
1.4250000000	-5.6644000410
1.4300000000	-7.6162015045
1.4350000000	3.4893836184
1.4400000000	4.4634346462
1.4450000000	2.6760361977
1.4500000000	1.6651478670
1.4550000000	1.1478632616
1.4600000000	0.8476241934
1.4650000000	0.6103226423
1.4700000000	0.3564650323
1.4750000000	0.4189646360
1.4800000000	0.6143250061
1.4850000000	0.5578243315
1.4900000000	0.4939317146
1.4950000000	0.4526064342
1.5000000000	0.4254597354
1.5050000000	0.4075104432
1.5100000000	0.3952997819
1.5150000000	0.3886366796
1.5200000000	0.3837247188
1.5250000000	0.3819516218
1.5300000000	0.3834803252
1.5350000000	0.3890109905
1.5400000000	0.4002907272
1.5450000000	0.4211996757
1.5500000000	0.4604590337
1.5550000000	0.5354526089
1.5600000000	0.6480228093
1.5650000000	0.6660646276
1.5700000000	0.5644846333
1.5750000000	0.4932052595
1.5800000000	0.4624587901
1.5850000000	0.4527876959
1.5900000000	0.4540469853
1.5950000000	0.4618309899
1.6000000000	0.4742203211
1.6050000000	0.4905543075
1.6100000000	0.5103395825
1.6150000000	0.5335027657
1.6200000000	0.5604128869
1.6250000000	0.5913882957
1.6300000000	0.6269521584
1.6350000000	0.6677789262
1.6400000000	0.7147310250
1.6450000000	0.7689099413
1.6500000000	0.8316982951
1.6550000000	0.9048482531
1.6600000000	0.9906299324
1.6650000000	1.0919735724
1.6700000000	1.2117283452
1.6750000000	1.3568859177
1.6800000000	1.5336265222
1.6850000000	1.7516727517
1.6900000000	2.0248289718
1.6950000000	2.3733526099
1.7000000000	2.8277391805
1.7050000000	3.4545808387
1.7100000000	4.3291422965
1.7150000000	5.6003464791
1.7200000000	7.5377238860
1.7250000000	10.6113237794
1.7300000000	15.3345928454
1.7350000000	21.3957907819
1.7400000000	29.0575026088
1.7450000000	42.5026262918
1.7500000000	59.9559164237
1.7550000000	60.9202658905
1.7600000000	42.7394891945
1.7650000000	26.6227734272
1.7700000000	17.0662963993
1.7750000000	11.6321336021
1.7800000000	8.4207844305
1.7850000000	6.4454249089
1.7900000000	5.2204351457
1.7950000000	4.5195715687
1.8000000000	4.2367935640
1.8050000000	4.1473749869
1.8100000000	3.6900141656
1.8150000000	2.8591730239
1.8200000000	2.1953860398
1.8250000000	1.8531613480
1.8300000000	1.6133594501
1.8350000000	1.4002398162
1.8400000000	1.2264579031
1.8450000000	1.0885531227
1.8500000000	0.9774179465
1.8550000000	0.8856088077
1.8600000000	0.8011582827
1.8650000000	0.7297632830
1.8700000000	0.6576083903
1.8750000000	0.5535936342
1.8800000000	0.3165005768
1.8850000000	-0.2031298246
1.8900000000	-0.9020636579
1.8950000000	-1.0219891914
1.9000000000	0.1093848504
1.9050000000	1.1642306540
1.9100000000	1.2873181436
1.9150000000	1.0875482139
1.9200000000	0.8917549062
1.9250000000	0.7528190531
1.9300000000	0.6686786510
1.9350000000	0.6044407014
1.9400000000	0.5617073717
1.9450000000	0.5334195426
1.9500000000	0.5136470353
1.9550000000	0.4971030358
1.9600000000	0.4828189861
1.9650000000	0.4726762029
1.9700000000	0.4672596828
1.9750000000	0.4662089552
1.9800000000	0.4692317635
1.9850000000	0.4764156510
1.9900000000	0.4882319413
1.9950000000	0.5052703433
2.0000000000	0.5270879954
2.0050000000	0.5518413080
2.0100000000	0.5696032828
2.0150000000	0.5814578557
2.0200000000	0.5957522340
2.0250000000	0.6178091528
2.0300000000	0.6491957043
2.0350000000	0.6906972246
2.0400000000	0.7437391789
2.0450000000	0.8107943025
2.0500000000	0.8954136638
2.0550000000	1.0015436897
2.0600000000	1.1310991143
2.0650000000	1.2820444689
2.0700000000	1.4566485946
2.0750000000	1.6743892268
2.0800000000	1.9674232867
2.0850000000	2.3671047257
2.0900000000	2.8916680348
2.0950000000	3.5034237695
2.1000000000	4.0486608867
2.1050000000	4.3128409127
2.1100000000	4.1873221244
2.1150000000	3.8985329243
2.1200000000	3.6943802036
2.1250000000	3.6855757806
2.1300000000	3.9049586661
2.1350000000	4.3785504969
2.1400000000	5.1584785741
2.1450000000	6.3369712044
2.1500000000	8.0431839654
2.1550000000	10.3741371047
2.1600000000	13.1418553640
2.1650000000	15.4680814169
2.1700000000	16.0177391546
2.1750000000	14.3384716560
2.1800000000	11.5758299657
2.1850000000	8.9312979064
2.1900000000	6.8636610788
2.1950000000	5.3698503732
2.2000000000	4.3218127470
2.2050000000	3.5987471437
2.2100000000	3.0967873890
2.2150000000	2.7117816457
2.2200000000	2.3668019841
2.2250000000	2.0386802037
2.2300000000	1.7415930709
2.2350000000	1.4865034056
2.2400000000	1.2704507237
2.2450000000	1.0838962881
2.2500000000	0.9173460679
2.2550000000	0.7654908274
2.2600000000	0.6136327666
2.2650000000	0.5031617285
2.2700000000	0.4431563312
2.2750000000	0.4582679480
2.2800000000	0.5454323157
2.2850000000	0.6564249270
2.2900000000	0.7376704538
2.2950000000	0.7736822098
2.3000000000	0.7778054571
2.3050000000	0.7653861324
2.3100000000	0.7490246489
2.3150000000	0.7345269159
2.3200000000	0.7241884158
2.3250000000	0.7192704622
2.3300000000	0.7207940705
2.3350000000	0.7296050694
2.3400000000	0.7464258543
2.3450000000	0.7719871867
2.3500000000	0.8070631196
2.3550000000	0.8528139012
2.3600000000	0.9084884873
2.3650000000	0.9744330901
2.3700000000	1.0504642544
2.3750000000	1.1374072836
2.3800000000	1.2384006626
2.3850000000	1.3571684846
2.3900000000	1.4945342034
2.3950000000	1.6443808466
2.4000000000	1.7909833646
2.4050000000	1.9173197945
2.4100000000	1.9873400218
2.4150000000	1.9940230834
2.4200000000	1.9544898034
2.4250000000	1.8979356861
2.4300000000	1.8502721521
2.4350000000	1.8271401154
2.4400000000	1.8347806428
2.4450000000	1.8742014274
2.4500000000	1.9455275827
2.4550000000	2.0503478404
2.4600000000	2.1953831916
2.4650000000	2.3875235280
2.4700000000	2.6344416818
2.4750000000	2.9409303280
2.4800000000	3.3045718709
2.4850000000	3.7098508414
2.4900000000	4.1212748074
2.4950000000	4.4799453466
2.5000000000	4.7121593419
2.5050000000	4.7420155977
2.5100000000	4.5392066325
2.5150000000	4.1590896127
2.5200000000	3.6901165279
2.5250000000	3.2099951232
2.5300000000	2.7660932145
2.5350000000	2.3783132733
2.5400000000	2.0495855375
2.5450000000	1.7750328561
2.5500000000	1.5475875196
2.5550000000	1.3608992376
2.5600000000	1.2047965479
2.5650000000	1.0879734685
2.5700000000	1.0040339330
2.5750000000	0.9499843819
2.5800000000	0.9198251086
2.5850000000	0.9053504302
2.5900000000	0.8988594236
2.5950000000	0.8955567775
2.6000000000	0.8938963433
2.6050000000	0.9010300318
2.6100000000	0.9123295570
2.6150000000	0.9295242442
2.6200000000	0.9535328680
2.6250000000	0.9844119996
2.6300000000	1.0212900544
2.6350000000	1.0623172227
2.6400000000	1.1046670735
2.6450000000	1.1447554849
2.6500000000	1.1787866779
2.6550000000	1.2036485157
2.6600000000	1.2178953652
2.6650000000	1.2223763165
2.6700000000	1.2200554995
2.6750000000	1.2152657486
2.6800000000	1.2122055127
2.6850000000	1.2147973308
2.6900000000	1.2257728437
2.6950000000	1.2468107473
2.7000000000	1.2787158835
2.7050000000	1.3264780102
2.7100000000	1.3879491866
2.7150000000	1.4621354193
2.7200000000	1.5469821229
2.7250000000	1.6390016690
2.7300000000	1.7329288989
2.7350000000	1.8216653057
2.7400000000	1.8967673839
2.7450000000	1.9496620036
2.7500000000	1.9734391628
2.7550000000	1.9646173744
2.7600000000	1.9240860512
2.7650000000	1.8567843338
2.7700000000	1.7702702847
2.7750000000	1.6729176990
2.7800000000	1.5724051677
2.7850000000	1.4748752473
2.7900000000	1.3838891124
2.7950000000	1.3033436851
2.8000000000	1.2340451128
2.8050000000	1.1698625456
2.8100000000	1.1192599101
2.8150000000	1.0802447638
2.8200000000	1.0506526408
2.8250000000	1.0284973360
2.8300000000	1.0120907237
2.8350000000	1.0000325497
2.8400000000	0.9911396172
2.8450000000	0.9844073605
2.8500000000	0.9790291290
2.8550000000	0.9744694184
2.8600000000	0.9705469847
2.8650000000	0.9674615990
2.8700000000	0.9657433413
2.8750000000	0.9661212186
2.8800000000	0.9693617861
2.8850000000	0.9761235113
2.8900000000	0.9868554366
2.8950000000	1.0017360062
2.9000000000	1.0206430340
2.9050000000	1.0489252165
2.9100000000	1.0799407626
2.9150000000	1.1116187650
2.9200000000	1.1413420437
2.9250000000	1.1662990968
2.9300000000	1.1838795152
2.9350000000	1.1921314954
2.9400000000	1.1901395497
2.9450000000	1.1781993072
2.9500000000	1.1577069607
2.9550000000	1.1308033871
2.9600000000	1.0999229361
2.9650000000	1.0673714804
2.9700000000	1.0350453426
2.9750000000	1.0043083333
2.9800000000	0.9760000863
2.9850000000	0.9505267430
2.9900000000	0.9279827253
2.9950000000	0.9082691680
3.0000000000	0.8911905277
