# energy (eV)    P(omega), $W$ = 300 nm, $h$ = 300 nm, $s$ = 20 nm, $d/W = 5$, $E_{\rm e}$ = 200 keV
0.2000000000	0.0836529825
0.2050000000	0.0849268481
0.2100000000	0.0861106405
0.2150000000	0.0872073675
0.2200000000	0.0882197369
0.2250000000	0.0891499842
0.2300000000	0.0899998949
0.2350000000	0.0907707118
0.2400000000	0.0914630679
0.2450000000	0.0920768746
0.2500000000	0.0926112359
0.2550000000	0.0930642237
0.2600000000	0.0934328377
0.2650000000	0.0937126182
0.2700000000	0.0938975047
0.2750000000	0.0939793800
0.2800000000	0.0939476600
0.2850000000	0.0937886834
0.2900000000	0.0934849774
0.2950000000	0.0930142782
0.3000000000	0.0923481712
0.3050000000	0.0914504444
0.3100000000	0.0902747169
0.3150000000	0.0955912777
0.3200000000	0.1019050656
0.3250000000	0.1098962979
0.3300000000	0.1206082393
0.3350000000	0.1339379089
0.3400000000	0.1513926944
0.3450000000	0.1725448418
0.3500000000	0.2002038972
0.3550000000	0.2367828057
0.3600000000	0.2845067446
0.3650000000	0.3510046864
0.3700000000	0.4385982614
0.3750000000	0.5603470442
0.3800000000	0.7362969148
0.3850000000	1.0102813112
0.3900000000	1.4427714691
0.3950000000	2.1768353513
0.4000000000	3.5752223541
0.4050000000	6.7081580487
0.4100000000	15.2502261283
0.4150000000	48.8942310184
0.4200000000	31.1734286023
0.4250000000	-58.5141105487
0.4300000000	16.2393618801
0.4350000000	10.1064700808
0.4400000000	6.1688961315
0.4450000000	4.0509405550
0.4500000000	2.8325338662
0.4550000000	2.0832171211
0.4600000000	1.5954839055
0.4650000000	1.2633037887
0.4700000000	1.0286344367
0.4750000000	0.8589739920
0.4800000000	0.7332101941
0.4850000000	0.6385756993
0.4900000000	0.5663195698
0.4950000000	0.5105698392
0.5000000000	0.4673121275
0.5050000000	0.4336042099
0.5100000000	0.4075483037
0.5150000000	0.3877458427
0.5200000000	0.3727442532
0.5250000000	0.3618810426
0.5300000000	0.3544518820
0.5350000000	0.3499394271
0.5400000000	0.3479617522
0.5450000000	0.3481999586
0.5500000000	0.3505467975
0.5550000000	0.3548204994
0.5600000000	0.3609241922
0.5650000000	0.3688115739
0.5700000000	0.3784379876
0.5750000000	0.3898692097
0.5800000000	0.4032116830
0.5850000000	0.4185334570
0.5900000000	0.4359711055
0.5950000000	0.4556995113
0.6000000000	0.4779406182
0.6050000000	0.5030219093
0.6100000000	0.5312516631
0.6150000000	0.5630544873
0.6200000000	0.5989972355
0.6250000000	0.6396227726
0.6300000000	0.6857351634
0.6350000000	0.7383362408
0.6400000000	0.7984670849
0.6450000000	0.8676329840
0.6500000000	0.9478115415
0.6550000000	1.0410602168
0.6600000000	1.1505441221
0.6650000000	1.2803200984
0.6700000000	1.4351567023
0.6750000000	1.6223294464
0.6800000000	1.8516175299
0.6850000000	2.1358266723
0.6900000000	2.4947895568
0.6950000000	2.9562375062
0.7000000000	3.5642141477
0.7050000000	4.3860331325
0.7100000000	5.5357275691
0.7150000000	7.2162610684
0.7200000000	9.8053837300
0.7250000000	14.1014529269
0.7300000000	21.9837721225
0.7350000000	38.8426855801
0.7400000000	85.0589979280
0.7450000000	281.9575371168
0.7500000000	872.8110909230
0.7550000000	219.3995538130
0.7600000000	72.6019457190
0.7650000000	34.7588483561
0.7700000000	20.1982606278
0.7750000000	13.1722242091
0.7800000000	9.2623683149
0.7850000000	6.8736006943
0.7900000000	5.3061072790
0.7950000000	4.2254537910
0.8000000000	3.4489006981
0.8050000000	2.8707566490
0.8100000000	2.4300505241
0.8150000000	2.0808476290
0.8200000000	1.8053372331
0.8250000000	1.5835713376
0.8300000000	1.4019736431
0.8350000000	1.2527039291
0.8400000000	1.1276090082
0.8450000000	1.0226622186
0.8500000000	0.9339629806
0.8550000000	0.8574419434
0.8600000000	0.7921215405
0.8650000000	0.7363191190
0.8700000000	0.6870270037
0.8750000000	0.6450775007
0.8800000000	0.6094547954
0.8850000000	0.5775201609
0.8900000000	0.5518405804
0.8950000000	0.5284817642
0.9000000000	0.5098994082
0.9050000000	0.4969718526
0.9100000000	0.4851162010
0.9150000000	0.4777623104
0.9200000000	0.4764888177
0.9250000000	0.4754567681
0.9300000000	0.4681602455
0.9350000000	0.4471342420
0.9400000000	0.3316044217
0.9450000000	-0.1920508250
0.9500000000	-2.9525483704
0.9550000000	-16.9433190796
0.9600000000	3.9961272795
0.9650000000	7.0139293260
0.9700000000	3.1094641895
0.9750000000	1.6321882165
0.9800000000	1.0230783015
0.9850000000	0.7382721371
0.9900000000	0.5742511097
0.9950000000	0.4748223874
1.0000000000	0.4113451563
1.0050000000	0.3710833929
1.0100000000	0.3399011405
1.0150000000	0.3171299870
1.0200000000	0.3017826634
1.0250000000	0.2889296558
1.0300000000	0.2791821843
1.0350000000	0.2718289453
1.0400000000	0.2671691544
1.0450000000	0.2633310368
1.0500000000	0.2608414438
1.0550000000	0.2595486966
1.0600000000	0.2597877665
1.0650000000	0.2606250830
1.0700000000	0.2624438332
1.0750000000	0.2652520010
1.0800000000	0.2693025559
1.0850000000	0.2744392074
1.0900000000	0.2819676226
1.0950000000	0.2908967236
1.1000000000	0.3015167001
1.1050000000	0.3137772508
1.1100000000	0.3280544080
1.1150000000	0.3446725195
1.1200000000	0.3640040537
1.1250000000	0.3865878184
1.1300000000	0.4130846276
1.1350000000	0.4443378398
1.1400000000	0.4812943799
1.1450000000	0.5257390744
1.1500000000	0.5795665695
1.1550000000	0.6455369688
1.1600000000	0.7275445724
1.1650000000	0.8306289539
1.1700000000	0.9642930498
1.1750000000	1.1410970687
1.1800000000	1.3818244043
1.1850000000	1.7206512060
1.1900000000	2.2219130760
1.1950000000	3.0092979645
1.2000000000	4.3453416050
1.2050000000	6.8706027620
1.2100000000	12.4256712381
1.2150000000	27.4369377742
1.2200000000	67.3452715947
1.2250000000	60.4478185362
1.2300000000	24.0573242680
1.2350000000	11.2399999329
1.2400000000	6.3843215668
1.2450000000	4.1523457123
1.2500000000	2.9718210733
1.2550000000	2.2869576624
1.2600000000	1.8661200507
1.2650000000	1.5977883771
1.2700000000	1.4316022453
1.2750000000	1.3348281721
1.2800000000	1.2913697000
1.2850000000	1.2935208366
1.2900000000	1.3393059319
1.2950000000	1.4307420583
1.3000000000	1.5801098816
1.3050000000	1.8029485708
1.3100000000	2.1292117348
1.3150000000	2.6109765488
1.3200000000	3.3422519234
1.3250000000	4.5019365751
1.3300000000	6.4831126526
1.3350000000	10.1958944310
1.3400000000	18.1318198695
1.3450000000	37.8283380920
1.3500000000	80.1955716850
1.3550000000	74.7433762040
1.3600000000	34.4550495014
1.3650000000	16.9272994536
1.3700000000	9.7084521346
1.3750000000	6.2447575513
1.3800000000	4.3562828378
1.3850000000	3.2185553607
1.3900000000	2.4849496489
1.3950000000	1.9841732947
1.4000000000	1.6274468799
1.4050000000	1.3647769620
1.4100000000	1.1656154381
1.4150000000	1.0112532699
1.4200000000	0.8877683976
1.4250000000	0.7888642896
1.4300000000	0.7088551224
1.4350000000	0.6275072327
1.4400000000	0.3699438662
1.4450000000	-0.2970721766
1.4500000000	-1.5172863690
1.4550000000	-0.5510445119
1.4600000000	1.3844189197
1.4650000000	0.8424486882
1.4700000000	-0.3595238765
1.4750000000	-2.1969888293
1.4800000000	-0.9576240721
1.4850000000	1.7246292871
1.4900000000	1.3952417615
1.4950000000	0.9090953457
1.5000000000	0.6429982477
1.5050000000	0.4984456579
1.5100000000	0.4155749961
1.5150000000	0.3645676537
1.5200000000	0.3310164863
1.5250000000	0.3096611767
1.5300000000	0.2926951020
1.5350000000	0.2802778518
1.5400000000	0.2711843029
1.5450000000	0.2646661046
1.5500000000	0.2602325191
1.5550000000	0.2576354901
1.5600000000	0.2572924549
1.5650000000	0.2582461091
1.5700000000	0.2613691196
1.5750000000	0.2672560249
1.5800000000	0.2771128719
1.5850000000	0.2933149374
1.5900000000	0.3208717162
1.5950000000	0.3707914188
1.6000000000	0.4660140434
1.6050000000	0.6201694025
1.6100000000	0.6885511739
1.6150000000	0.5560994332
1.6200000000	0.4363360133
1.6250000000	0.3769387838
1.6300000000	0.3509708455
1.6350000000	0.3416766386
1.6400000000	0.3415530491
1.6450000000	0.3472062054
1.6500000000	0.3570335798
1.6550000000	0.3703655132
1.6600000000	0.3869423594
1.6650000000	0.4067939440
1.6700000000	0.4301455460
1.6750000000	0.4573893408
1.6800000000	0.4890821101
1.6850000000	0.5259650744
1.6900000000	0.5689892457
1.6950000000	0.6190583365
1.7000000000	0.6780795488
1.7050000000	0.7495300603
1.7100000000	0.8375333319
1.7150000000	0.9624856975
1.7200000000	1.1356373086
1.7250000000	1.3455264376
1.7300000000	1.6091202621
1.7350000000	1.8908014351
1.7400000000	2.1394850769
1.7450000000	2.4487297840
1.7500000000	2.9285030726
1.7550000000	3.6527470521
1.7600000000	4.7417959773
1.7650000000	6.4229357630
1.7700000000	9.1309757016
1.7750000000	13.6906351519
1.7800000000	21.4526080582
1.7850000000	32.8813269073
1.7900000000	40.8057543001
1.7950000000	34.6917776057
1.8000000000	23.0459931035
1.8050000000	14.5230003439
1.8100000000	9.5516167648
1.8150000000	6.6395748457
1.8200000000	4.8480240853
1.8250000000	3.6864423508
1.8300000000	2.8972288846
1.8350000000	2.3393168111
1.8400000000	1.9317574039
1.8450000000	1.6253448655
1.8500000000	1.3890257729
1.8550000000	1.2033181126
1.8600000000	1.0544453743
1.8650000000	0.9328874574
1.8700000000	0.8316161176
1.8750000000	0.7451209473
1.8800000000	0.6685566848
1.8850000000	0.5970094661
1.8900000000	0.5242345939
1.8950000000	0.4407367126
1.9000000000	0.3305356816
1.9050000000	0.1429657479
1.9100000000	-0.1293985435
1.9150000000	-0.4227267487
1.9200000000	-0.2915297954
1.9250000000	0.5655264394
1.9300000000	1.2539467222
1.9350000000	1.3098095908
1.9400000000	1.0796979989
1.9450000000	0.8471933037
1.9500000000	0.6800168313
1.9550000000	0.5678534713
1.9600000000	0.4921784875
1.9650000000	0.4420775815
1.9700000000	0.4041377464
1.9750000000	0.3762930022
1.9800000000	0.3553201921
1.9850000000	0.3389424075
1.9900000000	0.3255371108
1.9950000000	0.3137899513
2.0000000000	0.3033839536
2.0050000000	0.2980813581
2.0100000000	0.3029451594
2.0150000000	0.3145745419
2.0200000000	0.3237280872
2.0250000000	0.3299682091
2.0300000000	0.3366302081
2.0350000000	0.3451529933
2.0400000000	0.3566344280
2.0450000000	0.3717891022
2.0500000000	0.3914760281
2.0550000000	0.4165663841
2.0600000000	0.4471016704
2.0650000000	0.4801810743
2.0700000000	0.5086081796
2.0750000000	0.5266674005
2.0800000000	0.5382607373
2.0850000000	0.5521030671
2.0900000000	0.5735894575
2.0950000000	0.6043689380
2.1000000000	0.6453285763
2.1050000000	0.6955315294
2.1100000000	0.7584804439
2.1150000000	0.8366069163
2.1200000000	0.9335197534
2.1250000000	1.0544066427
2.1300000000	1.2066644429
2.1350000000	1.4009024456
2.1400000000	1.6524559977
2.1450000000	1.9837405144
2.1500000000	2.4273864467
2.1550000000	3.0295141310
2.1600000000	3.8490911633
2.1650000000	4.9359845431
2.1700000000	6.2713050954
2.1750000000	7.6039674493
2.1800000000	8.4465667169
2.1850000000	8.5414211059
2.1900000000	8.2513549083
2.1950000000	8.0587789882
2.2000000000	8.0033187377
2.2050000000	7.6184135073
2.2100000000	6.7084631377
2.2150000000	5.5526266577
2.2200000000	4.4950731844
2.2250000000	3.6480340165
2.2300000000	2.9813397931
2.2350000000	2.4518004200
2.2400000000	2.0316674686
2.2450000000	1.7037450264
2.2500000000	1.4480047568
2.2550000000	1.2462292052
2.2600000000	1.0832117612
2.2650000000	0.9463000454
2.2700000000	0.8248629743
2.2750000000	0.7114386665
2.2800000000	0.6065544182
2.2850000000	0.5233775220
2.2900000000	0.4814125949
2.2950000000	0.4873826673
2.3000000000	0.5220478936
2.3050000000	0.5559257994
2.3100000000	0.5705483705
2.3150000000	0.5668531077
2.3200000000	0.5529258227
2.3250000000	0.5370210646
2.3300000000	0.5235995594
2.3350000000	0.5142073159
2.3400000000	0.5085240197
2.3450000000	0.5048946689
2.3500000000	0.5011096942
2.3550000000	0.4957561214
2.3600000000	0.4892258280
2.3650000000	0.4832326361
2.3700000000	0.4794755814
2.3750000000	0.4787849781
2.3800000000	0.4810200588
2.3850000000	0.4853291031
2.3900000000	0.4907632593
2.3950000000	0.4965109997
2.4000000000	0.5030566876
2.4050000000	0.5122048117
2.4100000000	0.5248726507
2.4150000000	0.5422233479
2.4200000000	0.5650480159
2.4250000000	0.5940664004
2.4300000000	0.6300858376
2.4350000000	0.6741182953
2.4400000000	0.7274658140
2.4450000000	0.7918082012
2.4500000000	0.8692833510
2.4550000000	0.9625959843
2.4600000000	1.0750859865
2.4650000000	1.2107945276
2.4700000000	1.3744026792
2.4750000000	1.5706753662
2.4800000000	1.8047665853
2.4850000000	2.0789938820
2.4900000000	2.3910874950
2.4950000000	2.7297590533
2.5000000000	3.0699306255
2.5050000000	3.3843308318
2.5100000000	3.5874422869
2.5150000000	3.6319106351
2.5200000000	3.5116125341
2.5250000000	3.2641866976
2.5300000000	2.9468960300
2.5350000000	2.6099685300
2.5400000000	2.2852185202
2.5450000000	1.9883701466
2.5500000000	1.7252991711
2.5550000000	1.4967521730
2.5600000000	1.2994132930
2.5650000000	1.1328498857
2.5700000000	0.9937384759
2.5750000000	0.8801118282
2.5800000000	0.7904335583
2.5850000000	0.7228003556
2.5900000000	0.6737762777
2.5950000000	0.6383872225
2.6000000000	0.6114306340
2.6050000000	0.5922047968
2.6100000000	0.5749418766
2.6150000000	0.5594295714
2.6200000000	0.5460555135
2.6250000000	0.5352008115
2.6300000000	0.5270955903
2.6350000000	0.5218396245
2.6400000000	0.5194852625
2.6450000000	0.5200916344
2.6500000000	0.5237857113
2.6550000000	0.5305888593
2.6600000000	0.5406795568
2.6650000000	0.5542154756
2.6700000000	0.5713823938
2.6750000000	0.5924007314
2.6800000000	0.6175158089
2.6850000000	0.6469955528
2.6900000000	0.6810988664
2.6950000000	0.7200604107
2.7000000000	0.7640427279
2.7050000000	0.8183418305
2.7100000000	0.8792000571
2.7150000000	0.9461995197
2.7200000000	1.0184371106
2.7250000000	1.0944084511
2.7300000000	1.1719011389
2.7350000000	1.2479010720
2.7400000000	1.3185435642
2.7450000000	1.3797488656
2.7500000000	1.4255946287
2.7550000000	1.4520129179
2.7600000000	1.4559485224
2.7650000000	1.4366155718
2.7700000000	1.3957748438
2.7750000000	1.3373770467
2.7800000000	1.2666618149
2.7850000000	1.1892032324
2.7900000000	1.1099808727
2.7950000000	1.0329814997
2.8000000000	0.9610171958
2.8050000000	0.8878403885
2.8100000000	0.8246712782
2.8150000000	0.7713657723
2.8200000000	0.7270859896
2.8250000000	0.6907183296
2.8300000000	0.6611456843
2.8350000000	0.6374159824
2.8400000000	0.6185171094
2.8450000000	0.6045172376
2.8500000000	0.5946746383
2.8550000000	0.5887129400
2.8600000000	0.5864366235
2.8650000000	0.5876912213
2.8700000000	0.5923392181
2.8750000000	0.6002398946
2.8800000000	0.6112304464
2.8850000000	0.6251084482
2.8900000000	0.6416246710
2.8950000000	0.6604747235
2.9000000000	0.6812975714
2.9050000000	0.7086505243
2.9100000000	0.7367330931
2.9150000000	0.7644623129
2.9200000000	0.7905359146
2.9250000000	0.8134439534
2.9300000000	0.8317672884
2.9350000000	0.8436165807
2.9400000000	0.8480454639
2.9450000000	0.8445693340
2.9500000000	0.8334734722
2.9550000000	0.8157701502
2.9600000000	0.7930011469
2.9650000000	0.7669550785
2.9700000000	0.7393870938
2.9750000000	0.7118200661
2.9800000000	0.6854350609
2.9850000000	0.6610559977
2.9900000000	0.6391899001
2.9950000000	0.6200950370
3.0000000000	0.6038546787
