# energy (eV)    P(omega), $W$ = 300 nm, $h$ = 300 nm, $s$ = 20 nm, $d/W = 5$, $E_{\rm e}$ = 200 keV
0.2000000000	0.0475142183
0.2050000000	0.0482377702
0.2100000000	0.0489101614
0.2150000000	0.0495331004
0.2200000000	0.0501081251
0.2250000000	0.0506365052
0.2300000000	0.0511192548
0.2350000000	0.0515570799
0.2400000000	0.0519503398
0.2450000000	0.0522989843
0.2500000000	0.0526025045
0.2550000000	0.0528598050
0.2600000000	0.0530691819
0.2650000000	0.0532281019
0.2700000000	0.0533331227
0.2750000000	0.0533796338
0.2800000000	0.0533616234
0.2850000000	0.0532713320
0.2900000000	0.0530988350
0.2950000000	0.0528314869
0.3000000000	0.0524531481
0.3050000000	0.0519432505
0.3100000000	0.0512754500
0.3150000000	0.0542952306
0.3200000000	0.0578814312
0.3250000000	0.0624204113
0.3300000000	0.0685047398
0.3350000000	0.0760759245
0.3400000000	0.0859901541
0.3450000000	0.0980044667
0.3500000000	0.1137146708
0.3550000000	0.1344913062
0.3600000000	0.1615982643
0.3650000000	0.1993687638
0.3700000000	0.2491214799
0.3750000000	0.3182741883
0.3800000000	0.4182128528
0.3850000000	0.5738346529
0.3900000000	0.8194869658
0.3950000000	1.2364317130
0.4000000000	2.0307088244
0.4050000000	3.8102013661
0.4100000000	8.6620555338
0.4150000000	27.7716919068
0.4200000000	17.7063630256
0.4250000000	-33.2357435432
0.4300000000	9.2238825445
0.4350000000	5.7404287362
0.4400000000	3.5039049719
0.4450000000	2.3009159525
0.4500000000	1.6088665290
0.4550000000	1.1832580327
0.4600000000	0.9062277741
0.4650000000	0.7175509673
0.4700000000	0.5842598305
0.4750000000	0.4878934581
0.4800000000	0.4164601832
0.4850000000	0.3627082123
0.4900000000	0.3216670525
0.4950000000	0.2900014548
0.5000000000	0.2654312671
0.5050000000	0.2462853214
0.5100000000	0.2314856843
0.5150000000	0.2202379772
0.5200000000	0.2117171439
0.5250000000	0.2055468924
0.5300000000	0.2013271661
0.5350000000	0.1987641168
0.5400000000	0.1976408120
0.5450000000	0.1977761182
0.5500000000	0.1991091192
0.5550000000	0.2015365707
0.5600000000	0.2050034493
0.5650000000	0.2094834562
0.5700000000	0.2149512264
0.5750000000	0.2214441203
0.5800000000	0.2290225977
0.5850000000	0.2377253100
0.5900000000	0.2476298308
0.5950000000	0.2588354925
0.6000000000	0.2714683592
0.6050000000	0.2857144391
0.6100000000	0.3017488335
0.6150000000	0.3198127184
0.6200000000	0.3402280637
0.6250000000	0.3633032149
0.6300000000	0.3894948779
0.6350000000	0.4193720895
0.6400000000	0.4535261794
0.6450000000	0.4928121456
0.6500000000	0.5383532585
0.6550000000	0.5913181471
0.6600000000	0.6535045838
0.6650000000	0.7272168364
0.6700000000	0.8151634299
0.6750000000	0.9214768218
0.6800000000	1.0517115603
0.6850000000	1.2131412484
0.6900000000	1.4170307640
0.6950000000	1.6791313943
0.7000000000	2.0244597457
0.7050000000	2.4912497015
0.7100000000	3.1442716176
0.7150000000	4.0988080180
0.7200000000	5.5694194669
0.7250000000	8.0095697977
0.7300000000	12.4866958086
0.7350000000	22.0624916664
0.7400000000	48.3131730483
0.7450000000	160.1507574413
0.7500000000	495.7532085389
0.7550000000	124.6180655920
0.7600000000	41.2376123496
0.7650000000	19.7428850432
0.7700000000	11.4725298337
0.7750000000	7.4817694861
0.7800000000	5.2609871254
0.7850000000	3.9041767870
0.7900000000	3.0138468814
0.7950000000	2.4000400947
0.8000000000	1.9589610938
0.8050000000	1.6305776307
0.8100000000	1.3802583546
0.8150000000	1.1819125379
0.8200000000	1.0254237627
0.8250000000	0.8994616475
0.8300000000	0.7963149026
0.8350000000	0.7115303206
0.8400000000	0.6404769201
0.8450000000	0.5808675764
0.8500000000	0.5304867750
0.8550000000	0.4870231414
0.8600000000	0.4499214219
0.8650000000	0.4182258762
0.8700000000	0.3902281577
0.8750000000	0.3664010119
0.8800000000	0.3461674597
0.8850000000	0.3280287167
0.8900000000	0.3134428158
0.8950000000	0.3001751000
0.9000000000	0.2896203923
0.9050000000	0.2822775831
0.9100000000	0.2755436119
0.9150000000	0.2713666190
0.9200000000	0.2706432618
0.9250000000	0.2700570444
0.9300000000	0.2659126441
0.9350000000	0.2539699821
0.9400000000	0.1883496998
0.9450000000	-0.1090834560
0.9500000000	-1.6770300044
0.9550000000	-9.6237059174
0.9600000000	2.2697767364
0.9650000000	3.9838702943
0.9700000000	1.7661571666
0.9750000000	0.9270732003
0.9800000000	0.5811024092
0.9850000000	0.4193342157
0.9900000000	0.3261712616
0.9950000000	0.2696963501
1.0000000000	0.2336416694
1.0050000000	0.2107732329
1.0100000000	0.1930619064
1.0150000000	0.1801280338
1.0200000000	0.1714108508
1.0250000000	0.1641104267
1.0300000000	0.1585739291
1.0350000000	0.1543973422
1.0400000000	0.1517506168
1.0450000000	0.1495706002
1.0500000000	0.1481565389
1.0550000000	0.1474222800
1.0600000000	0.1475580857
1.0650000000	0.1480336942
1.0700000000	0.1490667542
1.0750000000	0.1506618001
1.0800000000	0.1529625167
1.0850000000	0.1558801353
1.0900000000	0.1601562695
1.0950000000	0.1652279909
1.1000000000	0.1712601254
1.1050000000	0.1782241058
1.1100000000	0.1863335169
1.1150000000	0.1957725879
1.1200000000	0.2067528805
1.1250000000	0.2195804398
1.1300000000	0.2346306075
1.1350000000	0.2523824112
1.1400000000	0.2733737039
1.1450000000	0.2986182695
1.1500000000	0.3291922681
1.1550000000	0.3666634393
1.1600000000	0.4132437478
1.1650000000	0.4717956733
1.1700000000	0.5477168916
1.1750000000	0.6481416082
1.1800000000	0.7848748067
1.1850000000	0.9773285546
1.1900000000	1.2620455155
1.1950000000	1.7092805378
1.2000000000	2.4681540719
1.2050000000	3.9025039053
1.2100000000	7.0577862003
1.2150000000	15.5841948165
1.2200000000	38.2521520890
1.2250000000	34.3343923247
1.2300000000	13.6645689880
1.2350000000	6.3843209267
1.2400000000	3.6262924601
1.2450000000	2.3585284799
1.2500000000	1.6879893104
1.2550000000	1.2989859140
1.2600000000	1.0599492071
1.2650000000	0.9075358296
1.2700000000	0.8131410025
1.2750000000	0.7581720549
1.2800000000	0.7334861217
1.2850000000	0.7347061257
1.2900000000	0.7607097762
1.2950000000	0.8126426119
1.3000000000	0.8974797853
1.3050000000	1.0240471803
1.3100000000	1.2093578313
1.3150000000	1.4829905625
1.3200000000	1.8983406189
1.3250000000	2.5570189960
1.3300000000	3.6822888652
1.3350000000	5.7910776422
1.3400000000	10.2985310423
1.3450000000	21.4857749611
1.3500000000	45.5495472609
1.3550000000	42.4527996133
1.3600000000	19.5698039167
1.3650000000	9.6143796103
1.3700000000	5.5142136789
1.3750000000	3.5469020679
1.3800000000	2.4742849238
1.3850000000	1.8280776839
1.3900000000	1.4114037690
1.3950000000	1.1269724140
1.4000000000	0.9243585967
1.4050000000	0.7751670029
1.4100000000	0.6620468659
1.4150000000	0.5743717416
1.4200000000	0.5042340246
1.4250000000	0.4480570687
1.4300000000	0.4026105735
1.4350000000	0.3564013775
1.4400000000	0.2101067486
1.4450000000	-0.1687500384
1.4500000000	-0.8618229246
1.4550000000	-0.3129987238
1.4600000000	0.7863398146
1.4650000000	0.4785086139
1.4700000000	-0.2041922581
1.4750000000	-1.2478357310
1.4800000000	-0.5439056570
1.4850000000	0.9795543548
1.4900000000	0.7924688406
1.4950000000	0.5163480232
1.5000000000	0.3652104990
1.5050000000	0.2831076295
1.5100000000	0.2360388008
1.5150000000	0.2070676600
1.5200000000	0.1880112584
1.5250000000	0.1758818568
1.5300000000	0.1662454405
1.5350000000	0.1591926616
1.5400000000	0.1540276756
1.5450000000	0.1503254316
1.5500000000	0.1478072033
1.5550000000	0.1463320941
1.5600000000	0.1461371988
1.5650000000	0.1466787784
1.5700000000	0.1484524830
1.5750000000	0.1517959822
1.5800000000	0.1573942569
1.5850000000	0.1665963579
1.5900000000	0.1822474549
1.5950000000	0.2105997118
1.6000000000	0.2646819794
1.6050000000	0.3522352227
1.6100000000	0.3910726106
1.6150000000	0.3158458241
1.6200000000	0.2478257726
1.6250000000	0.2140910913
1.6300000000	0.1993427615
1.6350000000	0.1940643743
1.6400000000	0.1939945059
1.6450000000	0.1972055977
1.6500000000	0.2027874965
1.6550000000	0.2103598688
1.6600000000	0.2197752593
1.6650000000	0.2310506181
1.6700000000	0.2443139056
1.6750000000	0.2597878770
1.6800000000	0.2777887806
1.6850000000	0.2987376259
1.6900000000	0.3231745894
1.6950000000	0.3516130145
1.7000000000	0.3851362436
1.7050000000	0.4257194657
1.7100000000	0.4757046319
1.7150000000	0.5466743673
1.7200000000	0.6450182784
1.7250000000	0.7642306483
1.7300000000	0.9139476675
1.7350000000	1.0739376051
1.7400000000	1.2151842546
1.7450000000	1.3908277171
1.7500000000	1.6633279605
1.7550000000	2.0746825065
1.7600000000	2.6932384827
1.7650000000	3.6480892450
1.7700000000	5.1861969031
1.7750000000	7.7759839434
1.7800000000	12.1846146326
1.7850000000	18.6758757542
1.7900000000	23.1767741353
1.7950000000	19.7041662916
1.8000000000	13.0896147034
1.8050000000	8.2487415977
1.8100000000	5.4251049874
1.8150000000	3.7711293032
1.8200000000	2.7535679651
1.8250000000	2.0938151674
1.8300000000	1.6455593123
1.8350000000	1.3286775267
1.8400000000	1.0971927074
1.8450000000	0.9231570478
1.8500000000	0.7889328762
1.8550000000	0.6834548325
1.8600000000	0.5988981532
1.8650000000	0.5298556186
1.8700000000	0.4723353208
1.8750000000	0.4232074419
1.8800000000	0.3797199386
1.8850000000	0.3390817832
1.8900000000	0.2977460330
1.8950000000	0.2503193896
1.9000000000	0.1877252530
1.9050000000	0.0811859904
1.9100000000	-0.0735165278
1.9150000000	-0.2401292799
1.9200000000	-0.1656260909
1.9250000000	0.3211441536
1.9300000000	0.7121370976
1.9350000000	0.7438700943
1.9400000000	0.6131892569
1.9450000000	0.4811482936
1.9500000000	0.3862072293
1.9550000000	0.3225083366
1.9600000000	0.2795314583
1.9650000000	0.2510785113
1.9700000000	0.2295318067
1.9750000000	0.2137182788
1.9800000000	0.2018074710
1.9850000000	0.1925063162
1.9900000000	0.1848933783
1.9950000000	0.1782222534
2.0000000000	0.1723129179
2.0050000000	0.1693018758
2.0100000000	0.1720640744
2.0150000000	0.1786683191
2.0200000000	0.1838668062
2.0250000000	0.1874110771
2.0300000000	0.1911951685
2.0350000000	0.1960361795
2.0400000000	0.2025576354
2.0450000000	0.2111654182
2.0500000000	0.2223474562
2.0550000000	0.2365985885
2.0600000000	0.2539423864
2.0650000000	0.2727311610
2.0700000000	0.2888772815
2.0750000000	0.2991342333
2.0800000000	0.3057183629
2.0850000000	0.3135797669
2.0900000000	0.3257828577
2.0950000000	0.3432642684
2.1000000000	0.3665278026
2.1050000000	0.3950413243
2.1100000000	0.4307942162
2.1150000000	0.4751675298
2.1200000000	0.5302109420
2.1250000000	0.5988708886
2.1300000000	0.6853485443
2.1350000000	0.7956696539
2.1400000000	0.9385442050
2.1450000000	1.1267034445
2.1500000000	1.3786804305
2.1550000000	1.7206700474
2.1600000000	2.1861640020
2.1650000000	2.8034851537
2.1700000000	3.5619050480
2.1750000000	4.3188152494
2.1800000000	4.7973856291
2.1850000000	4.8512615996
2.1900000000	4.6865160269
2.1950000000	4.5771424156
2.2000000000	4.5456450855
2.2050000000	4.3270291323
2.2100000000	3.8101989677
2.2150000000	3.1537102817
2.2200000000	2.5530434560
2.2250000000	2.0719451781
2.2300000000	1.6932817675
2.2350000000	1.3925217195
2.2400000000	1.1539025289
2.2450000000	0.9676558249
2.2500000000	0.8224055050
2.2550000000	0.7078045481
2.2600000000	0.6152161986
2.2650000000	0.5374545436
2.2700000000	0.4684818204
2.2750000000	0.4040603890
2.2800000000	0.3444900991
2.2850000000	0.2972495272
2.2900000000	0.2734163057
2.2950000000	0.2768085112
2.3000000000	0.2964983491
2.3050000000	0.3157407759
2.3100000000	0.3240465449
2.3150000000	0.3219481708
2.3200000000	0.3140381548
2.3250000000	0.3050048283
2.3300000000	0.2973817550
2.3350000000	0.2920470474
2.3400000000	0.2888188403
2.3450000000	0.2867572537
2.3500000000	0.2846074553
2.3550000000	0.2815670053
2.3600000000	0.2778584555
2.3650000000	0.2744550995
2.3700000000	0.2723218272
2.3750000000	0.2719301573
2.3800000000	0.2732000979
2.3850000000	0.2756478728
2.3900000000	0.2787345451
2.3950000000	0.2819991861
2.4000000000	0.2857169097
2.4050000000	0.2909126257
2.4100000000	0.2981073479
2.4150000000	0.3079617272
2.4200000000	0.3209251040
2.4250000000	0.3374062693
2.4300000000	0.3578637562
2.4350000000	0.3828723178
2.4400000000	0.4131714541
2.4450000000	0.4497152225
2.4500000000	0.4937178537
2.4550000000	0.5467155133
2.4600000000	0.6106051163
2.4650000000	0.6876818782
2.4700000000	0.7806044527
2.4750000000	0.8920791365
2.4800000000	1.0250332131
2.4850000000	1.1807829927
2.4900000000	1.3580393892
2.4950000000	1.5503911040
2.5000000000	1.7435948388
2.5050000000	1.9221614335
2.5100000000	2.0375202336
2.5150000000	2.0627758021
2.5200000000	1.9944504966
2.5250000000	1.8539219057
2.5300000000	1.6737132779
2.5350000000	1.4823520983
2.5400000000	1.2979074939
2.5450000000	1.1293099755
2.5500000000	0.9798966221
2.5550000000	0.8500914216
2.5600000000	0.7380110872
2.5650000000	0.6434099323
2.5700000000	0.5644003815
2.5750000000	0.4998651449
2.5800000000	0.4489316293
2.5850000000	0.4105188335
2.5900000000	0.3826752766
2.5950000000	0.3625758578
2.6000000000	0.3472657234
2.6050000000	0.3363463133
2.6100000000	0.3265417275
2.6150000000	0.3177313903
2.6200000000	0.3101354624
2.6250000000	0.3039703974
2.6300000000	0.2993668939
2.6350000000	0.2963816187
2.6400000000	0.2950443004
2.6450000000	0.2953885237
2.6500000000	0.2974864025
2.6550000000	0.3013500712
2.6600000000	0.3070808966
2.6650000000	0.3147684249
2.6700000000	0.3245181665
2.6750000000	0.3364553069
2.6800000000	0.3507191745
2.6850000000	0.3674619393
2.6900000000	0.3868306507
2.6950000000	0.4089585918
2.7000000000	0.4339380915
2.7050000000	0.4647770102
2.7100000000	0.4993412480
2.7150000000	0.5373935079
2.7200000000	0.5784209138
2.7250000000	0.6215690958
2.7300000000	0.6655815303
2.7350000000	0.7087463434
2.7400000000	0.7488685315
2.7450000000	0.7836309234
2.7500000000	0.8096698122
2.7550000000	0.8246747349
2.7600000000	0.8269104168
2.7650000000	0.8159304952
2.7700000000	0.7927350148
2.7750000000	0.7595678170
2.7800000000	0.7194047997
2.7850000000	0.6754118078
2.7900000000	0.6304170415
2.7950000000	0.5866848117
2.8000000000	0.5458122636
2.8050000000	0.5042510639
2.8100000000	0.4683737776
2.8150000000	0.4380985649
2.8200000000	0.4129495436
2.8250000000	0.3922942353
2.8300000000	0.3754981706
2.8350000000	0.3620206129
2.8400000000	0.3512867239
2.8450000000	0.3433352237
2.8500000000	0.3377448410
2.8550000000	0.3343586103
2.8600000000	0.3330654866
2.8650000000	0.3337777411
2.8700000000	0.3364172776
2.8750000000	0.3409041784
2.8800000000	0.3471459878
2.8850000000	0.3550277481
2.8900000000	0.3644079213
2.8950000000	0.3751136410
2.9000000000	0.3869398668
2.9050000000	0.4024749636
2.9100000000	0.4184245353
2.9150000000	0.4341734997
2.9200000000	0.4489822115
2.9250000000	0.4619930703
2.9300000000	0.4724000496
2.9350000000	0.4791300752
2.9400000000	0.4816456414
2.9450000000	0.4796715072
2.9500000000	0.4733696935
2.9550000000	0.4633151215
2.9600000000	0.4503834492
2.9650000000	0.4355905288
2.9700000000	0.4199332051
2.9750000000	0.4042764010
2.9800000000	0.3892909092
2.9850000000	0.3754446788
2.9900000000	0.3630256784
2.9950000000	0.3521805937
3.0000000000	0.3429567193
