# energy (eV)    P(omega), $W$ = 300 nm, $h$ = 300 nm, $s$ = 20 nm, $d/W = 5$, $E_{\rm e}$ = 200 keV
0.2000000000	0.0615841821
0.2050000000	0.0625074411
0.2100000000	0.0633711360
0.2150000000	0.0641772035
0.2200000000	0.0649272812
0.2250000000	0.0656227665
0.2300000000	0.0662647186
0.2350000000	0.0668538399
0.2400000000	0.0673903804
0.2450000000	0.0678741241
0.2500000000	0.0683042631
0.2550000000	0.0686792736
0.2600000000	0.0689968796
0.2650000000	0.0692537753
0.2700000000	0.0694454918
0.2750000000	0.0695661078
0.2800000000	0.0696079412
0.2850000000	0.0695611221
0.2900000000	0.0694130036
0.2950000000	0.0691475478
0.3000000000	0.0687442632
0.3050000000	0.0681770412
0.3100000000	0.0674124547
0.3150000000	0.0712385981
0.3200000000	0.0757826029
0.3250000000	0.0815294963
0.3300000000	0.0892252280
0.3350000000	0.0988046066
0.3400000000	0.1113489063
0.3450000000	0.1265648571
0.3500000000	0.1464702174
0.3550000000	0.1728090884
0.3600000000	0.2072007159
0.3650000000	0.2551471744
0.3700000000	0.3183708609
0.3750000000	0.4063203050
0.3800000000	0.5335243005
0.3850000000	0.7317379744
0.3900000000	1.0448834772
0.3950000000	1.5768184775
0.4000000000	2.5909117688
0.4050000000	4.8645680024
0.4100000000	11.0687765028
0.4150000000	35.5245132055
0.4200000000	22.6340442776
0.4250000000	-42.6096012572
0.4300000000	11.8498131412
0.4350000000	7.3848391239
0.4400000000	4.5147051726
0.4450000000	2.9696798071
0.4500000000	2.0802134742
0.4550000000	1.5328223870
0.4600000000	1.1762984035
0.4650000000	0.9333402753
0.4700000000	0.7616170106
0.4750000000	0.6374201998
0.4800000000	0.5453371137
0.4850000000	0.4760465748
0.4900000000	0.4231555787
0.4950000000	0.3823724055
0.5000000000	0.3507635448
0.5050000000	0.3261766016
0.5100000000	0.3072256507
0.5150000000	0.2928904732
0.5200000000	0.2821043568
0.5250000000	0.2743869269
0.5300000000	0.2692223464
0.5350000000	0.2662334726
0.5400000000	0.2651422769
0.5450000000	0.2657164546
0.5500000000	0.2678827695
0.5550000000	0.2715103361
0.5600000000	0.2765324355
0.5650000000	0.2829192016
0.5700000000	0.2906435186
0.5750000000	0.2997594250
0.5800000000	0.3103547195
0.5850000000	0.3224868161
0.5900000000	0.3362666753
0.5950000000	0.3518338308
0.6000000000	0.3693660364
0.6050000000	0.3891207217
0.6100000000	0.4113436549
0.6150000000	0.4363704734
0.6200000000	0.4646488652
0.6250000000	0.4966081126
0.6300000000	0.5328826435
0.6350000000	0.5742631838
0.6400000000	0.6215725638
0.6450000000	0.6759983565
0.6500000000	0.7391020658
0.6550000000	0.8125092867
0.6600000000	0.8987181910
0.6650000000	1.0009346517
0.6700000000	1.1229273551
0.6750000000	1.2704436967
0.6800000000	1.4512119504
0.6850000000	1.6753571433
0.6900000000	1.9585606614
0.6950000000	2.3227549454
0.7000000000	2.8027790231
0.7050000000	3.4518941766
0.7100000000	4.3603454681
0.7150000000	5.6887808145
0.7200000000	7.7362811990
0.7250000000	11.1350649445
0.7300000000	17.3736965564
0.7350000000	30.7228450876
0.7400000000	67.3340588869
0.7450000000	223.3887711831
0.7500000000	692.0881045806
0.7550000000	174.1168955198
0.7600000000	57.6658414773
0.7650000000	27.6313037476
0.7700000000	16.0700258443
0.7750000000	10.4888695521
0.7800000000	7.3817521332
0.7850000000	5.4826467139
0.7900000000	4.2359572300
0.7950000000	3.3761267575
0.8000000000	2.7580139704
0.8050000000	2.2976491100
0.8100000000	1.9465886091
0.8150000000	1.6682909673
0.8200000000	1.4486472311
0.8250000000	1.2717894700
0.8300000000	1.1269128931
0.8350000000	1.0077959335
0.8400000000	0.9079396099
0.8450000000	0.8241463129
0.8500000000	0.7533163198
0.8550000000	0.6921920506
0.8600000000	0.6400121253
0.8650000000	0.5954418782
0.8700000000	0.5560598598
0.8750000000	0.5225605546
0.8800000000	0.4941366711
0.8850000000	0.4686529862
0.8900000000	0.4482131797
0.8950000000	0.4296191951
0.9000000000	0.4148855711
0.9050000000	0.4047440441
0.9100000000	0.3954507181
0.9150000000	0.3898207334
0.9200000000	0.3891602322
0.9250000000	0.3886744942
0.9300000000	0.3829879180
0.9350000000	0.3658855136
0.9400000000	0.2705347920
0.9450000000	-0.1629290890
0.9500000000	-2.4506318105
0.9550000000	-14.0546871582
0.9600000000	3.3164468056
0.9650000000	5.8260910164
0.9700000000	2.5841413066
0.9750000000	1.3566145657
0.9800000000	0.8501991168
0.9850000000	0.6133446799
0.9900000000	0.4768716639
0.9950000000	0.3941168857
1.0000000000	0.3412776998
1.0050000000	0.3077799602
1.0100000000	0.2818099805
1.0150000000	0.2628371909
1.0200000000	0.2500586865
1.0250000000	0.2393321361
1.0300000000	0.2311830656
1.0350000000	0.2250179039
1.0400000000	0.2210983320
1.0450000000	0.2178381334
1.0500000000	0.2156865825
1.0550000000	0.2145163652
1.0600000000	0.2146155006
1.0650000000	0.2151823779
1.0700000000	0.2165437399
1.0750000000	0.2187053035
1.0800000000	0.2218813919
1.0850000000	0.2259117617
1.0900000000	0.2318580198
1.0950000000	0.2389198029
1.1000000000	0.2473343510
1.1050000000	0.2570316274
1.1100000000	0.2683183559
1.1150000000	0.2814481933
1.1200000000	0.2967223161
1.1250000000	0.3145326122
1.1300000000	0.3354060854
1.1350000000	0.3599980890
1.1400000000	0.3890553886
1.1450000000	0.4239394442
1.1500000000	0.4661322247
1.1550000000	0.5177754541
1.1600000000	0.5818907585
1.1650000000	0.6623994259
1.1700000000	0.7666447956
1.1750000000	0.9043776132
1.1800000000	1.0917159769
1.1850000000	1.3551550581
1.1900000000	1.7446305940
1.1950000000	2.3560177285
1.2000000000	3.3930094908
1.2050000000	5.3526509978
1.2100000000	9.6635073556
1.2150000000	21.3159561431
1.2200000000	52.3142613057
1.2250000000	47.0036999797
1.2300000000	18.7514855877
1.2350000000	8.7961965213
1.2400000000	5.0253616388
1.2450000000	3.2940442399
1.2500000000	2.3807882142
1.2550000000	1.8538325036
1.2600000000	1.5332984473
1.2650000000	1.3326644374
1.2700000000	1.2132193603
1.2750000000	1.1498647857
1.2800000000	1.1306704415
1.2850000000	1.1504463317
1.2900000000	1.2088169383
1.2950000000	1.3088282519
1.3000000000	1.4627995307
1.3050000000	1.6865331225
1.3100000000	2.0094611937
1.3150000000	2.4825009833
1.3200000000	3.1971766218
1.3250000000	4.3279380925
1.3300000000	6.2568158221
1.3350000000	9.8695786485
1.3400000000	17.5910911262
1.3450000000	36.7600258642
1.3500000000	78.0162436487
1.3550000000	72.7629267973
1.3600000000	33.5548628170
1.3650000000	16.4867792934
1.3700000000	9.4549475953
1.3750000000	6.0803465703
1.3800000000	4.2403249261
1.3850000000	3.1319176472
1.3900000000	2.4175430499
1.3950000000	1.9301527569
1.4000000000	1.5834748551
1.4050000000	1.3288640765
1.4100000000	1.1368656611
1.4150000000	0.9898939536
1.4200000000	0.8755596676
1.4250000000	0.7906309556
1.4300000000	0.7369700378
1.4350000000	0.7021237897
1.4400000000	0.4841140560
1.4450000000	-0.1207414447
1.4500000000	-1.1719131147
1.4550000000	-0.3905087320
1.4600000000	1.1958287806
1.4650000000	0.6916943783
1.4700000000	-0.4460049177
1.4750000000	-2.2474351214
1.4800000000	-0.9918719265
1.4850000000	1.6971472880
1.4900000000	1.3738960936
1.4950000000	0.8912528029
1.5000000000	0.6273874762
1.5050000000	0.4845506201
1.5100000000	0.4027853308
1.5150000000	0.3526526459
1.5200000000	0.3198138463
1.5250000000	0.2989646192
1.5300000000	0.2825312905
1.5350000000	0.2705863922
1.5400000000	0.2619241002
1.5450000000	0.2558247194
1.5500000000	0.2517890191
1.5550000000	0.2496073614
1.5600000000	0.2497028214
1.5650000000	0.2512049771
1.5700000000	0.2550240267
1.5750000000	0.2618648053
1.5800000000	0.2731347906
1.5850000000	0.2916073966
1.5900000000	0.3231519612
1.5950000000	0.3807466137
1.6000000000	0.4917521892
1.6050000000	0.6739740096
1.6100000000	0.7591555924
1.6150000000	0.6059556453
1.6200000000	0.4638449720
1.6250000000	0.3917006079
1.6300000000	0.3587187124
1.6350000000	0.3452861527
1.6400000000	0.3425187696
1.6450000000	0.3463547385
1.6500000000	0.3548179862
1.6550000000	0.3671039473
1.6600000000	0.3828038378
1.6650000000	0.4018699358
1.6700000000	0.4244658628
1.6750000000	0.4509205214
1.6800000000	0.4817113779
1.6850000000	0.5174749238
1.6900000000	0.5589487120
1.6950000000	0.6065591180
1.7000000000	0.6613528311
1.7050000000	0.7247309445
1.7100000000	0.8015515937
1.7150000000	0.9308207822
1.7200000000	1.1261088841
1.7250000000	1.3369824674
1.7300000000	1.5876037535
1.7350000000	1.8588311637
1.7400000000	2.1094115336
1.7450000000	2.4252767181
1.7500000000	2.9093782902
1.7550000000	3.6353958099
1.7600000000	4.7246155969
1.7650000000	6.4049922552
1.7700000000	9.1119010051
1.7750000000	13.6711747241
1.7800000000	21.4365080492
1.7850000000	32.8798363384
1.7900000000	40.8345503603
1.7950000000	34.7443918587
1.8000000000	23.1015640996
1.8050000000	14.5725162667
1.8100000000	9.5948744085
1.8150000000	6.6780422979
1.8200000000	4.8831045221
1.8250000000	3.7192260947
1.8300000000	2.9285583171
1.8350000000	2.3698697428
1.8400000000	1.9620972975
1.8450000000	1.6560057469
1.8500000000	1.4205331558
1.8550000000	1.2362042877
1.8600000000	1.0893223190
1.8650000000	0.9704725847
1.8700000000	0.8727959947
1.8750000000	0.7910328754
1.8800000000	0.7207078996
1.8850000000	0.6574596518
1.8900000000	0.5958924933
1.8950000000	0.5278325230
1.9000000000	0.4394285228
1.9050000000	0.2854640582
1.9100000000	0.0643951518
1.9150000000	-0.1480905726
1.9200000000	0.1111096635
1.9250000000	1.1442155002
1.9300000000	1.9694816449
1.9350000000	1.9875480553
1.9400000000	1.5952356030
1.9450000000	1.2087502041
1.9500000000	0.9348414712
1.9550000000	0.7536774658
1.9600000000	0.6329604740
1.9650000000	0.5525192483
1.9700000000	0.4933141477
1.9750000000	0.4499005156
1.9800000000	0.4169487097
1.9850000000	0.3906365321
1.9900000000	0.3681180821
1.9950000000	0.3469805542
2.0000000000	0.3267911099
2.0050000000	0.3147795208
2.0100000000	0.3228465915
2.0150000000	0.3438879300
2.0200000000	0.3580907328
2.0250000000	0.3642410960
2.0300000000	0.3689113535
2.0350000000	0.3751427138
2.0400000000	0.3844098947
2.0450000000	0.3973352328
2.0500000000	0.4145495345
2.0550000000	0.4366799568
2.0600000000	0.4637630174
2.0650000000	0.4936480073
2.0700000000	0.5209797773
2.0750000000	0.5415782525
2.0800000000	0.5585583698
2.0850000000	0.5786848673
2.0900000000	0.6062637442
2.0950000000	0.6427921439
2.1000000000	0.6894244510
2.1050000000	0.7454644267
2.1100000000	0.8148160632
2.1150000000	0.9002795188
2.1200000000	1.0058790182
2.1250000000	1.1373242801
2.1300000000	1.3027037288
2.1350000000	1.5135903600
2.1400000000	1.7866977665
2.1450000000	2.1464557626
2.1500000000	2.6284414161
2.1550000000	3.2829739924
2.1600000000	4.1744358178
2.1650000000	5.3573924851
2.1700000000	6.8110582276
2.1750000000	8.2606178059
2.1800000000	9.1709869517
2.1850000000	9.2563116903
2.1900000000	8.9106340743
2.1950000000	8.6653584148
2.2000000000	8.5797069395
2.2050000000	8.1768412423
2.2100000000	7.2526798795
2.2150000000	6.0898872936
2.2200000000	5.0322913932
2.2250000000	4.1752092021
2.2300000000	3.4712866294
2.2350000000	2.8818726488
2.2400000000	2.3977666404
2.2450000000	2.0154611097
2.2500000000	1.7192025000
2.2550000000	1.4899434463
2.2600000000	1.3100370830
2.2650000000	1.1635675882
2.2700000000	1.0354606148
2.2750000000	0.9129664846
2.2800000000	0.7931068968
2.2850000000	0.6905093755
2.2900000000	0.6301128281
2.2950000000	0.6231126069
2.3000000000	0.6502886541
2.3050000000	0.6789491799
2.3100000000	0.6890539624
2.3150000000	0.6812283088
2.3200000000	0.6641340819
2.3250000000	0.6466748368
2.3300000000	0.6335775933
2.3350000000	0.6262209070
2.3400000000	0.6235646736
2.3450000000	0.6225850444
2.3500000000	0.6193876609
2.3550000000	0.6114846381
2.3600000000	0.5995642647
2.3650000000	0.5866612769
2.3700000000	0.5758604629
2.3750000000	0.5688769808
2.3800000000	0.5659875577
2.3850000000	0.5665057021
2.3900000000	0.5695541594
2.3950000000	0.5742913356
2.4000000000	0.5811358490
2.4050000000	0.5918682053
2.4100000000	0.6072423547
2.4150000000	0.6283020869
2.4200000000	0.6557681445
2.4250000000	0.6904136450
2.4300000000	0.7331881571
2.4350000000	0.7853092059
2.4400000000	0.8483433310
2.4450000000	0.9242989909
2.4500000000	1.0157215717
2.4550000000	1.1258233682
2.4600000000	1.2585526466
2.4650000000	1.4186706685
2.4700000000	1.6116542697
2.4750000000	1.8430265504
2.4800000000	2.1186134592
2.4850000000	2.4408325710
2.4900000000	2.8066601678
2.4950000000	3.2027476623
2.5000000000	3.6002866429
2.5050000000	3.9687296542
2.5100000000	4.2103200967
2.5150000000	4.2702212492
2.5200000000	4.1392611096
2.5250000000	3.8580522120
2.5300000000	3.4911361084
2.5350000000	3.0970721977
2.5400000000	2.7145118709
2.5450000000	2.3636275133
2.5500000000	2.0525440070
2.5550000000	1.7826575056
2.5600000000	1.5501185457
2.5650000000	1.3540801821
2.5700000000	1.1903795751
2.5750000000	1.0565017466
2.5800000000	0.9505244712
2.5850000000	0.8701791389
2.5900000000	0.8114991952
2.5950000000	0.7687914440
2.6000000000	0.7361042397
2.6050000000	0.7127793711
2.6100000000	0.6920998020
2.6150000000	0.6737883600
2.6200000000	0.6582750965
2.6250000000	0.6460012428
2.6300000000	0.6372499297
2.6350000000	0.6321573383
2.6400000000	0.6307947280
2.6450000000	0.6332344320
2.6500000000	0.6396251126
2.6550000000	0.6499997132
2.6600000000	0.6645858027
2.6650000000	0.6835999807
2.6700000000	0.7072970651
2.6750000000	0.7359753851
2.6800000000	0.7699540262
2.6850000000	0.8095587127
2.6900000000	0.8550777429
2.6950000000	0.9067317011
2.7000000000	0.9646009397
2.7050000000	1.0354559168
2.7100000000	1.1139080016
2.7150000000	1.1989990343
2.7200000000	1.2891192551
2.7250000000	1.3819802939
2.7300000000	1.4746209564
2.7350000000	1.5634180154
2.7400000000	1.6440622720
2.7450000000	1.7122544554
2.7500000000	1.7616094092
2.7550000000	1.7879006818
2.7600000000	1.7879364718
2.7650000000	1.7610135139
2.7700000000	1.7092756140
2.7750000000	1.6373519369
2.7800000000	1.5513525569
2.7850000000	1.4577765123
2.7900000000	1.3624463974
2.7950000000	1.2700295789
2.8000000000	1.1838287381
2.8050000000	1.0962687698
2.8100000000	1.0208940447
2.8150000000	0.9575363100
2.8200000000	0.9052062660
2.8250000000	0.8625883395
2.8300000000	0.8283554970
2.8350000000	0.8013784561
2.8400000000	0.7804554469
2.8450000000	0.7656602482
2.8500000000	0.7561096246
2.8550000000	0.7514699258
2.8600000000	0.7514950140
2.8650000000	0.7559753978
2.8700000000	0.7647075236
2.8750000000	0.7774586743
2.8800000000	0.7939439830
2.8850000000	0.8138031347
2.8900000000	0.8366067275
2.8950000000	0.8618443567
2.9000000000	0.8889563340
2.9050000000	0.9232357799
2.9100000000	0.9574931183
2.9150000000	0.9905054185
2.9200000000	1.0208694206
2.9250000000	1.0469652026
2.9300000000	1.0672845228
2.9350000000	1.0797102675
2.9400000000	1.0832346226
2.9450000000	1.0773647663
2.9500000000	1.0625027665
2.9550000000	1.0399130886
2.9600000000	1.0114756839
2.9650000000	0.9793546718
2.9700000000	0.9456678527
2.9750000000	0.9122405756
2.9800000000	0.8804845320
2.9850000000	0.8513753906
2.9900000000	0.8255147874
2.9950000000	0.8031938503
3.0000000000	0.7844972687
