# energy (eV)    P(omega), $W$ = 300 nm, $h$ = 300 nm, $s$ = 20 nm, $d/W = 5$, $E_{\rm e}$ = 200 keV
0.2000000000	0.0675065153
0.2050000000	0.0685187826
0.2100000000	0.0694659728
0.2150000000	0.0703501994
0.2200000000	0.0711732423
0.2250000000	0.0719366239
0.2300000000	0.0726414938
0.2350000000	0.0732886145
0.2400000000	0.0738782500
0.2450000000	0.0744101574
0.2500000000	0.0748834430
0.2550000000	0.0752964309
0.2600000000	0.0756466222
0.2650000000	0.0759303886
0.2700000000	0.0761428278
0.2750000000	0.0762774465
0.2800000000	0.0763258218
0.2850000000	0.0762771354
0.2900000000	0.0761175234
0.2950000000	0.0758294087
0.3000000000	0.0753903310
0.3050000000	0.0747716749
0.3100000000	0.0739368031
0.3150000000	0.0781301392
0.3200000000	0.0831102130
0.3250000000	0.0894084250
0.3300000000	0.0978421208
0.3350000000	0.1083401774
0.3400000000	0.1220874731
0.3450000000	0.1387631310
0.3500000000	0.1605783426
0.3550000000	0.1894448116
0.3600000000	0.2271377508
0.3650000000	0.2796875608
0.3700000000	0.3489836462
0.3750000000	0.4453828038
0.3800000000	0.5848113284
0.3850000000	0.8020783316
0.3900000000	1.1453339674
0.3950000000	1.7284315111
0.4000000000	2.8400884113
0.4050000000	5.3325459168
0.4100000000	12.1339772820
0.4150000000	38.9445299536
0.4200000000	24.8128893924
0.4250000000	-46.7151020630
0.4300000000	12.9923062382
0.4350000000	8.0971822252
0.4400000000	4.9504219983
0.4450000000	3.2564433155
0.4500000000	2.2812029123
0.4550000000	1.6810124659
0.4600000000	1.2900919733
0.4650000000	1.0236890063
0.4700000000	0.8353920556
0.4750000000	0.6992069622
0.4800000000	0.5982347069
0.4850000000	0.5222552136
0.4900000000	0.4642588079
0.4950000000	0.4195397329
0.5000000000	0.3848814844
0.5050000000	0.3579239635
0.5100000000	0.3371475513
0.5150000000	0.3214336791
0.5200000000	0.3096125532
0.5250000000	0.3011575744
0.5300000000	0.2955030921
0.5350000000	0.2922356143
0.5400000000	0.2910503265
0.5450000000	0.2916925197
0.5500000000	0.2940820672
0.5550000000	0.2980755036
0.5600000000	0.3035998001
0.5650000000	0.3106223326
0.5700000000	0.3191135377
0.5750000000	0.3291328632
0.5800000000	0.3407768677
0.5850000000	0.3541087687
0.5900000000	0.3692505589
0.5950000000	0.3863556046
0.6000000000	0.4056192871
0.6050000000	0.4273244353
0.6100000000	0.4517411656
0.6150000000	0.4792382821
0.6200000000	0.5103076932
0.6250000000	0.5454211136
0.6300000000	0.5852756307
0.6350000000	0.6307400667
0.6400000000	0.6827185663
0.6450000000	0.7425159772
0.6500000000	0.8118480417
0.6550000000	0.8925009875
0.6600000000	0.9872196805
0.6650000000	1.0995268082
0.6700000000	1.2335633470
0.6750000000	1.3956446648
0.6800000000	1.5942623802
0.6850000000	1.8405421436
0.6900000000	2.1517148532
0.6950000000	2.5518805425
0.7000000000	3.0793210842
0.7050000000	3.7925618923
0.7100000000	4.7907677161
0.7150000000	6.2504654264
0.7200000000	8.5003002445
0.7250000000	12.2349888009
0.7300000000	19.0902567709
0.7350000000	33.7590050806
0.7400000000	73.9897553779
0.7450000000	245.4746609906
0.7500000000	760.5279580291
0.7550000000	191.3388332398
0.7600000000	63.3708015295
0.7650000000	30.3654856596
0.7700000000	17.6605281833
0.7750000000	11.5272034372
0.7800000000	8.1126524305
0.7850000000	6.0256201682
0.7900000000	4.6555508812
0.7950000000	3.7106178299
0.8000000000	3.0313204735
0.8050000000	2.5253813873
0.8100000000	2.1395638967
0.8150000000	1.8337098912
0.8200000000	1.5923157518
0.8250000000	1.3979428287
0.8300000000	1.2387171338
0.8350000000	1.1078015259
0.8400000000	0.9980535064
0.8450000000	0.9059592290
0.8500000000	0.8281121874
0.8550000000	0.7609319091
0.8600000000	0.7035820508
0.8650000000	0.6545959162
0.8700000000	0.6113117643
0.8750000000	0.5744935436
0.8800000000	0.5432540505
0.8850000000	0.5152459523
0.8900000000	0.4927825047
0.8950000000	0.4723476012
0.9000000000	0.4561565366
0.9050000000	0.4450141984
0.9100000000	0.4348039514
0.9150000000	0.4286215219
0.9200000000	0.4279034581
0.9250000000	0.4273771601
0.9300000000	0.4211305514
0.9350000000	0.4023275128
0.9400000000	0.2974637332
0.9450000000	-0.1792756149
0.9500000000	-2.6954348322
0.9550000000	-15.4585156104
0.9600000000	3.6477213439
0.9650000000	6.4081756185
0.9700000000	2.8423460472
0.9750000000	1.4921672580
0.9800000000	0.9351462924
0.9850000000	0.6746220249
0.9900000000	0.5245095005
0.9950000000	0.4334835900
1.0000000000	0.3753632428
1.0050000000	0.3385179229
1.0100000000	0.3099522369
1.0150000000	0.2890830858
1.0200000000	0.2750276570
1.0250000000	0.2632288586
1.0300000000	0.2542650720
1.0350000000	0.2474833499
1.0400000000	0.2431717898
1.0450000000	0.2395850983
1.0500000000	0.2372176727
1.0550000000	0.2359294642
1.0600000000	0.2360374410
1.0650000000	0.2366594409
1.0700000000	0.2381550098
1.0750000000	0.2405304565
1.0800000000	0.2440215847
1.0850000000	0.2484516336
1.0900000000	0.2549879452
1.0950000000	0.2627505910
1.1000000000	0.2720004842
1.1050000000	0.2826601313
1.1100000000	0.2950668761
1.1150000000	0.3094994923
1.1200000000	0.3262891812
1.1250000000	0.3458661467
1.1300000000	0.3688097955
1.1350000000	0.3958403454
1.1400000000	0.4277786768
1.1450000000	0.4661205384
1.1500000000	0.5124947842
1.1550000000	0.5692550731
1.1600000000	0.6397220590
1.1650000000	0.7282053402
1.1700000000	0.8427743740
1.1750000000	0.9941451255
1.1800000000	1.2000305373
1.1850000000	1.4895479305
1.1900000000	1.9175756341
1.1950000000	2.5894761596
1.2000000000	3.7291034129
1.2050000000	5.8827001691
1.2100000000	10.6202400102
1.2150000000	23.4261422311
1.2200000000	57.4934173624
1.2250000000	51.6582063557
1.2300000000	20.6091852427
1.2350000000	9.6682520461
1.2400000000	5.5240707065
1.2450000000	3.6213625333
1.2500000000	2.6177352507
1.2550000000	2.0386785885
1.2600000000	1.6865044645
1.2650000000	1.4661258945
1.2700000000	1.3350057045
1.2750000000	1.2655651152
1.2800000000	1.2447020082
1.2850000000	1.2667250158
1.2900000000	1.3312402814
1.2950000000	1.4416186459
1.3000000000	1.6114445216
1.3050000000	1.8581446842
1.3100000000	2.2141646689
1.3150000000	2.7356317354
1.3200000000	3.5234301908
1.3250000000	4.7698536846
1.3300000000	6.8959943527
1.3350000000	10.8782026589
1.3400000000	19.3893193596
1.3450000000	40.5185336416
1.3500000000	85.9940547471
1.3550000000	80.2041702487
1.3600000000	36.9865713630
1.3650000000	18.1729246403
1.3700000000	10.4219137655
1.3750000000	6.7021680218
1.3800000000	4.6739515975
1.3850000000	3.4521788124
1.3900000000	2.6647425283
1.3950000000	2.1275071273
1.4000000000	1.7453795318
1.4050000000	1.4647393078
1.4100000000	1.2531222229
1.4150000000	1.0911498400
1.4200000000	0.9651763651
1.4250000000	0.8716653231
1.4300000000	0.8127370338
1.4350000000	0.7747348671
1.4400000000	0.5347880922
1.4450000000	-0.1313335049
1.4500000000	-1.2884159021
1.4550000000	-0.4288658885
1.4600000000	1.3163805909
1.4650000000	0.7609657398
1.4700000000	-0.4927118558
1.4750000000	-2.4784992514
1.4800000000	-1.0940030532
1.4850000000	1.8708606815
1.4900000000	1.5145242557
1.4950000000	0.9824198306
1.5000000000	0.6915154773
1.5050000000	0.5340447933
1.5100000000	0.4439018561
1.5150000000	0.3886322124
1.5200000000	0.3524272601
1.5250000000	0.3294381264
1.5300000000	0.3113164270
1.5350000000	0.2981409044
1.5400000000	0.2885817651
1.5450000000	0.2818450137
1.5500000000	0.2773790990
1.5550000000	0.2749516558
1.5600000000	0.2750268202
1.5650000000	0.2766419867
1.5700000000	0.2807949809
1.5750000000	0.2882535728
1.5800000000	0.3005526723
1.5850000000	0.3207176758
1.5900000000	0.3551521638
1.5950000000	0.4180168649
1.6000000000	0.5391704965
1.6050000000	0.7380677547
1.6100000000	0.8311448644
1.6150000000	0.6641070024
1.6200000000	0.5091305846
1.6250000000	0.4304946860
1.6300000000	0.3946021978
1.6350000000	0.3800560888
1.6400000000	0.3771639767
1.6450000000	0.3814953483
1.6500000000	0.3908951973
1.6550000000	0.4044893619
1.6600000000	0.4218341933
1.6650000000	0.4428813330
1.6700000000	0.4678138204
1.6750000000	0.4969959814
1.6800000000	0.5309551276
1.6850000000	0.5703938248
1.6900000000	0.6161252287
1.6950000000	0.6686187887
1.7000000000	0.7290275255
1.7050000000	0.7988930252
1.7100000000	0.8835793565
1.7150000000	1.0261441023
1.7200000000	1.2415309043
1.7250000000	1.4740126190
1.7300000000	1.7502653430
1.7350000000	2.0492626936
1.7400000000	2.3255818675
1.7450000000	2.6739174653
1.7500000000	3.2077363070
1.7550000000	4.0082789870
1.7600000000	5.2092876584
1.7650000000	7.0621183784
1.7700000000	10.0468359870
1.7750000000	15.0740461897
1.7800000000	23.6364105562
1.7850000000	36.2543854731
1.7900000000	45.0258633967
1.7950000000	38.3108990802
1.8000000000	25.4731372120
1.8050000000	16.0686391945
1.8100000000	10.5800443453
1.8150000000	7.3637850718
1.8200000000	5.3845815617
1.8250000000	4.1012172925
1.8300000000	3.2293764471
1.8350000000	2.6133303352
1.8400000000	2.1636944685
1.8450000000	1.8261797312
1.8500000000	1.5665355298
1.8550000000	1.3632873894
1.8600000000	1.2013329844
1.8650000000	1.0702915255
1.8700000000	0.9626003881
1.8750000000	0.8724609874
1.8800000000	0.7949399997
1.8850000000	0.7252303018
1.8900000000	0.6573856289
1.8950000000	0.5823977585
1.9000000000	0.4850012435
1.9050000000	0.3153570706
1.9100000000	0.0717845089
1.9150000000	-0.1622099797
1.9200000000	0.1241116578
1.9250000000	1.2640234865
1.9300000000	2.1746037290
1.9350000000	2.1943872976
1.9400000000	1.7611456950
1.9450000000	1.3343579902
1.9500000000	1.0318944525
1.9550000000	0.8318499879
1.9600000000	0.6985556468
1.9650000000	0.6097321311
1.9700000000	0.5443617462
1.9750000000	0.4964274628
1.9800000000	0.4600438547
1.9850000000	0.4309900802
1.9900000000	0.4061231209
1.9950000000	0.3827781050
2.0000000000	0.3604773182
2.0050000000	0.3472068559
2.0100000000	0.3561162590
2.0150000000	0.3793562901
2.0200000000	0.3950373533
2.0250000000	0.4018180543
2.0300000000	0.4069585878
2.0350000000	0.4138185444
2.0400000000	0.4240251872
2.0450000000	0.4382637306
2.0500000000	0.4572279422
2.0550000000	0.4816075259
2.0600000000	0.5114429434
2.0650000000	0.5443695330
2.0700000000	0.5744987292
2.0750000000	0.5972349072
2.0800000000	0.6160057346
2.0850000000	0.6382531820
2.0900000000	0.6687156934
2.0950000000	0.7090427536
2.1000000000	0.7605095800
2.1050000000	0.8223506578
2.1100000000	0.8988738894
2.1150000000	0.9931699915
2.1200000000	1.1096794231
2.1250000000	1.2547023171
2.1300000000	1.4371627214
2.1350000000	1.6698293451
2.1400000000	1.9711421667
2.1450000000	2.3680542751
2.1500000000	2.8998179504
2.1550000000	3.6219503207
2.1600000000	4.6054851424
2.1650000000	5.9106273098
2.1700000000	7.5144493782
2.1750000000	9.1137540285
2.1800000000	10.1181850788
2.1850000000	10.2123422940
2.1900000000	9.8309555887
2.1950000000	9.5603310680
2.2000000000	9.4658508354
2.2050000000	9.0214960914
2.2100000000	8.0021179579
2.2150000000	6.7195254972
2.2200000000	5.5529799227
2.2250000000	4.6075565445
2.2300000000	3.8309547270
2.2350000000	3.1805621066
2.2400000000	2.6463079573
2.2450000000	2.2243805717
2.2500000000	1.8974210131
2.2550000000	1.6444155761
2.2600000000	1.4458893006
2.2650000000	1.2842736494
2.2700000000	1.1429252899
2.2750000000	1.0077630885
2.2800000000	0.8754904145
2.2850000000	0.7622468717
2.2900000000	0.6955594833
2.2950000000	0.6877924497
2.3000000000	0.7177444521
2.3050000000	0.7493418274
2.3100000000	0.7604718137
2.3150000000	0.7518221579
2.3200000000	0.7329492227
2.3250000000	0.7136764913
2.3300000000	0.6992194984
2.3350000000	0.6910986253
2.3400000000	0.6881654424
2.3450000000	0.6870821516
2.3500000000	0.6835503207
2.3550000000	0.6748238979
2.3600000000	0.6616625922
2.3650000000	0.6474160903
2.3700000000	0.6354894607
2.3750000000	0.6277762166
2.3800000000	0.6245824978
2.3850000000	0.6251516142
2.3900000000	0.6285164336
2.3950000000	0.6337487325
2.4000000000	0.6413099878
2.4050000000	0.6531644874
2.4100000000	0.6701427266
2.4150000000	0.6933957417
2.4200000000	0.7237187991
2.4250000000	0.7619650895
2.4300000000	0.8091829045
2.4350000000	0.8667164158
2.4400000000	0.9362949402
2.4450000000	1.0201355177
2.4500000000	1.1210478013
2.4550000000	1.2425779310
2.4600000000	1.3890837136
2.4650000000	1.5658210007
2.4700000000	1.7788345498
2.4750000000	2.0342205533
2.4800000000	2.3384082292
2.4850000000	2.6940644641
2.4900000000	3.0978494841
2.4950000000	3.5350278505
2.5000000000	3.9738027630
2.5050000000	4.3804596870
2.5100000000	4.6471096139
2.5150000000	4.7132317171
2.5200000000	4.5687007754
2.5250000000	4.2583362234
2.5300000000	3.8533694824
2.5350000000	3.4184329907
2.5400000000	2.9961889860
2.5450000000	2.6089044780
2.5500000000	2.2655488666
2.5550000000	1.9676637657
2.5600000000	1.7110005121
2.5650000000	1.4946241084
2.5700000000	1.3139396060
2.5750000000	1.1661711065
2.5800000000	1.0491971541
2.5850000000	0.9605138492
2.5900000000	0.8957433480
2.5950000000	0.8486020709
2.6000000000	0.8125209590
2.6050000000	0.7867738174
2.6100000000	0.7639467711
2.6150000000	0.7437339636
2.6200000000	0.7266101811
2.6250000000	0.7130627165
2.6300000000	0.7034043361
2.6350000000	0.6977857040
2.6400000000	0.6962854290
2.6450000000	0.6989833102
2.6500000000	0.7060433672
2.6550000000	0.7175018135
2.6600000000	0.7336099237
2.6650000000	0.7546069214
2.6700000000	0.7807740790
2.6750000000	0.8124408824
2.6800000000	0.8499598081
2.6850000000	0.8936902347
2.6900000000	0.9439503267
2.6950000000	1.0009834792
2.7000000000	1.0648779916
2.7050000000	1.1431089216
2.7100000000	1.2297258996
2.7150000000	1.3236706669
2.7200000000	1.4231654312
2.7250000000	1.5256833316
2.7300000000	1.6279550351
2.7350000000	1.7259808912
2.7400000000	1.8150044577
2.7450000000	1.8902806151
2.7500000000	1.9447615937
2.7550000000	1.9737823977
2.7600000000	1.9738200370
2.7650000000	1.9440981391
2.7700000000	1.8869830869
2.7750000000	1.8075847421
2.7800000000	1.7126478390
2.7850000000	1.6093465974
2.7900000000	1.5041086144
2.7950000000	1.4020863783
2.8000000000	1.3069259293
2.8050000000	1.2102640831
2.8100000000	1.1270539826
2.8150000000	1.0571100966
2.8200000000	0.9993405058
2.8250000000	0.9522930210
2.8300000000	0.9145027456
2.8350000000	0.8847232352
2.8400000000	0.8616277879
2.8450000000	0.8452981744
2.8500000000	0.8347591542
2.8550000000	0.8296424822
2.8600000000	0.8296764353
2.8650000000	0.8346294454
2.8700000000	0.8442768332
2.8750000000	0.8583616243
2.8800000000	0.8765689351
2.8850000000	0.8985008240
2.8900000000	0.9236833633
2.8950000000	0.9515524799
2.9000000000	0.9814904866
2.9050000000	1.0193407730
2.9100000000	1.0571655800
2.9150000000	1.0936147305
2.9200000000	1.1271393269
2.9250000000	1.1559510208
2.9300000000	1.1783851167
2.9350000000	1.1921040221
2.9400000000	1.1959954757
2.9450000000	1.1895153848
2.9500000000	1.1731073922
2.9550000000	1.1481677333
2.9600000000	1.1167719342
2.9650000000	1.0813091082
2.9700000000	1.0441177256
2.9750000000	1.0072129833
2.9800000000	0.9721534838
2.9850000000	0.9400164578
2.9900000000	0.9114663793
2.9950000000	0.8868244914
3.0000000000	0.8661843774
