# energy (eV)    P(omega), $W$ = 400 nm, $h$ = 300 nm, $s$ = 20 nm, $d/W = 5$, $E_{\rm e}$ = 200 keV
0.2000000000	0.1145096001
0.2050000000	0.1155513830
0.2100000000	0.1162851287
0.2150000000	0.1166984789
0.2200000000	0.1167741573
0.2250000000	0.1164886951
0.2300000000	0.1158112187
0.2350000000	0.1147015300
0.2400000000	0.1131079400
0.2450000000	0.1109638274
0.2500000000	0.1081840250
0.2550000000	0.1046589451
0.2600000000	0.1002473738
0.2650000000	0.1048711712
0.2700000000	0.1166156818
0.2750000000	0.1334218903
0.2800000000	0.1568380220
0.2850000000	0.1913599205
0.2900000000	0.2341359119
0.2950000000	0.2954596546
0.3000000000	0.3778976133
0.3050000000	0.5042566072
0.3100000000	0.6802735011
0.3150000000	1.0208597049
0.3200000000	1.5527967479
0.3250000000	1.9170018093
0.3300000000	2.4208196914
0.3350000000	3.1350606545
0.3400000000	4.2562819952
0.3450000000	6.1799501115
0.3500000000	10.0159343557
0.3550000000	18.8958269249
0.3600000000	46.4394270014
0.3650000000	0.2092338975
0.3700000000	21.5237881325
0.3750000000	28.3032635456
0.3800000000	13.1885552465
0.3850000000	7.4293569184
0.3900000000	4.7653575329
0.3950000000	3.3581076448
0.4000000000	2.5433077766
0.4050000000	2.0121126984
0.4100000000	1.6662930024
0.4150000000	1.4382072917
0.4200000000	1.2940558942
0.4250000000	1.1808439493
0.4300000000	1.0470610618
0.4350000000	0.9411797776
0.4400000000	0.8574397627
0.4450000000	0.7908570395
0.4500000000	0.7382910376
0.4550000000	0.6966084942
0.4600000000	0.6640937411
0.4650000000	0.6389320510
0.4700000000	0.6199220792
0.4750000000	0.6062233111
0.4800000000	0.5971022706
0.4850000000	0.5919158036
0.4900000000	0.5902836031
0.4950000000	0.5919130709
0.5000000000	0.5965542580
0.5050000000	0.6040957788
0.5100000000	0.6144463955
0.5150000000	0.6275519462
0.5200000000	0.6434396515
0.5250000000	0.6621318885
0.5300000000	0.6839030395
0.5350000000	0.7088751801
0.5400000000	0.7372679978
0.5450000000	0.7693695661
0.5500000000	0.8055874791
0.5550000000	0.8463675340
0.5600000000	0.8922523842
0.5650000000	0.9439397425
0.5700000000	1.0023928289
0.5750000000	1.0683255593
0.5800000000	1.1430736847
0.5850000000	1.2284622331
0.5900000000	1.3257223571
0.5950000000	1.4374444210
0.6000000000	1.5670506732
0.6050000000	1.7171062183
0.6100000000	1.8934906457
0.6150000000	2.1010799784
0.6200000000	2.3482442305
0.6250000000	2.6469914353
0.6300000000	3.0095683376
0.6350000000	3.4589864967
0.6400000000	4.0206347046
0.6450000000	4.7405834272
0.6500000000	5.6776837989
0.6550000000	6.9316235417
0.6600000000	8.6707229597
0.6650000000	11.1609158960
0.6700000000	14.9316713783
0.6750000000	20.9944932263
0.6800000000	31.7117008537
0.6850000000	53.2165293170
0.6900000000	106.6550260228
0.6950000000	299.3982389253
0.7000000000	1452.1146475641
0.7050000000	705.9852087411
0.7100000000	181.3538730283
0.7150000000	77.1223441454
0.7200000000	42.1177546503
0.7250000000	26.4576405131
0.7300000000	18.1463966775
0.7350000000	13.2331930348
0.7400000000	10.0869470954
0.7450000000	7.9513936026
0.7500000000	6.4386034673
0.7550000000	5.3271976814
0.7600000000	4.4895039960
0.7650000000	3.8398828540
0.7700000000	3.3270721921
0.7750000000	2.9153802212
0.7800000000	2.5808246946
0.7850000000	2.3053517359
0.7900000000	2.0745688540
0.7950000000	1.8818224109
0.8000000000	1.7179356491
0.8050000000	1.5775263978
0.8100000000	1.4579958875
0.8150000000	1.3532321737
0.8200000000	1.2620240120
0.8250000000	1.1854845594
0.8300000000	1.1184871709
0.8350000000	1.0602426895
0.8400000000	1.0138600984
0.8450000000	0.9733889124
0.8500000000	0.9390738705
0.8550000000	0.9173848636
0.8600000000	0.9000120998
0.8650000000	0.8875738715
0.8700000000	0.8919084645
0.8750000000	0.8934284798
0.8800000000	0.8886219569
0.8850000000	0.8499844049
0.8900000000	0.6596077323
0.8950000000	-0.2944781444
0.9000000000	-5.4105733975
0.9050000000	-35.5513246743
0.9100000000	6.7696699728
0.9150000000	16.0361768820
0.9200000000	6.6569243530
0.9250000000	3.4631087748
0.9300000000	2.1139435192
0.9350000000	1.4693513384
0.9400000000	1.1216164941
0.9450000000	0.9288641246
0.9500000000	0.7919736168
0.9550000000	0.7003337865
0.9600000000	0.6436493178
0.9650000000	0.5968692623
0.9700000000	0.5634742782
0.9750000000	0.5406936253
0.9800000000	0.5267906471
0.9850000000	0.5241654166
0.9900000000	0.5290792549
0.9950000000	0.5492429832
1.0000000000	0.5975789313
1.0050000000	0.7105373748
1.0100000000	1.0066365424
1.0150000000	2.0215753105
1.0200000000	3.8797428338
1.0250000000	1.7653366811
1.0300000000	0.9055334586
1.0350000000	0.6492744598
1.0400000000	0.5485107680
1.0450000000	0.5012516803
1.0500000000	0.4775799418
1.0550000000	0.4651759566
1.0600000000	0.4596303502
1.0650000000	0.4586272701
1.0700000000	0.4608827405
1.0750000000	0.4659465035
1.0800000000	0.4729187655
1.0850000000	0.4823959468
1.0900000000	0.4960804631
1.0950000000	0.5120296045
1.1000000000	0.5304001325
1.1050000000	0.5512256788
1.1100000000	0.5748359221
1.1150000000	0.6015452231
1.1200000000	0.6317264724
1.1250000000	0.6656882030
1.1300000000	0.7043103851
1.1350000000	0.7481859032
1.1400000000	0.7982030028
1.1450000000	0.8554909078
1.1500000000	0.9209282171
1.1550000000	0.9972512786
1.1600000000	1.0861903364
1.1650000000	1.1900121994
1.1700000000	1.3091912993
1.1750000000	1.4300857529
1.1800000000	1.5445751918
1.1850000000	2.1465804052
1.1900000000	2.6638337657
1.1950000000	3.6515985688
1.2000000000	4.9731181635
1.2050000000	4.3624639547
1.2100000000	4.1751257401
1.2150000000	4.6482064755
1.2200000000	5.5593572199
1.2250000000	6.9585663320
1.2300000000	9.0861521971
1.2350000000	12.4517677715
1.2400000000	18.1211521129
1.2450000000	28.7965787786
1.2500000000	51.9165800127
1.2550000000	112.3834708560
1.2600000000	271.4537884031
1.2650000000	274.9722811137
1.2700000000	114.3832231616
1.2750000000	52.7995704301
1.2800000000	29.2414412810
1.2850000000	18.3888181300
1.2900000000	12.6038986436
1.2950000000	9.1859410497
1.3000000000	7.0088507305
1.3050000000	5.5430217352
1.3100000000	4.5093759440
1.3150000000	3.7625159951
1.3200000000	3.2088690140
1.3250000000	2.7922313068
1.3300000000	2.4784657536
1.3350000000	2.2466258699
1.3400000000	2.0858373433
1.3450000000	1.9931204957
1.3500000000	1.9820075772
1.3550000000	2.0833046541
1.3600000000	2.3753931916
1.3650000000	3.0577299166
1.3700000000	4.6872140583
1.3750000000	8.7414789400
1.3800000000	14.2787296827
1.3850000000	9.9747570320
1.3900000000	5.0831523305
1.3950000000	2.9493801866
1.4000000000	1.9315288046
1.4050000000	1.3059733554
1.4100000000	0.7398194260
1.4150000000	-0.1047300905
1.4200000000	-1.9955043661
1.4250000000	-7.0055296197
1.4300000000	-9.4194479502
1.4350000000	4.3155053653
1.4400000000	5.5201932803
1.4450000000	3.3096117644
1.4500000000	2.0593850900
1.4550000000	1.4196306401
1.4600000000	1.0483165520
1.4650000000	0.7548612883
1.4700000000	0.4409650939
1.4750000000	0.5182107758
1.4800000000	0.7597285946
1.4850000000	0.6898585990
1.4900000000	0.6108526614
1.4950000000	0.5597505519
1.5000000000	0.5261800130
1.5050000000	0.5039822479
1.5100000000	0.4888802752
1.5150000000	0.4806380884
1.5200000000	0.4745601133
1.5250000000	0.4723622820
1.5300000000	0.4742451141
1.5350000000	0.4810727456
1.5400000000	0.4950022552
1.5450000000	0.5208247737
1.5500000000	0.5693091129
1.5550000000	0.6619203492
1.5600000000	0.8009317643
1.5650000000	0.8232155291
1.5700000000	0.6977954382
1.5750000000	0.6097973996
1.5800000000	0.5718533653
1.5850000000	0.5599364258
1.5900000000	0.5615196713
1.5950000000	0.5711632797
1.6000000000	0.5864976618
1.6050000000	0.6067077853
1.6100000000	0.6311847522
1.6150000000	0.6598384984
1.6200000000	0.6931258104
1.6250000000	0.7314407616
1.6300000000	0.7754306003
1.6350000000	0.8259296493
1.6400000000	0.8840047059
1.6450000000	0.9510182199
1.6500000000	1.0286803775
1.6550000000	1.1191584222
1.6600000000	1.2252602190
1.6650000000	1.3506101131
1.6700000000	1.4987321886
1.6750000000	1.6782742258
1.6800000000	1.8968803941
1.6850000000	2.1665762884
1.6900000000	2.5044358444
1.6950000000	2.9355148868
1.7000000000	3.4975318727
1.7050000000	4.2728515150
1.7100000000	5.3545642124
1.7150000000	6.9268638092
1.7200000000	9.3231140350
1.7250000000	13.1246875321
1.7300000000	18.9666630550
1.7350000000	26.4636653456
1.7400000000	35.9407545784
1.7450000000	52.5715504483
1.7500000000	74.1600627200
1.7550000000	75.3530876196
1.7600000000	52.8650841496
1.7650000000	32.9300692460
1.7700000000	21.1094912352
1.7750000000	14.3878538755
1.7800000000	10.4156334566
1.7850000000	7.9722003556
1.7900000000	6.4568618456
1.7950000000	5.5897357762
1.8000000000	5.2396207956
1.8050000000	5.1286518960
1.8100000000	4.5629736899
1.8150000000	3.5357081648
1.8200000000	2.7150055184
1.8250000000	2.2918520423
1.8300000000	1.9953219606
1.8350000000	1.7317813290
1.8400000000	1.5168798669
1.8450000000	1.3463399276
1.8500000000	1.2089016737
1.8550000000	1.0953621219
1.8600000000	0.9909215048
1.8650000000	0.9026294505
1.8700000000	0.8133996540
1.8750000000	0.6847636409
1.8800000000	0.3915102922
1.8850000000	-0.2512498610
1.8900000000	-1.1158165054
1.8950000000	-1.2641730859
1.9000000000	0.1352828533
1.9050000000	1.4400774924
1.9100000000	1.5923256761
1.9150000000	1.3452128219
1.9200000000	1.1030182995
1.9250000000	0.9311525338
1.9300000000	0.8270636616
1.9350000000	0.7475881647
1.9400000000	0.6947058230
1.9450000000	0.6596854474
1.9500000000	0.6352039175
1.9550000000	0.6147424590
1.9600000000	0.5970994512
1.9650000000	0.5845806084
1.9700000000	0.5779002685
1.9750000000	0.5766130715
1.9800000000	0.5803597836
1.9850000000	0.5892503720
1.9900000000	0.6038688907
1.9950000000	0.6249452114
2.0000000000	0.6519314499
2.0050000000	0.6825464592
2.0100000000	0.7045110717
2.0150000000	0.7191673686
2.0200000000	0.7368413164
2.0250000000	0.7641164756
2.0300000000	0.8029306580
2.0350000000	0.8542545718
2.0400000000	0.9198507839
2.0450000000	1.0027769613
2.0500000000	1.1074239332
2.0550000000	1.2386703363
2.0600000000	1.3988809760
2.0650000000	1.5855356557
2.0700000000	1.8014372003
2.0750000000	2.0706703648
2.0800000000	2.4329992069
2.0850000000	2.9271932215
2.0900000000	3.5757992292
2.0950000000	4.3322196037
2.1000000000	5.0064102572
2.1050000000	5.3331224295
2.1100000000	5.1780400819
2.1150000000	4.8211233262
2.1200000000	4.5688896135
2.1250000000	4.5582355402
2.1300000000	4.8297831313
2.1350000000	5.4157364430
2.1400000000	6.3805907706
2.1450000000	7.8384400200
2.1500000000	9.9490470543
2.1550000000	12.8324147239
2.1600000000	16.2560216028
2.1650000000	19.1335072191
2.1700000000	19.8134345310
2.1750000000	17.7362500956
2.1800000000	14.3189635373
2.1850000000	11.0477773742
2.1900000000	8.4901996605
2.1950000000	6.6424365941
2.2000000000	5.3460935336
2.2050000000	4.4517441428
2.2100000000	3.8308978845
2.2150000000	3.3546975259
2.2200000000	2.9279626598
2.2250000000	2.5220400234
2.2300000000	2.1544914623
2.2350000000	1.8388971816
2.2400000000	1.5716013807
2.2450000000	1.3408041460
2.2500000000	1.1347585864
2.2550000000	0.9468935337
2.2600000000	0.7590236649
2.2650000000	0.6223464155
2.2700000000	0.5480948477
2.2750000000	0.5667680224
2.2800000000	0.6745770143
2.2850000000	0.8118636049
2.2900000000	0.9123496541
2.2950000000	0.9568757405
2.3000000000	0.9619510341
2.3050000000	0.9465602428
2.3100000000	0.9262966663
2.3150000000	0.9083478022
2.3200000000	0.8955549394
2.3250000000	0.8894748443
2.3300000000	0.8913646386
2.3350000000	0.9022658506
2.3400000000	0.9230694627
2.3450000000	0.9546781730
2.3500000000	0.9980489917
2.3550000000	1.0546169679
2.3600000000	1.1234534784
2.3650000000	1.2049875949
2.3700000000	1.2989932321
2.3750000000	1.4064913404
2.3800000000	1.5313621985
2.3850000000	1.6782097367
2.3900000000	1.8480516779
2.3950000000	2.0333254626
2.4000000000	2.2145899190
2.4050000000	2.3708022835
2.4100000000	2.4573929705
2.4150000000	2.4656820247
2.4200000000	2.4168374375
2.4250000000	2.3469550265
2.4300000000	2.2880711323
2.4350000000	2.2595254529
2.4400000000	2.2690370446
2.4450000000	2.3178556387
2.4500000000	2.4061402166
2.4550000000	2.5358588941
2.4600000000	2.7153247955
2.4650000000	2.9530591873
2.4700000000	3.2585510349
2.4750000000	3.6377262189
2.4800000000	4.0875922088
2.4850000000	4.5889548146
2.4900000000	5.0979093231
2.4950000000	5.5415990899
2.5000000000	5.8288543369
2.5050000000	5.8657868727
2.5100000000	5.6149081883
2.5150000000	5.1446971868
2.5200000000	4.5645705328
2.5250000000	3.9706533596
2.5300000000	3.4215399213
2.5350000000	2.9418495042
2.5400000000	2.5352064078
2.5450000000	2.1955776818
2.5500000000	1.9142200436
2.5550000000	1.6832778870
2.5600000000	1.4901688606
2.5650000000	1.3456473221
2.5700000000	1.2418011088
2.5750000000	1.1749271484
2.5800000000	1.1376039838
2.5850000000	1.1196815176
2.5900000000	1.1116343026
2.5950000000	1.1075309519
2.6000000000	1.1054589817
2.6050000000	1.1142624127
2.6100000000	1.1282168300
2.6150000000	1.1494599958
2.6200000000	1.1791276387
2.6250000000	1.2172897046
2.6300000000	1.2628689973
2.6350000000	1.3135793042
2.6400000000	1.3659275449
2.6450000000	1.4154840967
2.6500000000	1.4575577070
2.6550000000	1.4883018991
2.6600000000	1.5059298791
2.6650000000	1.5114909766
2.6700000000	1.5086489182
2.6750000000	1.5027593361
2.6800000000	1.4990118651
2.6850000000	1.5022554380
2.6900000000	1.5158669535
2.6950000000	1.5419218959
2.7000000000	1.5814155310
2.7050000000	1.6405230422
2.7100000000	1.7165843201
2.7150000000	1.8083701985
2.7200000000	1.9133396095
2.7250000000	2.0271786723
2.7300000000	2.1433747800
2.7350000000	2.2531475610
2.7400000000	2.3460523674
2.7450000000	2.4114847381
2.7500000000	2.4408970860
2.7550000000	2.4299832534
2.7600000000	2.3798433083
2.7650000000	2.2965871983
2.7700000000	2.1895642160
2.7750000000	2.0691330013
2.7800000000	1.9447914075
2.7850000000	1.8241381568
2.7900000000	1.7115783874
2.7950000000	1.6119325902
2.8000000000	1.5261982405
2.8050000000	1.4467899244
2.8100000000	1.3841796504
2.8150000000	1.3359033981
2.8200000000	1.2992842985
2.8250000000	1.2718659913
2.8300000000	1.2515607276
2.8350000000	1.2366367664
2.8400000000	1.2256307839
2.8450000000	1.2173003908
2.8500000000	1.2106479088
2.8550000000	1.2050110100
2.8600000000	1.2001653123
2.8650000000	1.1963575368
2.8700000000	1.1942427280
2.8750000000	1.1947219504
2.8800000000	1.1987426024
2.8850000000	1.2071185900
2.8900000000	1.2204047872
2.8950000000	1.2388216238
2.9000000000	1.2622176468
2.9050000000	1.2972099195
2.9100000000	1.3355810264
2.9150000000	1.3747694341
2.9200000000	1.4115379286
2.9250000000	1.4424089713
2.9300000000	1.4641537791
2.9350000000	1.4743583027
2.9400000000	1.4718903686
2.9450000000	1.4571159269
2.9500000000	1.4317622703
2.9550000000	1.3984778538
2.9600000000	1.3602741394
2.9650000000	1.3200036568
2.9700000000	1.2800122982
2.9750000000	1.2419872527
2.9800000000	1.2069672585
2.9850000000	1.1754547843
2.9900000000	1.1475667425
2.9950000000	1.1231808601
3.0000000000	1.1020552416
