# energy (eV)    P(omega), $W$ = 300 nm, $h$ = 300 nm, $s$ = 20 nm, $d/W = 5$, $E_{\rm e}$ = 200 keV
0.2000000000	0.1044736916
0.2050000000	0.1060390561
0.2100000000	0.1075025022
0.2150000000	0.1088673530
0.2200000000	0.1101364471
0.2250000000	0.1113121946
0.2300000000	0.1123964379
0.2350000000	0.1133903989
0.2400000000	0.1142945431
0.2450000000	0.1151085284
0.2500000000	0.1158310165
0.2550000000	0.1164594457
0.2600000000	0.1169899702
0.2650000000	0.1174170027
0.2700000000	0.1177329737
0.2750000000	0.1179278506
0.2800000000	0.1179886089
0.2850000000	0.1178985011
0.2900000000	0.1176360764
0.2950000000	0.1171741145
0.3000000000	0.1164778451
0.3050000000	0.1155029602
0.3100000000	0.1141927350
0.3150000000	0.1206866465
0.3200000000	0.1283990134
0.3250000000	0.1381537534
0.3300000000	0.1512177074
0.3350000000	0.1674789129
0.3400000000	0.1887732286
0.3450000000	0.2146007207
0.3500000000	0.2483868765
0.3550000000	0.2930909643
0.3600000000	0.3514589375
0.3650000000	0.4328279764
0.3700000000	0.5401144804
0.3750000000	0.6893488637
0.3800000000	0.9051771767
0.3850000000	1.2414694977
0.3900000000	1.7727205674
0.3950000000	2.6750871342
0.4000000000	4.3952737820
0.4050000000	8.2517973371
0.4100000000	18.7745365156
0.4150000000	60.2502747156
0.4200000000	38.3885219154
0.4250000000	-72.2529849982
0.4300000000	20.0906716871
0.4350000000	12.5191961024
0.4400000000	7.6526604310
0.4450000000	5.0331210556
0.4500000000	3.5251499722
0.4550000000	2.5971731535
0.4600000000	1.9927984099
0.4650000000	1.5809587505
0.4700000000	1.2898811731
0.4750000000	1.0793691063
0.4800000000	0.9232922939
0.4850000000	0.8058480403
0.4900000000	0.7161985608
0.4950000000	0.6470685199
0.5000000000	0.5934849731
0.5050000000	0.5517993971
0.5100000000	0.5196623214
0.5150000000	0.4953439677
0.5200000000	0.4770367386
0.5250000000	0.4639258208
0.5300000000	0.4551369638
0.5350000000	0.4500306927
0.5400000000	0.4481355434
0.5450000000	0.4490576854
0.5500000000	0.4526722582
0.5550000000	0.4587571942
0.5600000000	0.4671988760
0.5650000000	0.4779461754
0.5700000000	0.4909524423
0.5750000000	0.5063084881
0.5800000000	0.5241619725
0.5850000000	0.5446091531
0.5900000000	0.5678368001
0.5950000000	0.5940799454
0.6000000000	0.6236379748
0.6050000000	0.6569449953
0.6100000000	0.6944150439
0.6150000000	0.7366139041
0.6200000000	0.7842963170
0.6250000000	0.8381858718
0.6300000000	0.8993521554
0.6350000000	0.9691282548
0.6400000000	1.0489011922
0.6450000000	1.1406731692
0.6500000000	1.2470766664
0.6550000000	1.3708519579
0.6600000000	1.5162108764
0.6650000000	1.6885574718
0.6700000000	1.8942450802
0.6750000000	2.1429619334
0.6800000000	2.4477369149
0.6850000000	2.8256373427
0.6900000000	3.3030975494
0.6950000000	3.9170877404
0.7000000000	4.7263352459
0.7050000000	5.8206182413
0.7100000000	7.3520544807
0.7150000000	9.5914302438
0.7200000000	13.0428644309
0.7250000000	18.7719851854
0.7300000000	29.2877915274
0.7350000000	51.7884466536
0.7400000000	113.4967751593
0.7450000000	376.5195112422
0.7500000000	1166.4472855128
0.7550000000	293.4420814851
0.7600000000	97.1802431112
0.7650000000	46.5627670786
0.7700000000	27.0789682045
0.7750000000	17.6735018509
0.7800000000	12.4374638053
0.7850000000	9.2372189082
0.7900000000	7.1364346110
0.7950000000	5.6875777550
0.8000000000	4.6460524738
0.8050000000	3.8703520793
0.8100000000	3.2788401042
0.8150000000	2.8099418104
0.8200000000	2.4398756886
0.8250000000	2.1419041919
0.8300000000	1.8978198371
0.8350000000	1.6971381169
0.8400000000	1.5289090326
0.8450000000	1.3877434455
0.8500000000	1.2684181098
0.8550000000	1.1654457530
0.8600000000	1.0775418070
0.8650000000	1.0024570114
0.8700000000	0.9361136487
0.8750000000	0.8796790074
0.8800000000	0.8317927995
0.8850000000	0.7888602124
0.8900000000	0.7544205165
0.8950000000	0.7230910014
0.9000000000	0.6982607174
0.9050000000	0.6811597244
0.9100000000	0.6654882420
0.9150000000	0.6559819802
0.9200000000	0.6548372673
0.9250000000	0.6539882394
0.9300000000	0.6443946974
0.9350000000	0.6156084343
0.9400000000	0.4552450219
0.9450000000	-0.2736478120
0.9500000000	-4.1202972020
0.9550000000	-23.6310347933
0.9600000000	5.5760826069
0.9650000000	9.7951434770
0.9700000000	4.3445053790
0.9750000000	2.2807602805
0.9800000000	1.4293857301
0.9850000000	1.0311962763
0.9900000000	0.8017686265
0.9950000000	0.6626493819
1.0000000000	0.5738213810
1.0050000000	0.5175064935
1.0100000000	0.4738486023
1.0150000000	0.4419537329
1.0200000000	0.4204707332
1.0250000000	0.4024389526
1.0300000000	0.3887405080
1.0350000000	0.3783777521
1.0400000000	0.3717895307
1.0450000000	0.3663114414
1.0500000000	0.3626978692
1.0550000000	0.3607348290
1.0600000000	0.3609058492
1.0650000000	0.3618650993
1.0700000000	0.3641612735
1.0750000000	0.3678039006
1.0800000000	0.3731530376
1.0850000000	0.3799413403
1.0900000000	0.3899549855
1.0950000000	0.4018467345
1.1000000000	0.4160155695
1.1050000000	0.4323456111
1.1100000000	0.4513526446
1.1150000000	0.4734640515
1.1200000000	0.4991864573
1.1250000000	0.5291821370
1.1300000000	0.5643381404
1.1350000000	0.6057587784
1.1400000000	0.6547015742
1.1450000000	0.7134625604
1.1500000000	0.7845381120
1.1550000000	0.8715373536
1.1600000000	0.9795520863
1.1650000000	1.1151891343
1.1700000000	1.2908253317
1.1750000000	1.5228907915
1.1800000000	1.8385474286
1.1850000000	2.2824423011
1.1900000000	2.9387197493
1.1950000000	3.9689436587
1.2000000000	5.7163494490
1.2050000000	9.0184819681
1.2100000000	16.2825065431
1.2150000000	35.9170717354
1.2200000000	88.1476587846
1.2250000000	79.1950832439
1.2300000000	31.5903503592
1.2350000000	14.8162940270
1.2400000000	8.4626949636
1.2450000000	5.5454406230
1.2500000000	4.0064655501
1.2550000000	3.1182859819
1.2600000000	2.5778179416
1.2650000000	2.2392741921
1.2700000000	2.0374019177
1.2750000000	1.9298931251
1.2800000000	1.8966080090
1.2850000000	1.9287508954
1.2900000000	2.0256123015
1.2950000000	2.1922296805
1.3000000000	2.4491750333
1.3050000000	2.8228303565
1.3100000000	3.3623821473
1.3150000000	4.1529348973
1.3200000000	5.3474844119
1.3250000000	7.2376382079
1.3300000000	10.4620502621
1.3350000000	16.5014356521
1.3400000000	29.4093662031
1.3450000000	61.4535338059
1.3500000000	130.4191504313
1.3550000000	121.6346621232
1.3600000000	56.0915936179
1.3650000000	27.5598640390
1.3700000000	15.8052772432
1.3750000000	10.1642421889
1.3800000000	7.0884439431
1.3850000000	5.2356161424
1.3900000000	4.0414461116
1.3950000000	3.2267013845
1.4000000000	2.6471583479
1.4050000000	2.2215002504
1.4100000000	1.9004774775
1.4150000000	1.6546697289
1.4200000000	1.4633233581
1.4250000000	1.3209298848
1.4300000000	1.2303254569
1.4350000000	1.1704063820
1.4400000000	0.8045069477
1.4450000000	-0.2090096659
1.4500000000	-1.9726911869
1.4550000000	-0.6592427922
1.4600000000	2.0061219747
1.4650000000	1.1622571522
1.4700000000	-0.7410984257
1.4750000000	-3.7519392184
1.4800000000	-1.6552333972
1.4850000000	2.8364281091
1.4900000000	2.2961745239
1.4950000000	1.4897795575
1.5000000000	1.0489088756
1.5050000000	0.8102419733
1.5100000000	0.6736225804
1.5150000000	0.5898586578
1.5200000000	0.5349950907
1.5250000000	0.5001734698
1.5300000000	0.4727338950
1.5350000000	0.4528025262
1.5400000000	0.4383662791
1.5450000000	0.4282248824
1.5500000000	0.4215489060
1.5550000000	0.4179930787
1.5600000000	0.4182735159
1.5650000000	0.4209478966
1.5700000000	0.4275597105
1.5750000000	0.4393239767
1.5800000000	0.4586598873
1.5850000000	0.4903308790
1.5900000000	0.5444138057
1.5950000000	0.6431850868
1.6000000000	0.8335893883
1.6050000000	1.1460795300
1.6100000000	1.2917497516
1.6150000000	1.0282952019
1.6200000000	0.7840311954
1.6250000000	0.6598672548
1.6300000000	0.6028743831
1.6350000000	0.5793740911
1.6400000000	0.5741117738
1.6450000000	0.5801097255
1.6500000000	0.5939715811
1.6550000000	0.6143013676
1.6600000000	0.6403878645
1.6650000000	0.6721342426
1.6700000000	0.7098032363
1.6750000000	0.7539374867
1.6800000000	0.8053310964
1.6850000000	0.8650441530
1.6900000000	0.9343089927
1.6950000000	1.0138407666
1.7000000000	1.1053925123
1.7050000000	1.2113187756
1.7100000000	1.3397035138
1.7150000000	1.5554882864
1.7200000000	1.8814151328
1.7250000000	2.2337474405
1.7300000000	2.6526989916
1.7350000000	3.1059695801
1.7400000000	3.5243949804
1.7450000000	4.0517284257
1.7500000000	4.8601255492
1.7550000000	6.0726473631
1.7600000000	7.8918300667
1.7650000000	10.6983721853
1.7700000000	15.2193994699
1.7750000000	22.8341289728
1.7800000000	35.8033211552
1.7850000000	54.9148405919
1.7900000000	68.1991218030
1.7950000000	58.0265390714
1.8000000000	38.5810559385
1.8050000000	24.3364830052
1.8100000000	16.0233274263
1.8150000000	11.1519915808
1.8200000000	8.1543328574
1.8250000000	6.2105980394
1.8300000000	4.8901503358
1.8350000000	3.9571187871
1.8400000000	3.2761213123
1.8450000000	2.7649297875
1.8500000000	2.3716683389
1.8550000000	2.0638118264
1.8600000000	1.8184832382
1.8650000000	1.6199579303
1.8700000000	1.4567782299
1.8750000000	1.3201558175
1.8800000000	1.2026106246
1.8850000000	1.0968503279
1.8900000000	0.9938501526
1.8950000000	0.8799390867
1.9000000000	0.7319524183
1.9050000000	0.4742950835
1.9100000000	0.1042975953
1.9150000000	-0.2518404113
1.9200000000	0.1789043589
1.9250000000	1.9011406828
1.9300000000	3.2769195471
1.9350000000	3.3076669586
1.9400000000	2.6552102676
1.9450000000	2.0123650773
1.9500000000	1.5567357590
1.9550000000	1.2553571125
1.9600000000	1.0545216583
1.9650000000	0.9206976354
1.9700000000	0.8221853643
1.9750000000	0.7499479428
1.9800000000	0.6951205720
1.9850000000	0.6513460396
1.9900000000	0.6138921914
1.9950000000	0.5787477189
2.0000000000	0.5451915983
2.0050000000	0.5252391365
2.0100000000	0.5386527233
2.0150000000	0.5736321863
2.0200000000	0.5972674471
2.0250000000	0.6075432211
2.0300000000	0.6153808988
2.0350000000	0.6258337022
2.0400000000	0.6413596469
2.0450000000	0.6630021946
2.0500000000	0.6918221997
2.0550000000	0.7288745864
2.0600000000	0.7742195596
2.0650000000	0.8242373383
2.0700000000	0.8699176404
2.0750000000	0.9042239468
2.0800000000	0.9323872193
2.0850000000	0.9657754874
2.0900000000	1.0116193419
2.0950000000	1.0724246431
2.1000000000	1.1501097657
2.1050000000	1.2435029636
2.1100000000	1.3591112956
2.1150000000	1.5015985226
2.1200000000	1.6776725822
2.1250000000	1.8968515953
2.1300000000	2.1726221022
2.1350000000	2.5242803915
2.1400000000	2.9796957776
2.1450000000	3.5796046546
2.1500000000	4.3833289860
2.1550000000	5.4747732307
2.1600000000	6.9612875793
2.1650000000	8.9338456222
2.1700000000	11.3577664641
2.1750000000	13.7747891982
2.1800000000	15.2926893045
2.1850000000	15.4348978515
2.1900000000	14.8585214191
2.1950000000	14.4496071178
2.2000000000	14.3067255238
2.2050000000	13.6344537868
2.2100000000	12.0924379223
2.2150000000	10.1522331833
2.2200000000	8.3875048269
2.2250000000	6.9575559974
2.2300000000	5.7836554773
2.2350000000	4.8012247370
2.2400000000	3.9945878687
2.2450000000	3.3576543379
2.2500000000	2.8640645067
2.2550000000	2.4820527010
2.2600000000	2.1822153440
2.2650000000	1.9380496664
2.2700000000	1.7244695839
2.2750000000	1.5202763226
2.2800000000	1.3205486155
2.2850000000	1.1496724761
2.2900000000	1.0491819008
2.2950000000	1.0376925470
2.3000000000	1.0831385337
2.3050000000	1.1310281679
2.3100000000	1.1479552712
2.3150000000	1.1349713903
2.3200000000	1.1065207697
2.3250000000	1.0774487802
2.3300000000	1.0556366072
2.3350000000	1.0433854023
2.3400000000	1.0389647755
2.3450000000	1.0373396856
2.3500000000	1.0320245224
2.3550000000	1.0188761071
2.3600000000	0.9990406882
2.3650000000	0.9775719879
2.3700000000	0.9596065047
2.3750000000	0.9479989792
2.3800000000	0.9432072781
2.3850000000	0.9440837145
2.3900000000	0.9491624511
2.3950000000	0.9570389263
2.4000000000	0.9684127659
2.4050000000	0.9862535206
2.4100000000	1.0118238675
2.4150000000	1.0468666987
2.4200000000	1.0925835882
2.4250000000	1.1502628232
2.4300000000	1.2214851614
2.4350000000	1.3082771474
2.4400000000	1.4132469680
2.4450000000	1.5397390419
2.4500000000	1.6919921617
2.4550000000	1.8753543649
2.4600000000	2.0964021713
2.4650000000	2.3630633965
2.4700000000	2.6844613892
2.4750000000	3.0697950722
2.4800000000	3.5287728899
2.4850000000	4.0654277443
2.4900000000	4.6747329975
2.4950000000	5.3344633158
2.5000000000	5.9966336239
2.5050000000	6.6103549466
2.5100000000	7.0127646357
2.5150000000	7.1125062347
2.5200000000	6.8943105223
2.5250000000	6.4258495711
2.5300000000	5.8146494654
2.5350000000	5.1582560099
2.5400000000	4.5210425857
2.5450000000	3.9366001481
2.5500000000	3.4184544714
2.5550000000	2.9689282622
2.5600000000	2.5816091679
2.5650000000	2.2550874200
2.5700000000	1.9824304636
2.5750000000	1.7594494473
2.5800000000	1.5829419982
2.5850000000	1.4491292583
2.5900000000	1.3514036033
2.5950000000	1.2802813149
2.6000000000	1.2258490809
2.6050000000	1.1870092796
2.6100000000	1.1525738814
2.6150000000	1.1220809546
2.6200000000	1.0962463351
2.6250000000	1.0758037876
2.6300000000	1.0612238316
2.6350000000	1.0527318492
2.6400000000	1.0504467065
2.6450000000	1.0544890323
2.6500000000	1.0651067037
2.6550000000	1.0823551827
2.6600000000	1.1066131085
2.6650000000	1.1382406141
2.6700000000	1.1776620365
2.6750000000	1.2253734253
2.6800000000	1.2819050754
2.6850000000	1.3478000658
2.6900000000	1.4235387664
2.6950000000	1.5094889094
2.7000000000	1.6057859514
2.7050000000	1.7236976673
2.7100000000	1.8542600652
2.7150000000	1.9958802619
2.7200000000	2.1458814358
2.7250000000	2.3004567036
2.7300000000	2.4546778009
2.7350000000	2.6025120509
2.7400000000	2.7367826727
2.7450000000	2.8503278326
2.7500000000	2.9325128575
2.7550000000	2.9762981753
2.7600000000	2.9763675328
2.7650000000	2.9315500612
2.7700000000	2.8454157763
2.7750000000	2.7256732432
2.7800000000	2.5824963420
2.7850000000	2.4267061299
2.7900000000	2.2679969815
2.7950000000	2.1141392300
2.8000000000	1.9706309237
2.8050000000	1.8248639228
2.8100000000	1.6993830563
2.8150000000	1.5939073504
2.8200000000	1.5067889759
2.8250000000	1.4358372481
2.8300000000	1.3788426205
2.8350000000	1.3339241847
2.8400000000	1.2990813119
2.8450000000	1.2744355076
2.8500000000	1.2585171804
2.8550000000	1.2507705149
2.8600000000	1.2507857666
2.8650000000	1.2582153920
2.8700000000	1.2727204095
2.8750000000	1.2939136845
2.8800000000	1.3213226657
2.8850000000	1.3543482640
2.8900000000	1.3922752234
2.8950000000	1.4342563957
2.9000000000	1.4793593382
2.9050000000	1.5363957737
2.9100000000	1.5934001565
2.9150000000	1.6483370525
2.9200000000	1.6988693529
2.9250000000	1.7423003145
2.9300000000	1.7761176563
2.9350000000	1.7967984314
2.9400000000	1.8026635384
2.9450000000	1.7928926615
2.9500000000	1.7681560171
2.9550000000	1.7305572928
2.9600000000	1.6832255341
2.9650000000	1.6297633602
2.9700000000	1.5736942880
2.9750000000	1.5180566892
2.9800000000	1.4652000380
2.9850000000	1.4167480358
2.9900000000	1.3737010648
2.9950000000	1.3365443926
3.0000000000	1.3054186467
