# energy (eV)    P(omega), $W$ = 400 nm, $h$ = 300 nm, $s$ = 20 nm, $d/W = 5$, $E_{\rm e}$ = 200 keV
0.2000000000	0.0441332683
0.2050000000	0.0445347380
0.2100000000	0.0448174143
0.2150000000	0.0449765364
0.2200000000	0.0450054476
0.2250000000	0.0448951045
0.2300000000	0.0446336084
0.2350000000	0.0442054665
0.2400000000	0.0435907551
0.2450000000	0.0427637960
0.2500000000	0.0416917605
0.2550000000	0.0403324071
0.2600000000	0.0386313022
0.2650000000	0.0404137610
0.2700000000	0.0449414652
0.2750000000	0.0514204859
0.2800000000	0.0604476244
0.2850000000	0.0737560207
0.2900000000	0.0902461394
0.2950000000	0.1138861732
0.3000000000	0.1456652345
0.3050000000	0.1943750460
0.3100000000	0.2622265083
0.3150000000	0.3935161520
0.3200000000	0.5985656257
0.3250000000	0.7389525743
0.3300000000	0.9331533894
0.3350000000	1.2084614244
0.3400000000	1.6406399966
0.3450000000	2.3821206951
0.3500000000	3.8606992929
0.3550000000	7.2834299316
0.3600000000	17.8999714061
0.3650000000	0.0808348159
0.3700000000	8.2960604082
0.3750000000	10.9090227014
0.3800000000	5.0832443211
0.3850000000	2.8634469549
0.3900000000	1.8366540484
0.3950000000	1.2942562915
0.4000000000	0.9802081377
0.4050000000	0.7754705529
0.4100000000	0.6421818698
0.4150000000	0.5542707295
0.4200000000	0.4987093724
0.4250000000	0.4550730287
0.4300000000	0.4035099964
0.4350000000	0.3627008941
0.4400000000	0.3304254681
0.4450000000	0.3047627232
0.4500000000	0.2845021651
0.4550000000	0.2684361595
0.4600000000	0.2559034180
0.4650000000	0.2462045081
0.4700000000	0.2388763964
0.4750000000	0.2335951165
0.4800000000	0.2300779595
0.4850000000	0.2280770346
0.4900000000	0.2274457492
0.4950000000	0.2280713200
0.5000000000	0.2298573851
0.5050000000	0.2327609939
0.5100000000	0.2367469619
0.5150000000	0.2417943831
0.5200000000	0.2479137215
0.5250000000	0.2551135623
0.5300000000	0.2634996037
0.5350000000	0.2731188404
0.5400000000	0.2840558883
0.5450000000	0.2964217110
0.5500000000	0.3103733061
0.5550000000	0.3260823998
0.5600000000	0.3437580157
0.5650000000	0.3636689291
0.5700000000	0.3861861784
0.5750000000	0.4115847627
0.5800000000	0.4403792328
0.5850000000	0.4732726300
0.5900000000	0.5107391748
0.5950000000	0.5537767291
0.6000000000	0.6037035999
0.6050000000	0.6615078443
0.6100000000	0.7294544072
0.6150000000	0.8094215360
0.6200000000	0.9046334612
0.6250000000	1.0197158539
0.6300000000	1.1593861511
0.6350000000	1.3325087438
0.6400000000	1.5488634766
0.6450000000	1.8261971944
0.6500000000	2.1871796942
0.6550000000	2.6702113536
0.6600000000	3.3401304210
0.6650000000	4.2993757850
0.6700000000	5.7519020290
0.6750000000	8.0873448361
0.6800000000	12.2156796548
0.6850000000	20.4994499317
0.6900000000	41.0841742860
0.6950000000	115.3294103628
0.7000000000	559.3573819318
0.7050000000	271.9453979999
0.7100000000	69.8571110737
0.7150000000	29.7071984837
0.7200000000	16.2234944950
0.7250000000	10.1912639129
0.7300000000	6.9898055332
0.7350000000	5.0972639306
0.7400000000	3.8853488520
0.7450000000	3.0627486492
0.7500000000	2.4800340209
0.7550000000	2.0519304794
0.7600000000	1.7292591887
0.7650000000	1.4790321825
0.7700000000	1.2815035666
0.7750000000	1.1229250309
0.7800000000	0.9940587437
0.7850000000	0.8879505284
0.7900000000	0.7990564718
0.7950000000	0.7248135948
0.8000000000	0.6616871244
0.8050000000	0.6076039076
0.8100000000	0.5615628620
0.8150000000	0.5212098119
0.8200000000	0.4860781644
0.8250000000	0.4565965633
0.8300000000	0.4307903943
0.8350000000	0.4083556721
0.8400000000	0.3904897335
0.8450000000	0.3749007405
0.8500000000	0.3616829212
0.8550000000	0.3533280072
0.8600000000	0.3466355603
0.8650000000	0.3418436900
0.8700000000	0.3435116230
0.8750000000	0.3440956810
0.8800000000	0.3422434196
0.8850000000	0.3273624727
0.8900000000	0.2540449686
0.8950000000	-0.1133861418
0.9000000000	-2.0836513148
0.9050000000	-13.6911409770
0.9100000000	2.6070632531
0.9150000000	6.1756462381
0.9200000000	2.5636295979
0.9250000000	1.3336734781
0.9300000000	0.8141051060
0.9350000000	0.5658721405
0.9400000000	0.4319607546
0.9450000000	0.3577341173
0.9500000000	0.3050209540
0.9550000000	0.2697348850
0.9600000000	0.2479113241
0.9650000000	0.2299038311
0.9700000000	0.2170533486
0.9750000000	0.2082940084
0.9800000000	0.2029588344
0.9850000000	0.2019751937
0.9900000000	0.2039094335
0.9950000000	0.2117429045
1.0000000000	0.2304802106
1.0050000000	0.2742340977
1.0100000000	0.3889059701
1.0150000000	0.7819305613
1.0200000000	1.5014613394
1.0250000000	0.6826956790
1.0300000000	0.3497584777
1.0350000000	0.2505278733
1.0400000000	0.2115064921
1.0450000000	0.1932010396
1.0500000000	0.1840258314
1.0550000000	0.1792126829
1.0600000000	0.1770529839
1.0650000000	0.1766498555
1.0700000000	0.1775060521
1.0750000000	0.1794465954
1.0800000000	0.1821240442
1.0850000000	0.1857673806
1.0900000000	0.1910316900
1.0950000000	0.1971687420
1.1000000000	0.2042386952
1.1050000000	0.2122543139
1.1100000000	0.2213424473
1.1150000000	0.2316240316
1.1200000000	0.2432425835
1.1250000000	0.2563168649
1.1300000000	0.2711855958
1.1350000000	0.2880770722
1.1400000000	0.3073332071
1.1450000000	0.3293887583
1.1500000000	0.3545820348
1.1550000000	0.3839664738
1.1600000000	0.4182081910
1.1650000000	0.4581796772
1.1700000000	0.5040620211
1.1750000000	0.5505959116
1.1800000000	0.5946373679
1.1850000000	0.8264582250
1.1900000000	1.0256310984
1.1950000000	1.4059730526
1.2000000000	1.9148289754
1.2050000000	1.6796456663
1.2100000000	1.6074612286
1.2150000000	1.7895715546
1.2200000000	2.1403479267
1.2250000000	2.6790273680
1.2300000000	3.4981270321
1.2350000000	4.7938569606
1.2400000000	6.9765146921
1.2450000000	11.0864457465
1.2500000000	19.9874003264
1.2550000000	43.2664752320
1.2600000000	104.5066313259
1.2650000000	105.8609389912
1.2700000000	44.0360185053
1.2750000000	20.3270805822
1.2800000000	11.2575085985
1.2850000000	7.0793964123
1.2900000000	4.8522837612
1.2950000000	3.5364196181
1.3000000000	2.6982721963
1.3050000000	2.1339501948
1.3100000000	1.7360123180
1.3150000000	1.4484825875
1.3200000000	1.2353366256
1.3250000000	1.0749368054
1.3300000000	0.9541406034
1.3350000000	0.8648836767
1.3400000000	0.8029793262
1.3450000000	0.7672796947
1.3500000000	0.7629933254
1.3550000000	0.8019777792
1.3600000000	0.9144036118
1.3650000000	1.1770463393
1.3700000000	1.8042695526
1.3750000000	3.3648487757
1.3800000000	5.4962615406
1.3850000000	3.8395524973
1.3900000000	1.9566539895
1.3950000000	1.1353113060
1.4000000000	0.7435119643
1.4050000000	0.5027142409
1.4100000000	0.2847758107
1.4150000000	-0.0403387655
1.4200000000	-0.7682130339
1.4250000000	-2.6968812994
1.4300000000	-3.6261394307
1.4350000000	1.6612929245
1.4400000000	2.1250473932
1.4450000000	1.2740599403
1.4500000000	0.7927728757
1.4550000000	0.5464936912
1.4600000000	0.4035532851
1.4650000000	0.2905852057
1.4700000000	0.1697476967
1.4750000000	0.1994845216
1.4800000000	0.2924598279
1.4850000000	0.2655630185
1.4900000000	0.2351492801
1.4950000000	0.2154774548
1.5000000000	0.2025546509
1.5050000000	0.1940100265
1.5100000000	0.1881971572
1.5150000000	0.1850252487
1.5200000000	0.1826868754
1.5250000000	0.1818427780
1.5300000000	0.1825705184
1.5350000000	0.1852034106
1.5400000000	0.1905731412
1.5450000000	0.2005268158
1.5500000000	0.2192160563
1.5550000000	0.2549162043
1.5600000000	0.3085042216
1.5650000000	0.3170928378
1.5700000000	0.2687370692
1.5750000000	0.2348058373
1.5800000000	0.2201699535
1.5850000000	0.2155668406
1.5900000000	0.2161670942
1.5950000000	0.2198734507
1.6000000000	0.2257722231
1.6050000000	0.2335489267
1.6100000000	0.2429687070
1.6150000000	0.2539966464
1.6200000000	0.2668084453
1.6250000000	0.2815556767
1.6300000000	0.2984874175
1.6350000000	0.3179247690
1.6400000000	0.3402783258
1.6450000000	0.3660724927
1.6500000000	0.3959655210
1.6550000000	0.4307915966
1.6600000000	0.4716314915
1.6650000000	0.5198802516
1.6700000000	0.5768943063
1.6750000000	0.6460023131
1.6800000000	0.7301465593
1.6850000000	0.8339557950
1.6900000000	0.9640019735
1.6950000000	1.1299292344
1.7000000000	1.3462557169
1.7050000000	1.6446842902
1.7100000000	2.0610459428
1.7150000000	2.6662377465
1.7200000000	3.5885728808
1.7250000000	5.0518243562
1.7300000000	7.3004407031
1.7350000000	10.1861149503
1.7400000000	13.8339994604
1.7450000000	20.2354424576
1.7500000000	28.5451405137
1.7550000000	29.0043253212
1.7600000000	20.3483939290
1.7650000000	12.6751597734
1.7700000000	8.1252809709
1.7750000000	5.5380505677
1.7800000000	4.0091069333
1.7850000000	3.0686164460
1.7900000000	2.4853688177
1.7950000000	2.1516405180
1.8000000000	2.0169370938
1.8050000000	1.9742878245
1.8100000000	1.7565472466
1.8150000000	1.3610728991
1.8200000000	1.0451169195
1.8250000000	0.8822122507
1.8300000000	0.7680585318
1.8350000000	0.6666068467
1.8400000000	0.5838803621
1.8450000000	0.5182316590
1.8500000000	0.4653256939
1.8550000000	0.4216194017
1.8600000000	0.3814156316
1.8650000000	0.3474271484
1.8700000000	0.3130767024
1.8750000000	0.2635576271
1.8800000000	0.1506788583
1.8850000000	-0.0967186452
1.8900000000	-0.4294842366
1.8950000000	-0.4865812541
1.9000000000	0.0520706081
1.9050000000	0.5542861732
1.9100000000	0.6128879176
1.9150000000	0.5177762565
1.9200000000	0.4245579332
1.9250000000	0.3584095621
1.9300000000	0.3183492988
1.9350000000	0.2877642764
1.9400000000	0.2674171466
1.9450000000	0.2539470704
1.9500000000	0.2445315311
1.9550000000	0.2366549629
1.9600000000	0.2298560278
1.9650000000	0.2250289277
1.9700000000	0.2224515250
1.9750000000	0.2219522573
1.9800000000	0.2233921941
1.9850000000	0.2268132165
1.9900000000	0.2324399249
1.9950000000	0.2405532327
2.0000000000	0.2509421793
2.0050000000	0.2627280671
2.0100000000	0.2711830772
2.0150000000	0.2768233334
2.0200000000	0.2836245241
2.0250000000	0.2941216410
2.0300000000	0.3090607630
2.0350000000	0.3288154853
2.0400000000	0.3540641491
2.0450000000	0.3859836658
2.0500000000	0.4262642429
2.0550000000	0.4767841419
2.0600000000	0.5384542640
2.0650000000	0.6103050179
2.0700000000	0.6934157213
2.0750000000	0.7970576450
2.0800000000	0.9365375434
2.0850000000	1.1267796118
2.0900000000	1.3764633009
2.0950000000	1.6676499772
2.1000000000	1.9271789334
2.1050000000	2.0529379329
2.1100000000	1.9932186795
2.1150000000	1.8557948280
2.1200000000	1.7586635145
2.1250000000	1.7545227931
2.1300000000	1.8590073221
2.1350000000	2.0845092080
2.1400000000	2.4558490505
2.1450000000	3.0169380783
2.1500000000	3.8292663414
2.1550000000	4.9390224122
2.1600000000	6.2567121325
2.1650000000	7.3642080210
2.1700000000	7.6258949799
2.1750000000	6.8264109119
2.1800000000	5.5111430280
2.1850000000	4.2521076127
2.1900000000	3.2677286012
2.1950000000	2.5565448837
2.2000000000	2.0575918244
2.2050000000	1.7133571473
2.2100000000	1.4743892201
2.2150000000	1.2910982969
2.2200000000	1.1268559784
2.2250000000	0.9706329605
2.2300000000	0.8291828577
2.2350000000	0.7077281541
2.2400000000	0.6048603956
2.2450000000	0.5160381588
2.2500000000	0.4367409354
2.2550000000	0.3644404400
2.2600000000	0.2921385028
2.2650000000	0.2395402275
2.2700000000	0.2109683060
2.2750000000	0.2181598686
2.2800000000	0.2596562388
2.2850000000	0.3124973782
2.2900000000	0.3511756722
2.2950000000	0.3683177025
2.3000000000	0.3702772059
2.3050000000	0.3643604992
2.3100000000	0.3565673262
2.3150000000	0.3496624910
2.3200000000	0.3447390614
2.3250000000	0.3423971134
2.3300000000	0.3431220190
2.3350000000	0.3473158593
2.3400000000	0.3553221987
2.3450000000	0.3674887374
2.3500000000	0.3841838785
2.3550000000	0.4059599262
2.3600000000	0.4324593450
2.3650000000	0.4638470483
2.3700000000	0.5000357903
2.3750000000	0.5414184478
2.3800000000	0.5894888282
2.3850000000	0.6460194400
2.3900000000	0.7114022055
2.3950000000	0.7827257433
2.4000000000	0.8525056267
2.4050000000	0.9126405229
2.4100000000	0.9459720287
2.4150000000	0.9491584750
2.4200000000	0.9303487802
2.4250000000	0.9034389044
2.4300000000	0.8807618445
2.4350000000	0.8697624298
2.4400000000	0.8734116048
2.4450000000	0.8921895738
2.4500000000	0.9261565523
2.4550000000	0.9760694565
2.4600000000	1.0451280034
2.4650000000	1.1366122326
2.4700000000	1.2541747286
2.4750000000	1.4000967723
2.4800000000	1.5732270202
2.4850000000	1.7661785014
2.4900000000	1.9620537371
2.4950000000	2.1328122883
2.5000000000	2.2433656009
2.5050000000	2.2575787612
2.5100000000	2.1610233594
2.5150000000	1.9800544520
2.5200000000	1.7567827929
2.5250000000	1.5282038059
2.5300000000	1.3168684895
2.5350000000	1.1322520186
2.5400000000	0.9757493349
2.5450000000	0.8450384890
2.5500000000	0.7367545707
2.5550000000	0.6478742551
2.5600000000	0.5735550398
2.5650000000	0.5179359398
2.5700000000	0.4779718530
2.5750000000	0.4522375729
2.5800000000	0.4378767563
2.5850000000	0.4309828629
2.5900000000	0.4278897022
2.5950000000	0.4263143681
2.6000000000	0.4255207771
2.6050000000	0.4289133125
2.6100000000	0.4342887231
2.6150000000	0.4424701056
2.6200000000	0.4538947602
2.6250000000	0.4685896247
2.6300000000	0.4861399128
2.6350000000	0.5056652892
2.6400000000	0.5258206611
2.6450000000	0.5449003359
2.6500000000	0.5610978905
2.6550000000	0.5729322360
2.6600000000	0.5797153863
2.6650000000	0.5818514290
2.6700000000	0.5807510569
2.6750000000	0.5784763745
2.6800000000	0.5770255409
2.6850000000	0.5782654482
2.6900000000	0.5834962132
2.6950000000	0.5935168428
2.7000000000	0.6087104445
2.7050000000	0.6314529861
2.7100000000	0.6607213727
2.7150000000	0.6960424491
2.7200000000	0.7364381427
2.7250000000	0.7802481270
2.7300000000	0.8249658440
2.7350000000	0.8672119336
2.7400000000	0.9029666539
2.7450000000	0.9281486282
2.7500000000	0.9394681972
2.7550000000	0.9352679813
2.7600000000	0.9159714204
2.7650000000	0.8839299594
2.7700000000	0.8427418167
2.7750000000	0.7963935913
2.7800000000	0.7485407991
2.7850000000	0.7021078058
2.7900000000	0.6587899875
2.7950000000	0.6204425650
2.8000000000	0.5874493558
2.8050000000	0.5568913739
2.8100000000	0.5327983867
2.8150000000	0.5142219298
2.8200000000	0.5001316381
2.8250000000	0.4895820143
2.8300000000	0.4817694601
2.8350000000	0.4760274157
2.8400000000	0.4717926479
2.8450000000	0.4685869633
2.8500000000	0.4660263720
2.8550000000	0.4638559584
2.8600000000	0.4619894133
2.8650000000	0.4605217825
2.8700000000	0.4597053166
2.8750000000	0.4598869587
2.8800000000	0.4614315104
2.8850000000	0.4646523460
2.8900000000	0.4697631471
2.8950000000	0.4768488119
2.9000000000	0.4858511214
2.9050000000	0.4993165586
2.9100000000	0.5140829057
2.9150000000	0.5291642908
2.9200000000	0.5433147853
2.9250000000	0.5551959596
2.9300000000	0.5635651195
2.9350000000	0.5674931205
2.9400000000	0.5665441714
2.9450000000	0.5608590540
2.9500000000	0.5511024865
2.9550000000	0.5382937085
2.9600000000	0.5235916670
2.9650000000	0.5080941444
2.9700000000	0.4927039452
2.9750000000	0.4780703612
2.9800000000	0.4645931353
2.9850000000	0.4524656302
2.9900000000	0.4417328169
2.9950000000	0.4323476345
3.0000000000	0.4242169928
