# energy (eV)    P(omega), $W$ = 300 nm, $h$ = 300 nm, $s$ = 20 nm, $d/W = 5$, $E_{\rm e}$ = 200 keV
0.2000000000	0.1600499131
0.2050000000	0.1623492822
0.2100000000	0.1645105532
0.2150000000	0.1665380461
0.2200000000	0.1684354854
0.2250000000	0.1702059514
0.2300000000	0.1718517073
0.2350000000	0.1733741684
0.2400000000	0.1747737408
0.2450000000	0.1760494774
0.2500000000	0.1771992699
0.2550000000	0.1782190639
0.2600000000	0.1791029354
0.2650000000	0.1798426225
0.2700000000	0.1804268018
0.2750000000	0.1808406474
0.2800000000	0.1810649423
0.2850000000	0.1810751145
0.2900000000	0.1808395938
0.2950000000	0.1803185740
0.3000000000	0.1794607914
0.3050000000	0.1782014849
0.3100000000	0.1764575135
0.3150000000	0.1859664354
0.3200000000	0.1972612322
0.3250000000	0.2115392372
0.3300000000	0.2306457391
0.3350000000	0.2544361677
0.3400000000	0.2855933411
0.3450000000	0.3234171676
0.3500000000	0.3729178691
0.3550000000	0.4384489705
0.3600000000	0.5240762275
0.3650000000	0.6435056624
0.3700000000	0.8011353627
0.3750000000	1.0205700022
0.3800000000	1.3381613691
0.3850000000	1.8333309402
0.3900000000	2.6161789082
0.3950000000	3.9469084372
0.4000000000	6.4854444552
0.4050000000	12.1805532863
0.4100000000	27.7314487902
0.4150000000	89.0706143304
0.4200000000	56.6959402153
0.4250000000	-107.0223594287
0.4300000000	29.8232863474
0.4350000000	18.6083276158
0.4400000000	11.3923987950
0.4450000000	7.5054468070
0.4500000000	5.2663694131
0.4550000000	3.8876293976
0.4600000000	2.9891554456
0.4650000000	2.3765842205
0.4700000000	1.9434332085
0.4750000000	1.6300685999
0.4800000000	1.3976858330
0.4850000000	1.2228220923
0.4900000000	1.0893745425
0.4950000000	0.9865286186
0.5000000000	0.9068944138
0.5050000000	0.8450435702
0.5100000000	0.7974877445
0.5150000000	0.7616601289
0.5200000000	0.7348619601
0.5250000000	0.7158911487
0.5300000000	0.7034468408
0.5350000000	0.6965802802
0.5400000000	0.6945931755
0.5450000000	0.6969025500
0.5500000000	0.7033346828
0.5550000000	0.7135643608
0.5600000000	0.7274330761
0.5650000000	0.7448738591
0.5700000000	0.7658300086
0.5750000000	0.7904514508
0.5800000000	0.8189819162
0.5850000000	0.8515815303
0.5900000000	0.8885550155
0.5950000000	0.9302802776
0.6000000000	0.9772381045
0.6050000000	1.0301177218
0.6100000000	1.0895830309
0.6150000000	1.1565350831
0.6200000000	1.2321765768
0.6250000000	1.3176590620
0.6300000000	1.4146845575
0.6350000000	1.5253745675
0.6400000000	1.6519373901
0.6450000000	1.7975590181
0.6500000000	1.9664298266
0.6550000000	2.1629128260
0.6600000000	2.3937112091
0.6650000000	2.6674325785
0.6700000000	2.9941965592
0.6750000000	3.3894284001
0.6800000000	3.8738967073
0.6850000000	4.4747882288
0.6900000000	5.2342448546
0.6950000000	6.2111858469
0.7000000000	7.4992596893
0.7050000000	9.2416258093
0.7100000000	11.6809256191
0.7150000000	15.2491431080
0.7200000000	20.7506730360
0.7250000000	29.8862144194
0.7300000000	46.6609084480
0.7350000000	82.5675995836
0.7400000000	181.0817791108
0.7450000000	601.1712616406
0.7500000000	1863.8017731688
0.7550000000	469.2300083232
0.7600000000	155.5159290275
0.7650000000	74.5716225773
0.7700000000	43.4020185642
0.7750000000	28.3496533811
0.7800000000	19.9668200944
0.7850000000	14.8413954454
0.7900000000	11.4756288084
0.7950000000	9.1535046142
0.8000000000	7.4836472200
0.8050000000	6.2395577739
0.8100000000	5.2905481059
0.8150000000	4.5379589524
0.8200000000	3.9438103224
0.8250000000	3.4652752936
0.8300000000	3.0731498938
0.8350000000	2.7506801535
0.8400000000	2.4802936488
0.8450000000	2.2533553435
0.8500000000	2.0615113420
0.8550000000	1.8959119717
0.8600000000	1.7545428390
0.8650000000	1.6338178989
0.8700000000	1.5271155322
0.8750000000	1.4363971328
0.8800000000	1.3594898490
0.8850000000	1.2905310080
0.8900000000	1.2353601899
0.8950000000	1.1851657988
0.9000000000	1.1455442505
0.9050000000	1.1185581649
0.9100000000	1.0938427679
0.9150000000	1.0792196074
0.9200000000	1.0783473646
0.9250000000	1.0778864933
0.9300000000	1.0628105300
0.9350000000	1.0156164499
0.9400000000	0.7492226809
0.9450000000	-0.4646811702
0.9500000000	-6.8773083535
0.9550000000	-39.4263331920
0.9600000000	9.3124354120
0.9650000000	16.3675709991
0.9700000000	7.2645177234
0.9750000000	3.8154175057
0.9800000000	2.3917499533
0.9850000000	1.7257129485
0.9900000000	1.3417626896
0.9950000000	1.1088668375
1.0000000000	0.9601345830
1.0050000000	0.8658822125
1.0100000000	0.7927315757
1.0150000000	0.7392592038
1.0200000000	0.7032585625
1.0250000000	0.6729627615
1.0300000000	0.6498965701
1.0350000000	0.6323847797
1.0400000000	0.6211994019
1.0450000000	0.6117954359
1.0500000000	0.6054673526
1.0550000000	0.6018527142
1.0600000000	0.6017875222
1.0650000000	0.6029455587
1.0700000000	0.6062661203
1.0750000000	0.6117602204
1.0800000000	0.6200435360
1.0850000000	0.6305741709
1.0900000000	0.6462700478
1.0950000000	0.6649356719
1.1000000000	0.6872261710
1.1050000000	0.7128557640
1.1100000000	0.7426614671
1.1150000000	0.7773038669
1.1200000000	0.8175933940
1.1250000000	0.8644555881
1.1300000000	0.9192884137
1.1350000000	0.9837803190
1.1400000000	1.0598855429
1.1450000000	1.1510296982
1.1500000000	1.2610553879
1.1550000000	1.3954624908
1.1600000000	1.5620090923
1.1650000000	1.7707913149
1.1700000000	2.0405711889
1.1750000000	2.3963878644
1.1800000000	2.8795757973
1.1850000000	3.5580385374
1.1900000000	4.5599406628
1.1950000000	6.1309324728
1.2000000000	8.7934338104
1.2050000000	13.8222773566
1.2100000000	24.8821210055
1.2150000000	54.7804967025
1.2200000000	134.3543518567
1.2250000000	120.8272544510
1.2300000000	48.3395953652
1.2350000000	22.7909604954
1.2400000000	13.1187143754
1.2450000000	8.6860845327
1.2500000000	6.3572712346
1.2550000000	5.0240527340
1.2600000000	4.2250514429
1.2650000000	3.7386704041
1.2700000000	3.4669873679
1.2750000000	3.3468259171
1.2800000000	3.3496124865
1.2850000000	3.4648629037
1.2900000000	3.6957015178
1.2950000000	4.0552784671
1.3000000000	4.5849287120
1.3050000000	5.3384598061
1.3100000000	6.4132036446
1.3150000000	7.9768564524
1.3200000000	10.3296612081
1.3250000000	14.0449817908
1.3300000000	20.3742738727
1.3350000000	32.2232115348
1.3400000000	57.5460093963
1.3450000000	120.4241253320
1.3500000000	255.8223616981
1.3550000000	238.7455745086
1.3600000000	110.1388295468
1.3650000000	54.1231987794
1.3700000000	31.0389728601
1.3750000000	19.9589939751
1.3800000000	13.9173662120
1.3850000000	10.2785557151
1.3900000000	7.9345302974
1.3950000000	6.3363101096
1.4000000000	5.2013854511
1.4050000000	4.3703242340
1.4100000000	3.7475191756
1.4150000000	3.2775538775
1.4200000000	2.9241126211
1.4250000000	2.6873244490
1.4300000000	2.6004441967
1.4350000000	2.6482992236
1.4400000000	2.0393189052
1.4450000000	0.1745388131
1.4500000000	-2.8535112587
1.4550000000	-0.8005913565
1.4600000000	3.4535052769
1.4650000000	1.8700983156
1.4700000000	-1.7641695278
1.4750000000	-7.7235569902
1.4800000000	-3.4373952700
1.4850000000	5.6503128559
1.4900000000	4.5801550976
1.4950000000	2.9646310040
1.5000000000	2.0830224952
1.5050000000	1.6083022375
1.5100000000	1.3377239574
1.5150000000	1.1733991525
1.5200000000	1.0672458066
1.5250000000	1.0012876598
1.5300000000	0.9509007968
1.5350000000	0.9161668926
1.5400000000	0.8932843316
1.5450000000	0.8802130263
1.5500000000	0.8756359395
1.5550000000	0.8795855851
1.5600000000	0.8944064646
1.5650000000	0.9188923273
1.5700000000	0.9585449907
1.5750000000	1.0200737988
1.5800000000	1.1160767999
1.5850000000	1.2710768833
1.5900000000	1.5367400096
1.5950000000	2.0273986246
1.6000000000	2.9845547301
1.6050000000	4.5671601921
1.6100000000	5.3000864033
1.6150000000	3.9260689035
1.6200000000	2.6371098150
1.6250000000	1.9567340435
1.6300000000	1.6151322603
1.6350000000	1.4392795018
1.6400000000	1.3501637695
1.6450000000	1.3110623947
1.6500000000	1.3035862648
1.6550000000	1.3191211522
1.6600000000	1.3525265534
1.6650000000	1.4014556158
1.6700000000	1.4650168493
1.6750000000	1.5432168998
1.6800000000	1.6367560150
1.6850000000	1.7467199601
1.6900000000	1.8740698855
1.6950000000	2.0170024329
1.7000000000	2.1731290432
1.7050000000	2.3331743533
1.7100000000	2.5158232472
1.7150000000	2.9693786658
1.7200000000	3.7649604487
1.7250000000	4.4941039736
1.7300000000	5.2767692934
1.7350000000	6.1367234202
1.7400000000	6.9804269193
1.7450000000	8.0640728144
1.7500000000	9.7028679738
1.7550000000	12.1420889170
1.7600000000	15.7916390823
1.7650000000	21.4174622921
1.7700000000	30.4796752756
1.7750000000	45.7471360971
1.7800000000	71.7625545045
1.7850000000	110.1291367582
1.7900000000	136.8607427578
1.7950000000	116.5393406511
1.8000000000	77.5600143672
1.8050000000	48.9808004876
1.8100000000	32.2941175785
1.8150000000	22.5134052528
1.8200000000	16.4942243174
1.8250000000	12.5919699628
1.8300000000	9.9424732133
1.8350000000	8.0723455348
1.8400000000	6.7098660672
1.8450000000	5.6902031736
1.8500000000	4.9094764895
1.8550000000	4.3026851847
1.8600000000	3.8244847236
1.8650000000	3.4440574651
1.8700000000	3.1394842618
1.8750000000	2.8946716004
1.8800000000	2.6968519681
1.8850000000	2.5347412639
1.8900000000	2.3953346159
1.8950000000	2.2592250194
1.9000000000	2.0929020859
1.9050000000	1.7781250263
1.9100000000	1.3448542133
1.9150000000	1.1147896689
1.9200000000	2.7290428027
1.9250000000	7.1925479182
1.9300000000	10.7324436967
1.9350000000	10.5676559672
1.9400000000	8.3119417138
1.9450000000	6.1249259884
1.9500000000	4.5893749543
1.9550000000	3.5832238864
1.9600000000	2.9183216825
1.9650000000	2.4732939402
1.9700000000	2.1520120575
1.9750000000	1.9165001703
1.9800000000	1.7366976065
1.9850000000	1.5907949102
1.9900000000	1.4621041060
1.9950000000	1.3360611916
2.0000000000	1.2105424134
2.0050000000	1.1303585370
2.0100000000	1.1763081537
2.0150000000	1.3028801182
2.0200000000	1.3809338473
2.0250000000	1.4016879913
2.0300000000	1.4063880734
2.0350000000	1.4149195525
2.0400000000	1.4346736219
2.0450000000	1.4675366041
2.0500000000	1.5147338048
2.0550000000	1.5773783603
2.0600000000	1.6554712861
2.0650000000	1.7442781272
2.0700000000	1.8320575694
2.0750000000	1.9100091194
2.0800000000	1.9858933235
2.0850000000	2.0757622819
2.0900000000	2.1903740720
2.0950000000	2.3342565382
2.1000000000	2.5122765355
2.1050000000	2.7228196659
2.1100000000	2.9806829998
2.1150000000	3.2966829379
2.1200000000	3.6859892417
2.1250000000	4.1698803989
2.1300000000	4.7783509656
2.1350000000	5.5542243333
2.1400000000	6.5593358821
2.1450000000	7.8840895966
2.1500000000	9.6602071865
2.1550000000	12.0741103984
2.1600000000	15.3643897307
2.1650000000	19.7331008827
2.1700000000	25.0994196870
2.1750000000	30.4346884772
2.1800000000	33.7313110689
2.1850000000	33.9028714696
2.1900000000	32.4044667271
2.1950000000	31.2386262941
2.2000000000	30.7217840716
2.2050000000	29.2848807399
2.2100000000	26.2337540753
2.2150000000	22.4821941072
2.2200000000	19.1142710056
2.2250000000	16.3309630190
2.2300000000	13.8805849309
2.2350000000	11.6655173945
2.2400000000	9.7630751289
2.2450000000	8.2409255043
2.2500000000	7.0740455642
2.2550000000	6.1974241787
2.2600000000	5.5409997545
2.2650000000	5.0345776813
2.2700000000	4.6022917667
2.2750000000	4.1694114920
2.2800000000	3.7034536566
2.2850000000	3.2601488936
2.2900000000	2.9538860729
2.2950000000	2.8493934443
2.3000000000	2.8869563874
2.3050000000	2.9442052426
2.3100000000	2.9490837263
2.3150000000	2.9021810852
2.3200000000	2.8346896221
2.3250000000	2.7788267617
2.3300000000	2.7510783776
2.3350000000	2.7542801868
2.3400000000	2.7792083045
2.3450000000	2.8049825464
2.3500000000	2.8053099885
2.3550000000	2.7634160211
2.3600000000	2.6840480051
2.3650000000	2.5879504607
2.3700000000	2.4965059726
2.3750000000	2.4224843085
2.3800000000	2.3700314553
2.3850000000	2.3379698745
2.3900000000	2.3236200377
2.3950000000	2.3238795120
2.4000000000	2.3395945802
2.4050000000	2.3759391582
2.4100000000	2.4346490298
2.4150000000	2.5181262660
2.4200000000	2.6278150549
2.4250000000	2.7662398053
2.4300000000	2.9370809260
2.4350000000	3.1452753846
2.4400000000	3.3971938824
2.4450000000	3.7009706829
2.4500000000	4.0668686316
2.4550000000	4.5077872208
2.4600000000	5.0395752338
2.4650000000	5.6812482372
2.4700000000	6.4546151867
2.4750000000	7.3815224529
2.4800000000	8.4845332737
2.4850000000	9.7725810730
2.4900000000	11.2330785454
2.4950000000	12.8137601702
2.5000000000	14.4040873225
2.5050000000	15.8917545146
2.5100000000	16.8967399469
2.5150000000	17.1998674336
2.5200000000	16.7489273825
2.5250000000	15.6831222708
2.5300000000	14.2449273619
2.5350000000	12.6681798369
2.5400000000	11.1180644711
2.5450000000	9.6879027204
2.5500000000	8.4191876199
2.5550000000	7.3213621395
2.5600000000	6.3793311897
2.5650000000	5.5873189854
2.5700000000	4.9266814016
2.5750000000	4.3857474426
2.5800000000	3.9557991641
2.5850000000	3.6273585589
2.5900000000	3.3848358106
2.5950000000	3.2063125126
2.6000000000	3.0689667999
2.6050000000	2.9713573202
2.6100000000	2.8868377116
2.6150000000	2.8140683882
2.6200000000	2.7544874800
2.6250000000	2.7096878763
2.6300000000	2.6807331332
2.6350000000	2.6681659452
2.6400000000	2.6723013117
2.6450000000	2.6934326137
2.6500000000	2.7321338155
2.6550000000	2.7885656133
2.6600000000	2.8635942787
2.6650000000	2.9580947798
2.6700000000	3.0731419366
2.6750000000	3.2100384170
2.6800000000	3.3702279068
2.6850000000	3.5551874204
2.6900000000	3.7661270473
2.6950000000	4.0037490767
2.7000000000	4.2678138383
2.7050000000	4.5883560187
2.7100000000	4.9381910982
2.7150000000	5.3105102753
2.7200000000	5.6954093648
2.7250000000	6.0804445129
2.7300000000	6.4515721907
2.7350000000	6.7939577011
2.7400000000	7.0921697334
2.7450000000	7.3325076253
2.7500000000	7.4937210869
2.7550000000	7.5629434323
2.7600000000	7.5304117252
2.7650000000	7.3949886640
2.7700000000	7.1657520970
2.7750000000	6.8608919651
2.7800000000	6.5041180347
2.7850000000	6.1205832885
2.7900000000	5.7328558545
2.7950000000	5.3590333257
2.8000000000	5.0119124245
2.8050000000	4.6607060117
2.8100000000	4.3601171709
2.8150000000	4.1093395894
2.8200000000	3.9043365505
2.8250000000	3.7397875373
2.8300000000	3.6103330394
2.8350000000	3.5113864529
2.8400000000	3.4381192475
2.8450000000	3.3906997050
2.8500000000	3.3656187522
2.8550000000	3.3615394005
2.8600000000	3.3774633322
2.8650000000	3.4124913005
2.8700000000	3.4656175495
2.8750000000	3.5355662381
2.8800000000	3.6206647613
2.8850000000	3.7187379138
2.8900000000	3.8271710454
2.8950000000	3.9430067910
2.9000000000	4.0631349804
2.9050000000	4.2075026216
2.9100000000	4.3460052760
2.9150000000	4.4742853921
2.9200000000	4.5877690910
2.9250000000	4.6812662705
2.9300000000	4.7499978889
2.9350000000	4.7865332499
2.9400000000	4.7876645709
2.9450000000	4.7520250826
2.9500000000	4.6816713971
2.9550000000	4.5819514097
2.9600000000	4.4605846144
2.9650000000	4.3263179494
2.9700000000	4.1876098459
2.9750000000	4.0516890052
2.9800000000	3.9240943626
2.9850000000	3.8086050738
2.9900000000	3.7074942348
2.9950000000	3.6218290280
3.0000000000	3.5518341172
