# energy (eV)    P(omega), $W$ = 300 nm, $h$ = 300 nm, $s$ = 20 nm, $d/W = 5$, $E_{\rm e}$ = 200 keV
0.2000000000	0.0623054880
0.2050000000	0.0632393863
0.2100000000	0.0641128534
0.2150000000	0.0649278561
0.2200000000	0.0656860629
0.2250000000	0.0663888951
0.2300000000	0.0670374334
0.2350000000	0.0676323942
0.2400000000	0.0681740386
0.2450000000	0.0686621526
0.2500000000	0.0690959253
0.2550000000	0.0694738195
0.2600000000	0.0697935355
0.2650000000	0.0700517329
0.2700000000	0.0702438927
0.2750000000	0.0703640268
0.2800000000	0.0704043645
0.2850000000	0.0703549196
0.2900000000	0.0702028978
0.2950000000	0.0699320710
0.3000000000	0.0695217061
0.3050000000	0.0689453857
0.3100000000	0.0681692876
0.3150000000	0.0720408407
0.3200000000	0.0766387881
0.3250000000	0.0824540510
0.3300000000	0.0902415836
0.3350000000	0.0999351650
0.3400000000	0.1126290324
0.3450000000	0.1280260109
0.3500000000	0.1481679721
0.3550000000	0.1748195413
0.3600000000	0.2096187336
0.3650000000	0.2581326905
0.3700000000	0.3221029031
0.3750000000	0.4110888581
0.3800000000	0.5397892731
0.3850000000	0.7403310580
0.3900000000	1.0571475360
0.3950000000	1.5953065605
0.4000000000	2.6212448651
0.4050000000	4.9214125989
0.4100000000	11.1978284902
0.4150000000	35.9376528168
0.4200000000	22.8974137764
0.4250000000	-43.1024670696
0.4300000000	11.9862924014
0.4350000000	7.4696269400
0.4400000000	4.5663606953
0.4450000000	3.0035331808
0.4500000000	2.1038356339
0.4550000000	1.5501581105
0.4600000000	1.1895455890
0.4650000000	0.9438051096
0.4700000000	0.7701175046
0.4750000000	0.6445012389
0.4800000000	0.5513662892
0.4850000000	0.4812842819
0.4900000000	0.4277888120
0.4950000000	0.3865389296
0.5000000000	0.3545674646
0.5050000000	0.3296973757
0.5100000000	0.3105268307
0.5150000000	0.2960238497
0.5200000000	0.2851096194
0.5250000000	0.2772981617
0.5300000000	0.2720677606
0.5350000000	0.2690369199
0.5400000000	0.2679243927
0.5450000000	0.2684952044
0.5500000000	0.2706751407
0.5550000000	0.2743317776
0.5600000000	0.2793975309
0.5650000000	0.2858420948
0.5700000000	0.2936379097
0.5750000000	0.3028394796
0.5800000000	0.3135353815
0.5850000000	0.3257834799
0.5900000000	0.3396957495
0.5950000000	0.3554130320
0.6000000000	0.3731147425
0.6050000000	0.3930608189
0.6100000000	0.4154993452
0.6150000000	0.4407691888
0.6200000000	0.4693223606
0.6250000000	0.5015922643
0.6300000000	0.5382194591
0.6350000000	0.5800023119
0.6400000000	0.6277715678
0.6450000000	0.6827262892
0.6500000000	0.7464430570
0.6550000000	0.8205631129
0.6600000000	0.9076088007
0.6650000000	1.0108168283
0.6700000000	1.1339922433
0.6750000000	1.2829377233
0.6800000000	1.4654561800
0.6850000000	1.6917699971
0.6900000000	1.9777115231
0.6950000000	2.3454240232
0.7000000000	2.8300816603
0.7050000000	3.4854574561
0.7100000000	4.4026633766
0.7150000000	5.7438899463
0.7200000000	7.8110883780
0.7250000000	11.2425416428
0.7300000000	17.5410870112
0.7350000000	31.0183192295
0.7400000000	67.9804841461
0.7450000000	225.5295609765
0.7500000000	698.7088605454
0.7550000000	175.7796376507
0.7600000000	58.2155637063
0.7650000000	27.8942530028
0.7700000000	16.2226890648
0.7750000000	10.5883416778
0.7800000000	7.4516377522
0.7850000000	5.5344644528
0.7900000000	4.2759244141
0.7950000000	3.4079275371
0.8000000000	2.7839490256
0.8050000000	2.3192189803
0.8100000000	1.9648324369
0.8150000000	1.6839007391
0.8200000000	1.4621795255
0.8250000000	1.2836502947
0.8300000000	1.1374054640
0.8350000000	1.0171642089
0.8400000000	0.9163660388
0.8450000000	0.8317827778
0.8500000000	0.7602852513
0.8550000000	0.6985853108
0.8600000000	0.6459140334
0.8650000000	0.6009240224
0.8700000000	0.5611713241
0.8750000000	0.5273564457
0.8800000000	0.4986644360
0.8850000000	0.4729404024
0.8900000000	0.4523069303
0.8950000000	0.4335367878
0.9000000000	0.4186625698
0.9050000000	0.4084223897
0.9100000000	0.3990385148
0.9150000000	0.3933512813
0.9200000000	0.3926783464
0.9250000000	0.3921820670
0.9300000000	0.3864392716
0.9350000000	0.3691806703
0.9400000000	0.2729839825
0.9450000000	-0.1643026635
0.9500000000	-2.4721331515
0.9550000000	-14.1781170246
0.9600000000	3.3455588646
0.9650000000	5.8771338014
0.9700000000	2.6067628048
0.9750000000	1.3684894113
0.9800000000	0.8576447636
0.9850000000	0.6187197324
0.9900000000	0.4810546108
0.9950000000	0.3975772612
1.0000000000	0.3442767249
1.0050000000	0.3104861579
1.0100000000	0.2842894790
1.0150000000	0.2651510916
1.0200000000	0.2522608112
1.0250000000	0.2414407258
1.0300000000	0.2332206893
1.0350000000	0.2270019875
1.0400000000	0.2230483795
1.0450000000	0.2197602234
1.0500000000	0.2175905437
1.0550000000	0.2164109227
1.0600000000	0.2165117663
1.0650000000	0.2170848056
1.0700000000	0.2184595209
1.0750000000	0.2206416631
1.0800000000	0.2238473799
1.0850000000	0.2279154244
1.0900000000	0.2339169647
1.0950000000	0.2410443106
1.1000000000	0.2495368038
1.1050000000	0.2593241565
1.1100000000	0.2707157996
1.1150000000	0.2839677902
1.1200000000	0.2993839957
1.1250000000	0.3173603981
1.1300000000	0.3384288157
1.1350000000	0.3632508264
1.1400000000	0.3925801287
1.1450000000	0.4277914794
1.1500000000	0.4703807613
1.1550000000	0.5225100761
1.1600000000	0.5872297820
1.1650000000	0.6684982575
1.1700000000	0.7737291402
1.1750000000	0.9127656884
1.1800000000	1.1018794583
1.1850000000	1.3678174665
1.1900000000	1.7609896337
1.1950000000	2.3781833087
1.2000000000	3.4250261342
1.2050000000	5.4032826353
1.2100000000	9.7550751667
1.2150000000	21.5180913944
1.2200000000	52.8101322355
1.2250000000	47.4483658956
1.2300000000	18.9282101955
1.2350000000	8.8786068570
1.2400000000	5.0720534689
1.2450000000	3.3243166271
1.2500000000	2.4023710623
1.2550000000	1.8703667314
1.2600000000	1.5467209669
1.2650000000	1.3440917818
1.2700000000	1.2233961026
1.2750000000	1.1592941115
1.2800000000	1.1397351453
1.2850000000	1.1594701943
1.2900000000	1.2181053156
1.2950000000	1.3186969882
1.3000000000	1.4736453071
1.3050000000	1.6988550717
1.3100000000	2.0239588611
1.3150000000	2.5002230456
1.3200000000	3.2198031692
1.3250000000	4.3583506242
1.3300000000	6.3005381716
1.3350000000	9.9382501836
1.3400000000	17.7130917210
1.3450000000	37.0143716763
1.3500000000	78.5551886008
1.3550000000	73.2650857914
1.3600000000	33.7863130156
1.3650000000	16.6004865241
1.3700000000	9.5201695150
1.3750000000	6.1223065907
1.3800000000	4.2696032517
1.3850000000	3.1535560341
1.3900000000	2.4342550797
1.3950000000	1.9435020884
1.4000000000	1.5944284931
1.4050000000	1.3380535954
1.4100000000	1.1447171662
1.4150000000	0.9967077243
1.4200000000	0.8815421822
1.4250000000	0.7959459442
1.4300000000	0.7417406475
1.4350000000	0.7063319184
1.4400000000	0.4865349020
1.4450000000	-0.1229609493
1.4500000000	-1.1826415977
1.4550000000	-0.3944502662
1.4600000000	1.2054565398
1.4650000000	0.6976252338
1.4700000000	-0.4482183144
1.4750000000	-2.2619777755
1.4800000000	-0.9981682578
1.4850000000	1.7087402794
1.4900000000	1.3832797956
1.4950000000	0.8973866889
1.5000000000	0.6317432272
1.5050000000	0.4879413951
1.5100000000	0.4056242526
1.5150000000	0.3551535041
1.5200000000	0.3220942421
1.5250000000	0.3011072078
1.5300000000	0.2845665952
1.5350000000	0.2725463890
1.5400000000	0.2638329583
1.5450000000	0.2577021915
1.5500000000	0.2536524097
1.5550000000	0.2514735416
1.5600000000	0.2515933190
1.5650000000	0.2531378054
1.5700000000	0.2570277758
1.5750000000	0.2639801283
1.5800000000	0.2754250462
1.5850000000	0.2941799919
1.5900000000	0.3262067540
1.5950000000	0.3846868634
1.6000000000	0.4974062705
1.6050000000	0.6824281333
1.6100000000	0.7688394803
1.6150000000	0.6131423240
1.6200000000	0.4687384798
1.6250000000	0.3953985457
1.6300000000	0.3618251331
1.6350000000	0.3480951185
1.6400000000	0.3451840626
1.6450000000	0.3489653523
1.6500000000	0.3574310546
1.6550000000	0.3697610675
1.6600000000	0.3855383245
1.6650000000	0.4047114342
1.6700000000	0.4274430348
1.6750000000	0.4540628923
1.6800000000	0.4850509694
1.6850000000	0.5210473788
1.6900000000	0.5627946293
1.6950000000	0.6107224663
1.7000000000	0.6658853801
1.7050000000	0.7296963758
1.7100000000	0.8070399272
1.7150000000	0.9371415527
1.7200000000	1.1336766650
1.7250000000	1.3459717575
1.7300000000	1.5983218721
1.7350000000	1.8713957055
1.7400000000	2.1236164692
1.7450000000	2.4415290491
1.7500000000	2.9288060771
1.7550000000	3.6596150494
1.7600000000	4.7560380848
1.7650000000	6.4475325636
1.7700000000	9.1723480785
1.7750000000	13.7617663864
1.7800000000	21.5784072215
1.7850000000	33.0972596102
1.7900000000	41.1042996529
1.7950000000	34.9736762726
1.8000000000	23.2538570159
1.8050000000	14.6684806750
1.8100000000	9.6579894336
1.8150000000	6.7219202401
1.8200000000	4.9151496556
1.8250000000	3.7436015247
1.8300000000	2.9477247555
1.8350000000	2.3853557745
1.8400000000	1.9748967935
1.8450000000	1.6667875803
1.8500000000	1.4297613371
1.8550000000	1.2442143910
1.8600000000	1.0963591545
1.8650000000	0.9767186027
1.8700000000	0.8783879443
1.8750000000	0.7960720079
1.8800000000	0.7252648261
1.8850000000	0.6615746223
1.8900000000	0.5995675845
1.8950000000	0.5310121187
1.9000000000	0.4419595726
1.9050000000	0.2868801337
1.9100000000	0.0642023939
1.9150000000	-0.1499257862
1.9200000000	0.1105770692
1.9250000000	1.1499000948
1.9300000000	1.9801364556
1.9350000000	1.9984310579
1.9400000000	1.6040515129
1.9450000000	1.2155147017
1.9500000000	0.9401456525
1.9550000000	0.7580112135
1.9600000000	0.6366448265
1.9650000000	0.5557718375
1.9700000000	0.4962456914
1.9750000000	0.4525964874
1.9800000000	0.4194663052
1.9850000000	0.3930127139
1.9900000000	0.3703749849
1.9950000000	0.3491278718
2.0000000000	0.3288360328
2.0050000000	0.3167657033
2.0100000000	0.3248747218
2.0150000000	0.3460241608
2.0200000000	0.3603045625
2.0250000000	0.3664962994
2.0300000000	0.3712046050
2.0350000000	0.3774858388
2.0400000000	0.3868235248
2.0450000000	0.3998448994
2.0500000000	0.4171863475
2.0550000000	0.4394806108
2.0600000000	0.4667642948
2.0650000000	0.4968671136
2.0700000000	0.5243857126
2.0750000000	0.5451017429
2.0800000000	0.5621562393
2.0850000000	0.5823721402
2.0900000000	0.6100914166
2.0950000000	0.6468221496
2.1000000000	0.6937244977
2.1050000000	0.7500958959
2.1100000000	0.8198635975
2.1150000000	0.9058437739
2.1200000000	1.0120847183
2.1250000000	1.1443304222
2.1300000000	1.3107184616
2.1350000000	1.5228920842
2.1400000000	1.7976666948
2.1450000000	2.1596210321
2.1500000000	2.6445485891
2.1550000000	3.3030749419
2.1600000000	4.1999736353
2.1650000000	5.3901402114
2.1700000000	6.8526580913
2.1750000000	8.3110346768
2.1800000000	9.2269277000
2.1850000000	9.3127575348
2.1900000000	8.9649773453
2.1950000000	8.7182191215
2.2000000000	8.6320319242
2.2050000000	8.2266142677
2.2100000000	7.2966314213
2.2150000000	6.1265114206
2.2200000000	5.0622414048
2.2250000000	4.1997882471
2.2300000000	3.4915531706
2.2350000000	2.8986251144
2.2400000000	2.4116838099
2.2450000000	2.0271543595
2.2500000000	1.7291699246
2.2550000000	1.4985662246
2.2600000000	1.3175930979
2.2650000000	1.1702446889
2.2700000000	1.0413642801
2.2750000000	0.9181360452
2.2800000000	0.7975720324
2.2850000000	0.6943879447
2.2900000000	0.6336649915
2.2950000000	0.6266568394
2.3000000000	0.6540231472
2.3050000000	0.6828769781
2.3100000000	0.6930580309
2.3150000000	0.6851971225
2.3200000000	0.6680090433
2.3250000000	0.6504513835
2.3300000000	0.6372797632
2.3350000000	0.6298815895
2.3400000000	0.6272111370
2.3450000000	0.6262274285
2.3500000000	0.6230138421
2.3550000000	0.6150682920
2.3600000000	0.6030829979
2.3650000000	0.5901099897
2.3700000000	0.5792515263
2.3750000000	0.5722322593
2.3800000000	0.5693299397
2.3850000000	0.5698533302
2.3900000000	0.5729192497
2.3950000000	0.5776807397
2.4000000000	0.5845592713
2.4050000000	0.5953463026
2.4100000000	0.6108014300
2.4150000000	0.6319752543
2.4200000000	0.6595928507
2.4250000000	0.6944318767
2.4300000000	0.7374471799
2.4350000000	0.7898630026
2.4400000000	0.8532546636
2.4450000000	0.9296419686
2.4500000000	1.0215847430
2.4550000000	1.1323132387
2.4600000000	1.2657984162
2.4650000000	1.4268283383
2.4700000000	1.6209114587
2.4750000000	1.8536024691
2.4800000000	2.1307616275
2.4850000000	2.4548215568
2.4900000000	2.8227430663
2.4950000000	3.2211026104
2.5000000000	3.6209263179
2.5050000000	3.9914899286
2.5100000000	4.2344689239
2.5150000000	4.2947082676
2.5200000000	4.1629847196
2.5250000000	3.8801488172
2.5300000000	3.5111169457
2.5350000000	3.1147860112
2.5400000000	2.7300282424
2.5450000000	2.3771302067
2.5500000000	2.0642620882
2.5550000000	1.7928275503
2.5600000000	1.5589549295
2.5650000000	1.3617925767
2.5700000000	1.1971539736
2.5750000000	1.0625097288
2.5800000000	0.9559264472
2.5850000000	0.8751224590
2.5900000000	0.8161082916
2.5950000000	0.7731579000
2.6000000000	0.7402854796
2.6050000000	0.7168288037
2.6100000000	0.6960323053
2.6150000000	0.6776171675
2.6200000000	0.6620158144
2.6250000000	0.6496717819
2.6300000000	0.6408696177
2.6350000000	0.6357460037
2.6400000000	0.6343726421
2.6450000000	0.6368223109
2.6500000000	0.6432445766
2.6550000000	0.6536726875
2.6600000000	0.6683354409
2.6650000000	0.6874505570
2.6700000000	0.7112742999
2.6750000000	0.7401065461
2.6800000000	0.7742679834
2.6850000000	0.8140863124
2.6900000000	0.8598515188
2.6950000000	0.9117855106
2.7000000000	0.9699694096
2.7050000000	1.0412107524
2.7100000000	1.1200921517
2.7150000000	1.2056505096
2.7200000000	1.2962676559
2.7250000000	1.3896429628
2.7300000000	1.4827989958
2.7350000000	1.5720921733
2.7400000000	1.6531887304
2.7450000000	1.7217645954
2.7500000000	1.7713981363
2.7550000000	1.7978387141
2.7600000000	1.7978762621
2.7650000000	1.7708035947
2.7700000000	1.7187766761
2.7750000000	1.6464508640
2.7800000000	1.5599706604
2.7850000000	1.4658716287
2.7900000000	1.3700090108
2.7950000000	1.2770762220
2.8000000000	1.1903943111
2.8050000000	1.1023464765
2.8100000000	1.0265518982
2.8150000000	0.9628412187
2.8200000000	0.9102194542
2.8250000000	0.8673635928
2.8300000000	0.8329391414
2.8350000000	0.8058103467
2.8400000000	0.7847687494
2.8450000000	0.7698882844
2.8500000000	0.7602809473
2.8550000000	0.7556111590
2.8600000000	0.7556314105
2.8650000000	0.7601312793
2.8700000000	0.7689060522
2.8750000000	0.7817217682
2.8800000000	0.7982922939
2.8850000000	0.8182554444
2.8900000000	0.8411793399
2.8950000000	0.8665512168
2.9000000000	0.8938081274
2.9050000000	0.9282726506
2.9100000000	0.9627158048
2.9150000000	0.9959079407
2.9200000000	1.0264377944
2.9250000000	1.0526764425
2.9300000000	1.0731069778
2.9350000000	1.0856008061
2.9400000000	1.0891442476
2.9450000000	1.0832417655
2.9500000000	1.0682978408
2.9550000000	1.0455837243
2.9600000000	1.0169897203
2.9650000000	0.9846919804
2.9700000000	0.9508196913
2.9750000000	0.9172082919
2.9800000000	0.8852772093
2.9850000000	0.8560074378
2.9900000000	0.8300037308
2.9950000000	0.8075589552
3.0000000000	0.7887582011
