# energy (eV)    P(omega), $W$ = 300 nm, $h$ = 300 nm, $s$ = 20 nm, $d/W = 5$, $E_{\rm e}$ = 200 keV
0.2000000000	0.0906948455
0.2050000000	0.0919977089
0.2100000000	0.0932223696
0.2150000000	0.0943712729
0.2200000000	0.0954465270
0.2250000000	0.0964498752
0.2300000000	0.0973825978
0.2350000000	0.0982454950
0.2400000000	0.0990387955
0.2450000000	0.0997619609
0.2500000000	0.1004137956
0.2550000000	0.1009920012
0.2600000000	0.1014932200
0.2650000000	0.1019127704
0.2700000000	0.1022442355
0.2750000000	0.1024792146
0.2800000000	0.1026068188
0.2850000000	0.1026131254
0.2900000000	0.1024802470
0.2950000000	0.1021856288
0.3000000000	0.1017002254
0.3050000000	0.1009873435
0.3100000000	0.0999998754
0.3150000000	0.1053875400
0.3200000000	0.1117870648
0.3250000000	0.1198768112
0.3300000000	0.1307022659
0.3350000000	0.1441815828
0.3400000000	0.1618347974
0.3450000000	0.1832653549
0.3500000000	0.2113119675
0.3550000000	0.2484413556
0.3600000000	0.2969572829
0.3650000000	0.3646255317
0.3700000000	0.4539384292
0.3750000000	0.5782705394
0.3800000000	0.7582192373
0.3850000000	1.0387855930
0.3900000000	1.4823544657
0.3950000000	2.2363614517
0.4000000000	3.6747316687
0.4050000000	6.9016734667
0.4100000000	15.7131035674
0.4150000000	50.4691810514
0.4200000000	32.1249438166
0.4250000000	-60.6417263793
0.4300000000	16.8988583759
0.4350000000	10.5441704437
0.4400000000	6.4554108708
0.4450000000	4.2529390937
0.4500000000	2.9842009655
0.4550000000	2.2029567286
0.4600000000	1.6938469819
0.4650000000	1.3467395968
0.4700000000	1.1012982421
0.4750000000	0.9237325001
0.4800000000	0.7920543529
0.4850000000	0.6929689708
0.4900000000	0.6173518963
0.4950000000	0.5590751878
0.5000000000	0.5139514467
0.5050000000	0.4789047472
0.5100000000	0.4519584698
0.5150000000	0.4316581767
0.5200000000	0.4164746097
0.5250000000	0.4057266463
0.5300000000	0.3986771647
0.5350000000	0.3947885722
0.5400000000	0.3936651973
0.5450000000	0.3949767098
0.5500000000	0.3986247085
0.5550000000	0.4044249285
0.5600000000	0.4122875869
0.5650000000	0.4221747643
0.5700000000	0.4340543676
0.5750000000	0.4480114006
0.5800000000	0.4641840399
0.5850000000	0.4826630757
0.5900000000	0.5036212542
0.5950000000	0.5272728007
0.6000000000	0.5538902586
0.6050000000	0.5838643064
0.6100000000	0.6175712810
0.6150000000	0.6555219383
0.6200000000	0.6983980211
0.6250000000	0.7468522728
0.6300000000	0.8018494719
0.6350000000	0.8645921667
0.6400000000	0.9363321174
0.6450000000	1.0188752699
0.6500000000	1.1145969032
0.6550000000	1.2259701526
0.6600000000	1.3567946452
0.6650000000	1.5119495696
0.6700000000	1.6971711270
0.6750000000	1.9212030199
0.6800000000	2.1958177915
0.6850000000	2.5364260812
0.6900000000	2.9669157562
0.6950000000	3.5206849143
0.7000000000	4.2508177228
0.7050000000	5.2384634782
0.7100000000	6.6211625936
0.7150000000	8.6437836569
0.7200000000	11.7622954869
0.7250000000	16.9407356378
0.7300000000	26.4494110856
0.7350000000	46.8030263734
0.7400000000	102.6456358792
0.7450000000	340.7731886333
0.7500000000	1056.4973179059
0.7550000000	265.9842553643
0.7600000000	88.1549098613
0.7650000000	42.2714065405
0.7700000000	24.6027990314
0.7750000000	16.0702943523
0.7800000000	11.3184373901
0.7850000000	8.4130564137
0.7900000000	6.5051461122
0.7950000000	5.1888303081
0.8000000000	4.2422560138
0.8050000000	3.5370311497
0.8100000000	2.9990744658
0.8150000000	2.5724601718
0.8200000000	2.2356593233
0.8250000000	1.9643951999
0.8300000000	1.7421132153
0.8350000000	1.5593163885
0.8400000000	1.4060435286
0.8450000000	1.2773998455
0.8500000000	1.1686498877
0.8550000000	1.0747770194
0.8600000000	0.9946394526
0.8650000000	0.9262044725
0.8700000000	0.8657183404
0.8750000000	0.8142931066
0.8800000000	0.7706970765
0.8850000000	0.7316067224
0.8900000000	0.7003326375
0.8950000000	0.6718794753
0.9000000000	0.6494199869
0.9050000000	0.6341235880
0.9100000000	0.6201143146
0.9150000000	0.6118264079
0.9200000000	0.6113341339
0.9250000000	0.6110749355
0.9300000000	0.6025297166
0.9350000000	0.5757750535
0.9400000000	0.4247464527
0.9450000000	-0.2634682791
0.9500000000	-3.8990795769
0.9550000000	-22.3526619062
0.9600000000	5.2796750288
0.9650000000	9.2796022266
0.9700000000	4.1186303232
0.9750000000	2.1631593958
0.9800000000	1.3560080045
0.9850000000	0.9783965347
0.9900000000	0.7607145235
0.9950000000	0.6286732279
1.0000000000	0.5443488074
1.0050000000	0.4909121025
1.0100000000	0.4494389542
1.0150000000	0.4191224629
1.0200000000	0.3987117333
1.0250000000	0.3815352520
1.0300000000	0.3684575895
1.0350000000	0.3585289695
1.0400000000	0.3521871596
1.0450000000	0.3468551887
1.0500000000	0.3432670253
1.0550000000	0.3412171793
1.0600000000	0.3411796753
1.0650000000	0.3418355172
1.0700000000	0.3437172826
1.0750000000	0.3468312139
1.0800000000	0.3515263955
1.0850000000	0.3574954231
1.0900000000	0.3663924962
1.0950000000	0.3769729921
1.1000000000	0.3896083182
1.1050000000	0.4041362885
1.1100000000	0.4210314154
1.1150000000	0.4406681295
1.1200000000	0.4635058517
1.1250000000	0.4900690067
1.1300000000	0.5211500362
1.1350000000	0.5577059524
1.1400000000	0.6008444753
1.1450000000	0.6525070623
1.1500000000	0.7148717519
1.1550000000	0.7910558283
1.1600000000	0.8854565095
1.1650000000	1.0037962544
1.1700000000	1.1567090539
1.1750000000	1.3583868938
1.1800000000	1.6322577379
1.1850000000	2.0168085700
1.1900000000	2.5846820723
1.1950000000	3.4751100277
1.2000000000	4.9841952672
1.2050000000	7.8345016958
1.2100000000	14.1031269762
1.2150000000	31.0492899409
1.2200000000	76.1512357451
1.2250000000	68.4844480300
1.2300000000	27.3989983097
1.2350000000	12.9182034794
1.2400000000	7.4360452037
1.2450000000	4.9236773111
1.2500000000	3.6037476740
1.2550000000	2.8481231893
1.2600000000	2.3952984542
1.2650000000	2.1196745140
1.2700000000	1.9657524222
1.2750000000	1.8977265005
1.2800000000	1.8994053346
1.2850000000	1.9648520183
1.2900000000	2.0958452328
1.2950000000	2.2998485958
1.3000000000	2.6003092679
1.3050000000	3.0277504821
1.3100000000	3.6373812411
1.3150000000	4.5243218995
1.3200000000	5.8588740260
1.3250000000	7.9662580456
1.3300000000	11.5563127372
1.3350000000	18.2771715018
1.3400000000	32.6405621184
1.3450000000	68.3057934696
1.3500000000	145.1054204535
1.3550000000	135.4194856763
1.3600000000	62.4721835131
1.3650000000	30.6993949404
1.3700000000	17.6057142913
1.3750000000	11.3209999728
1.3800000000	7.8941061438
1.3850000000	5.8301238334
1.3900000000	4.5005625151
1.3950000000	3.5940327456
1.4000000000	2.9502921374
1.4050000000	2.4789089545
1.4100000000	2.1256548762
1.4150000000	1.8590998478
1.4200000000	1.6586505358
1.4250000000	1.5243934292
1.4300000000	1.4752249525
1.4350000000	1.5025717997
1.4400000000	1.1572946711
1.4450000000	0.0997533150
1.4500000000	-1.6172030661
1.4550000000	-0.4534592927
1.4600000000	1.9582143484
1.4650000000	1.0601866411
1.4700000000	-1.0010769964
1.4750000000	-4.3813776727
1.4800000000	-1.9499916577
1.4850000000	3.2050225677
1.4900000000	2.5980034048
1.4950000000	1.6816153559
1.5000000000	1.1815343992
1.5050000000	0.9122581544
1.5100000000	0.7587786127
1.5150000000	0.6655703663
1.5200000000	0.6053592932
1.5250000000	0.5679482362
1.5300000000	0.5393703886
1.5350000000	0.5196717796
1.5400000000	0.5066961343
1.5450000000	0.4992864985
1.5500000000	0.4966959569
1.5550000000	0.4989434455
1.5600000000	0.5073593801
1.5650000000	0.5212606546
1.5700000000	0.5437695582
1.5750000000	0.5786945399
1.5800000000	0.6331865148
1.5850000000	0.7211651447
1.5900000000	0.8719570264
1.5950000000	1.1504596514
1.6000000000	1.6937555083
1.6050000000	2.5920734481
1.6100000000	3.0081060116
1.6150000000	2.2281879830
1.6200000000	1.4965397805
1.6250000000	1.1103322826
1.6300000000	0.9164185046
1.6350000000	0.8165861223
1.6400000000	0.7659860742
1.6450000000	0.7437735072
1.6500000000	0.7395100144
1.6550000000	0.7483056976
1.6600000000	0.7672422394
1.6650000000	0.7949870217
1.6700000000	0.8310334150
1.6750000000	0.8753844615
1.6800000000	0.9284366757
1.6850000000	0.9908051378
1.6900000000	1.0630337217
1.6950000000	1.1440965340
1.7000000000	1.2326333722
1.7050000000	1.3233701230
1.7100000000	1.4269087737
1.7150000000	1.6842076435
1.7200000000	2.1356289881
1.7250000000	2.5492473344
1.7300000000	2.9931482648
1.7350000000	3.4809014222
1.7400000000	3.9594950671
1.7450000000	4.5742178641
1.7500000000	5.5038363936
1.7550000000	6.8874811281
1.7600000000	8.9576721382
1.7650000000	12.1488901733
1.7700000000	17.2893822993
1.7750000000	25.9497739795
1.7800000000	40.7069077581
1.7850000000	62.4702255252
1.7900000000	77.6337231410
1.7950000000	66.1066059340
1.8000000000	43.9957854267
1.8050000000	27.7843409655
1.8100000000	18.3188762787
1.8150000000	12.7707958522
1.8200000000	9.3564319774
1.8250000000	7.1428890083
1.8300000000	5.6399703462
1.8350000000	4.5791480537
1.8400000000	3.8062893698
1.8450000000	3.2278942955
1.8500000000	2.7850372329
1.8550000000	2.4408469531
1.8600000000	2.1696024369
1.8650000000	1.9538231923
1.8700000000	1.7810766654
1.8750000000	1.6422353557
1.8800000000	1.5300590773
1.8850000000	1.4381501433
1.8900000000	1.3591364464
1.8950000000	1.2820170653
1.9000000000	1.1877957024
1.9050000000	1.0094323165
1.9100000000	0.7639554986
1.9150000000	0.6339145210
1.9200000000	1.5503147412
1.9250000000	4.0831985918
1.9300000000	6.0919487153
1.9350000000	5.9982577508
1.9400000000	4.7178008391
1.9450000000	3.4763598653
1.9500000000	2.6047253600
1.9550000000	2.0336028505
1.9600000000	1.6561869540
1.9650000000	1.4035764131
1.9700000000	1.2212112417
1.9750000000	1.0875306618
1.9800000000	0.9854710554
1.9850000000	0.9026523880
1.9900000000	0.8296015612
1.9950000000	0.7580509508
2.0000000000	0.6867952062
2.0050000000	0.6412728722
2.0100000000	0.6673558758
2.0150000000	0.7392072197
2.0200000000	0.7835120381
2.0250000000	0.7952846606
2.0300000000	0.7979399319
2.0350000000	0.8027670585
2.0400000000	0.8139609649
2.0450000000	0.8325913055
2.0500000000	0.8593521330
2.0550000000	0.8948737475
2.0600000000	0.9391566490
2.0650000000	0.9895183291
2.0700000000	1.0393062639
2.0750000000	1.0835348903
2.0800000000	1.1266030346
2.0850000000	1.1776079606
2.0900000000	1.2426476242
2.0950000000	1.3242897855
2.1000000000	1.4252963495
2.1050000000	1.5447525010
2.1100000000	1.6910537387
2.1150000000	1.8703372743
2.1200000000	2.0912100033
2.1250000000	2.3657444954
2.1300000000	2.7109583125
2.1350000000	3.1511473439
2.1400000000	3.7213940299
2.1450000000	4.4729891783
2.1500000000	5.4806653443
2.1550000000	6.8501894207
2.1600000000	8.7169264198
2.1650000000	11.1955136365
2.1700000000	14.2400929513
2.1750000000	17.2670456841
2.1800000000	19.1373385135
2.1850000000	19.2345670695
2.1900000000	18.3842789072
2.1950000000	17.7226408450
2.2000000000	17.4292615006
2.2050000000	16.6140922750
2.2100000000	14.8833468051
2.2150000000	12.7553577945
2.2200000000	10.8450187416
2.2250000000	9.2662273239
2.2300000000	7.8761224986
2.2350000000	6.6193593400
2.2400000000	5.5398988978
2.2450000000	4.6762024028
2.2500000000	4.0141015407
2.2550000000	3.5167163982
2.2600000000	3.1442929848
2.2650000000	2.8569964844
2.2700000000	2.6117672334
2.2750000000	2.3661840826
2.2800000000	2.1017999836
2.2850000000	1.8502351283
2.2900000000	1.6764064400
2.2950000000	1.6170567406
2.3000000000	1.6383159165
2.3050000000	1.6707554917
2.3100000000	1.6734954565
2.3150000000	1.6468684502
2.3200000000	1.6085707194
2.3250000000	1.5768803222
2.3300000000	1.5611497953
2.3350000000	1.5629862638
2.3400000000	1.5771525992
2.3450000000	1.5917953513
2.3500000000	1.5919886069
2.3550000000	1.5682097632
2.3600000000	1.5231537850
2.3650000000	1.4685969656
2.3700000000	1.4166779170
2.3750000000	1.3746462475
2.3800000000	1.3448565340
2.3850000000	1.3266418560
2.3900000000	1.3184825459
2.3950000000	1.3186185440
2.4000000000	1.3275294467
2.4050000000	1.3481496364
2.4100000000	1.3814628852
2.4150000000	1.4288309005
2.4200000000	1.4910721647
2.4250000000	1.5696187174
2.4300000000	1.6665589084
2.4350000000	1.7846941520
2.4400000000	1.9276394255
2.4450000000	2.1000104534
2.4500000000	2.3076306978
2.4550000000	2.5578197367
2.4600000000	2.8595706168
2.4650000000	3.2236732370
2.4700000000	3.6625024894
2.4750000000	4.1884542474
2.4800000000	4.8143307271
2.4850000000	5.5452000739
2.4900000000	6.3739190507
2.4950000000	7.2708312492
2.5000000000	8.1732174769
2.5050000000	9.0173597287
2.5100000000	9.5876340411
2.5150000000	9.7596759718
2.5200000000	9.5038507065
2.5250000000	8.8991287751
2.5300000000	8.0830850853
2.5350000000	7.1884033358
2.5400000000	6.3088203199
2.5450000000	5.4972970311
2.5500000000	4.7773836208
2.5550000000	4.1544407991
2.5600000000	3.6199034598
2.5650000000	3.1704926730
2.5700000000	2.7956279921
2.5750000000	2.4886860072
2.5800000000	2.2447192651
2.5850000000	2.0583495142
2.5900000000	1.9207309515
2.5950000000	1.8194271743
2.6000000000	1.7414892131
2.6050000000	1.6860999743
2.6100000000	1.6381398719
2.6150000000	1.5968486866
2.6200000000	1.5630422365
2.6250000000	1.5376242970
2.6300000000	1.5211983629
2.6350000000	1.5140723675
2.6400000000	1.5164251326
2.6450000000	1.5284230891
2.6500000000	1.5503919619
2.6550000000	1.5824229790
2.6600000000	1.6250077245
2.6650000000	1.6786427748
2.6700000000	1.7439381436
2.6750000000	1.8216330873
2.6800000000	1.9125469456
2.6850000000	2.0175178911
2.6900000000	2.1372325204
2.6950000000	2.2720890997
2.7000000000	2.4219511950
2.7050000000	2.6038634469
2.7100000000	2.8023965051
2.7150000000	3.0136848124
2.7200000000	3.2321060157
2.7250000000	3.4505968184
2.7300000000	3.6611870076
2.7350000000	3.8554587240
2.7400000000	4.0246570299
2.7450000000	4.1610102294
2.7500000000	4.2524632095
2.7550000000	4.2917178066
2.7600000000	4.2732362773
2.7650000000	4.1963743987
2.7700000000	4.0662835215
2.7750000000	3.8932849151
2.7800000000	3.6908317028
2.7850000000	3.4731958318
2.7900000000	3.2531826877
2.7950000000	3.0410610161
2.8000000000	2.8440918168
2.8050000000	2.6448050719
2.8100000000	2.4742415480
2.8150000000	2.3319437363
2.8200000000	2.2156210375
2.8250000000	2.1222544358
2.8300000000	2.0488027829
2.8350000000	1.9926634325
2.8400000000	1.9510965489
2.8450000000	1.9241975376
2.8500000000	1.9099752501
2.8550000000	1.9076710108
2.8600000000	1.9167183070
2.8650000000	1.9366068025
2.8700000000	1.9667656421
2.8750000000	2.0064705968
2.8800000000	2.0547722042
2.8850000000	2.1104356815
2.8900000000	2.1719767532
2.8950000000	2.2377166924
2.9000000000	2.3058901053
2.9050000000	2.3878147697
2.9100000000	2.4664074446
2.9150000000	2.5391958738
2.9200000000	2.6035853416
2.9250000000	2.6566317256
2.9300000000	2.6956240852
2.9350000000	2.7163467021
2.9400000000	2.7169799496
2.9450000000	2.6967486647
2.9500000000	2.6568201770
2.9550000000	2.6002292696
2.9600000000	2.5313563725
2.9650000000	2.4551648907
2.9700000000	2.3764544268
2.9750000000	2.2993267545
2.9800000000	2.2269248066
2.9850000000	2.1613929283
2.9900000000	2.1040208819
2.9950000000	2.0554141294
3.0000000000	2.0157000795
