# energy (eV)    P(omega), $W$ = 300 nm, $h$ = 300 nm, $s$ = 20 nm, $d/W = 5$, $E_{\rm e}$ = 200 keV
0.2000000000	0.0618687398
0.2050000000	0.0628108850
0.2100000000	0.0636864136
0.2150000000	0.0644975501
0.2200000000	0.0652462971
0.2250000000	0.0659343080
0.2300000000	0.0665629031
0.2350000000	0.0671330018
0.2400000000	0.0676450718
0.2450000000	0.0680990479
0.2500000000	0.0684942671
0.2550000000	0.0688293035
0.2600000000	0.0691019380
0.2650000000	0.0693088724
0.2700000000	0.0694456240
0.2750000000	0.0695061897
0.2800000000	0.0694827414
0.2850000000	0.0693651754
0.2900000000	0.0691405687
0.2950000000	0.0687924555
0.3000000000	0.0682998203
0.3050000000	0.0676358810
0.3100000000	0.0667663349
0.3150000000	0.0706984228
0.3200000000	0.0753680520
0.3250000000	0.0812783053
0.3300000000	0.0892007723
0.3350000000	0.0990592902
0.3400000000	0.1119687110
0.3450000000	0.1276126723
0.3500000000	0.1480690925
0.3550000000	0.1751225662
0.3600000000	0.2104188201
0.3650000000	0.2596001839
0.3700000000	0.3243837204
0.3750000000	0.4144281943
0.3800000000	0.5445593916
0.3850000000	0.7471961970
0.3900000000	1.0670627034
0.3950000000	1.6099709397
0.4000000000	2.6442077327
0.4050000000	4.9613042311
0.4100000000	11.2789562540
0.4150000000	36.1618221882
0.4200000000	23.0556481179
0.4250000000	-43.2766273080
0.4300000000	12.0105197122
0.4350000000	7.4746762778
0.4400000000	4.5624739935
0.4450000000	2.9960486612
0.4500000000	2.0949234126
0.4550000000	1.5407338430
0.4600000000	1.1800096447
0.4650000000	0.9343314589
0.4700000000	0.7607715716
0.4750000000	0.6352918333
0.4800000000	0.5422777609
0.4850000000	0.4722867137
0.4900000000	0.4188465573
0.4950000000	0.3776144267
0.5000000000	0.3456213104
0.5050000000	0.3206911618
0.5100000000	0.3014203917
0.5150000000	0.2867746309
0.5200000000	0.2756795646
0.5250000000	0.2676452186
0.5300000000	0.2621506746
0.5350000000	0.2588133099
0.5400000000	0.2573506541
0.5450000000	0.2575268513
0.5500000000	0.2592625821
0.5550000000	0.2624234109
0.5600000000	0.2669376913
0.5650000000	0.2727711793
0.5700000000	0.2798908472
0.5750000000	0.2883453426
0.5800000000	0.2982133912
0.5850000000	0.3095453216
0.5900000000	0.3224421436
0.5950000000	0.3370331995
0.6000000000	0.3534826391
0.6050000000	0.3720326667
0.6100000000	0.3929112840
0.6150000000	0.4164325299
0.6200000000	0.4430156461
0.6250000000	0.4730621339
0.6300000000	0.5071666765
0.6350000000	0.5460702251
0.6400000000	0.5905427587
0.6450000000	0.6416975827
0.6500000000	0.7009973238
0.6550000000	0.7699636708
0.6600000000	0.8509375293
0.6650000000	0.9469193199
0.6700000000	1.0614358528
0.6750000000	1.1998680609
0.6800000000	1.3694486024
0.6850000000	1.5796485421
0.6900000000	1.8451360418
0.6950000000	2.1864210830
0.7000000000	2.6360781546
0.7050000000	3.2438921549
0.7100000000	4.0942015124
0.7150000000	5.3371172892
0.7200000000	7.2520219399
0.7250000000	10.4293773685
0.7300000000	16.2591086821
0.7350000000	28.7278927856
0.7400000000	62.9092900912
0.7450000000	208.5346512837
0.7500000000	645.5275423699
0.7550000000	162.2670192969
0.7600000000	53.6961038291
0.7650000000	25.7075026480
0.7700000000	14.9385511239
0.7750000000	9.7421231422
0.7800000000	6.8504096006
0.7850000000	5.0836867817
0.7900000000	3.9243750238
0.7950000000	3.1251281064
0.8000000000	2.5507925934
0.8050000000	2.1231996080
0.8100000000	1.7972551569
0.8150000000	1.5389861167
0.8200000000	1.3352197512
0.8250000000	1.1712026030
0.8300000000	1.0368936873
0.8350000000	0.9264944171
0.8400000000	0.8339747223
0.8450000000	0.7563565046
0.8500000000	0.6907549094
0.8550000000	0.6341602614
0.8600000000	0.5858495568
0.8650000000	0.5445783121
0.8700000000	0.5081220633
0.8750000000	0.4770963800
0.8800000000	0.4507499691
0.8850000000	0.4271312404
0.8900000000	0.4081387215
0.8950000000	0.3908626311
0.9000000000	0.3771191901
0.9050000000	0.3675580115
0.9100000000	0.3587896099
0.9150000000	0.3533506894
0.9200000000	0.3524088018
0.9250000000	0.3516454858
0.9300000000	0.3462490032
0.9350000000	0.3306982798
0.9400000000	0.2452530748
0.9450000000	-0.1420393585
0.9500000000	-2.1836875038
0.9550000000	-12.5311808293
0.9600000000	2.9555124592
0.9650000000	5.1874611199
0.9700000000	2.2997414651
0.9750000000	1.2071568271
0.9800000000	0.7566627285
0.9850000000	0.5460217764
0.9900000000	0.4247128032
0.9950000000	0.3511759171
1.0000000000	0.3042285405
1.0050000000	0.2744511841
1.0100000000	0.2513889827
1.0150000000	0.2345475806
1.0200000000	0.2231967978
1.0250000000	0.2136907994
1.0300000000	0.2064816378
1.0350000000	0.2010432376
1.0400000000	0.1975968948
1.0450000000	0.1947582608
1.0500000000	0.1929169893
1.0550000000	0.1919608995
1.0600000000	0.1921377347
1.0650000000	0.1927570324
1.0700000000	0.1941021966
1.0750000000	0.1961791317
1.0800000000	0.1991749318
1.0850000000	0.2029740096
1.0900000000	0.2085420320
1.0950000000	0.2151460011
1.1000000000	0.2230005394
1.1050000000	0.2320684490
1.1100000000	0.2426278419
1.1150000000	0.2549186060
1.1200000000	0.2692162192
1.1250000000	0.2859191875
1.1300000000	0.3055162491
1.1350000000	0.3286311539
1.1400000000	0.3559642483
1.1450000000	0.3888355966
1.1500000000	0.4286464835
1.1550000000	0.4774382878
1.1600000000	0.5380912436
1.1650000000	0.6143326310
1.1700000000	0.7131908485
1.1750000000	0.8439554582
1.1800000000	1.0219979156
1.1850000000	1.2725949803
1.1900000000	1.6433294331
1.1950000000	2.2256812229
1.2000000000	3.2138224480
1.2050000000	5.0815120529
1.2100000000	9.1900550691
1.2150000000	20.2924268038
1.2200000000	49.8087335688
1.2250000000	44.7073574317
1.2300000000	17.7928527764
1.2350000000	8.3131262202
1.2400000000	4.7218535468
1.2450000000	3.0710779298
1.2500000000	2.1979582327
1.2550000000	1.6914307478
1.2600000000	1.3801772813
1.2650000000	1.1817174381
1.2700000000	1.0588044837
1.2750000000	0.9872286073
1.2800000000	0.9550847419
1.2850000000	0.9566734309
1.2900000000	0.9905333283
1.2950000000	1.0581560660
1.3000000000	1.1686241185
1.3050000000	1.3334298311
1.3100000000	1.5747261820
1.3150000000	1.9310282908
1.3200000000	2.4718630636
1.3250000000	3.3295400005
1.3300000000	4.7947740793
1.3350000000	7.5406657571
1.3400000000	13.4099016478
1.3450000000	27.9770125629
1.3500000000	59.3108821197
1.3550000000	55.2785517608
1.3600000000	25.4821927259
1.3650000000	12.5190561584
1.3700000000	7.1801565404
1.3750000000	4.6184847919
1.3800000000	3.2218107606
1.3850000000	2.3803727163
1.3900000000	1.8378141339
1.3950000000	1.4674509615
1.4000000000	1.2036238731
1.4050000000	1.0093588203
1.4100000000	0.8620630584
1.4150000000	0.7478997038
1.4200000000	0.6565721200
1.4250000000	0.5834230890
1.4300000000	0.5242463737
1.4350000000	0.4640765240
1.4400000000	0.2735837448
1.4450000000	-0.2197321814
1.4500000000	-1.1221943194
1.4550000000	-0.4075609167
1.4600000000	1.0239066746
1.4650000000	0.6230742352
1.4700000000	-0.2658827154
1.4750000000	-1.6248296335
1.4800000000	-0.7082295318
1.4850000000	1.2754952877
1.4900000000	1.0318878769
1.4950000000	0.6723459809
1.5000000000	0.4755470838
1.5050000000	0.3686394541
1.5100000000	0.3073502797
1.5150000000	0.2696264297
1.5200000000	0.2448127390
1.5250000000	0.2290188180
1.5300000000	0.2164710561
1.5350000000	0.2072874924
1.5400000000	0.2005620544
1.5450000000	0.1957412750
1.5500000000	0.1924622180
1.5550000000	0.1905414175
1.5600000000	0.1902875955
1.5650000000	0.1909927350
1.5700000000	0.1933022228
1.5750000000	0.1976557308
1.5800000000	0.2049451603
1.5850000000	0.2169270869
1.5900000000	0.2373061578
1.5950000000	0.2742232094
1.6000000000	0.3446428848
1.6050000000	0.4586445575
1.6100000000	0.5092141302
1.6150000000	0.4112627066
1.6200000000	0.3226950922
1.6250000000	0.2787699022
1.6300000000	0.2595665402
1.6350000000	0.2526938535
1.6400000000	0.2526031170
1.6450000000	0.2567844933
1.6500000000	0.2640528911
1.6550000000	0.2739130898
1.6600000000	0.2861730962
1.6650000000	0.3008549881
1.6700000000	0.3181253890
1.6750000000	0.3382743554
1.6800000000	0.3617136823
1.6850000000	0.3889915760
1.6900000000	0.4208114123
1.6950000000	0.4578416297
1.7000000000	0.5014928761
1.7050000000	0.5543371002
1.7100000000	0.6194238003
1.7150000000	0.7118347787
1.7200000000	0.8398900101
1.7250000000	0.9951185667
1.7300000000	1.1900678713
1.7350000000	1.3983937303
1.7400000000	1.5823135784
1.7450000000	1.8110221300
1.7500000000	2.1658496693
1.7550000000	2.7014819389
1.7600000000	3.5069149828
1.7650000000	4.7502436199
1.7700000000	6.7530417308
1.7750000000	10.1252508069
1.7800000000	15.8658094806
1.7850000000	24.3181993735
1.7900000000	30.1789015800
1.7950000000	25.6571554510
1.8000000000	17.0442268342
1.8050000000	10.7408373850
1.8100000000	7.0641284791
1.8150000000	4.9104564647
1.8200000000	3.5854712153
1.8250000000	2.7263950145
1.8300000000	2.1427128525
1.8350000000	1.7300952705
1.8400000000	1.4286746403
1.8450000000	1.2020596115
1.8500000000	1.0272838484
1.8550000000	0.8899389425
1.8600000000	0.7798361255
1.8650000000	0.6899345568
1.8700000000	0.6150362990
1.8750000000	0.5510659575
1.8800000000	0.4944400437
1.8850000000	0.4415243060
1.8900000000	0.3877002002
1.8950000000	0.3259450052
1.9000000000	0.2444399004
1.9050000000	0.1057129673
1.9100000000	-0.0957283341
1.9150000000	-0.3126783445
1.9200000000	-0.2156671087
1.9250000000	0.4181644083
1.9300000000	0.9272827727
1.9350000000	0.9686031280
1.9400000000	0.7984421365
1.9450000000	0.6265100460
1.9500000000	0.5028861449
1.9550000000	0.4199430352
1.9600000000	0.3639823057
1.9650000000	0.3269333713
1.9700000000	0.2988771307
1.9750000000	0.2782861327
1.9800000000	0.2627769183
1.9850000000	0.2506657696
1.9900000000	0.2407528745
1.9950000000	0.2320663330
2.0000000000	0.2243717336
2.0050000000	0.2204510392
2.0100000000	0.2240477340
2.0150000000	0.2326471933
2.0200000000	0.2394162126
2.0250000000	0.2440312736
2.0300000000	0.2489586191
2.0350000000	0.2552622001
2.0400000000	0.2637539178
2.0450000000	0.2749622788
2.0500000000	0.2895226238
2.0550000000	0.3080792927
2.0600000000	0.3306629781
2.0650000000	0.3551281938
2.0700000000	0.3761523582
2.0750000000	0.3895081235
2.0800000000	0.3980814357
2.0850000000	0.4083179089
2.0900000000	0.4242077721
2.0950000000	0.4469706328
2.1000000000	0.4772625027
2.1050000000	0.5143904776
2.1100000000	0.5609449687
2.1150000000	0.6187242680
2.1200000000	0.6903972971
2.1250000000	0.7798006635
2.1300000000	0.8924047929
2.1350000000	1.0360559176
2.1400000000	1.2220954703
2.1450000000	1.4671010392
2.1500000000	1.7952048558
2.1550000000	2.2405157551
2.1600000000	2.8466438971
2.1650000000	3.6504689934
2.1700000000	4.6380213348
2.1750000000	5.6236079014
2.1800000000	6.2467631823
2.1850000000	6.3169162328
2.1900000000	6.1023982733
2.1950000000	5.9599811873
2.2000000000	5.9189681635
2.2050000000	5.6343043246
2.2100000000	4.9613300215
2.2150000000	4.1065036313
2.2200000000	3.3243639019
2.2250000000	2.6979167060
2.2300000000	2.2048520421
2.2350000000	1.8132269480
2.2400000000	1.5025166703
2.2450000000	1.2600015576
2.2500000000	1.0708685484
2.2550000000	0.9216445929
2.2600000000	0.8010836192
2.2650000000	0.6998287301
2.2700000000	0.6100180619
2.2750000000	0.5261337304
2.2800000000	0.4485661935
2.2850000000	0.3870534410
2.2900000000	0.3560198418
2.2950000000	0.3604369641
2.3000000000	0.3860755183
2.3050000000	0.4111314791
2.3100000000	0.4219466047
2.3150000000	0.4192142941
2.3200000000	0.4089145274
2.3250000000	0.3971520679
2.3300000000	0.3872259158
2.3350000000	0.3802794792
2.3400000000	0.3760759520
2.3450000000	0.3733915054
2.3500000000	0.3705922073
2.3550000000	0.3666331912
2.3600000000	0.3618042448
2.3650000000	0.3573727055
2.3700000000	0.3545949681
2.3750000000	0.3540850017
2.3800000000	0.3557386452
2.3850000000	0.3589259631
2.3900000000	0.3629451949
2.3950000000	0.3671961566
2.4000000000	0.3720370793
2.4050000000	0.3788025181
2.4100000000	0.3881708955
2.4150000000	0.4010024584
2.4200000000	0.4178823018
2.4250000000	0.4393427205
2.4300000000	0.4659807786
2.4350000000	0.4985448722
2.4400000000	0.5379979173
2.4450000000	0.5855822091
2.4500000000	0.6428788189
2.4550000000	0.7118880150
2.4600000000	0.7950798046
2.4650000000	0.8954428287
2.4700000000	1.0164389674
2.4750000000	1.1615921393
2.4800000000	1.3347140136
2.4850000000	1.5375185832
2.4900000000	1.7683273081
2.4950000000	2.0187919234
2.5000000000	2.2703659723
2.5050000000	2.5028807357
2.5100000000	2.6530914828
2.5150000000	2.6859771799
2.5200000000	2.5970095355
2.5250000000	2.4140247073
2.5300000000	2.1793718120
2.5350000000	1.9301969990
2.5400000000	1.6900283951
2.5450000000	1.4704945686
2.5500000000	1.2759407841
2.5550000000	1.1069191213
2.5600000000	0.9609773190
2.5650000000	0.8377954660
2.5700000000	0.7349157187
2.5750000000	0.6508832349
2.5800000000	0.5845617964
2.5850000000	0.5345438125
2.5900000000	0.4982882247
2.5950000000	0.4721164179
2.6000000000	0.4521808232
2.6050000000	0.4379624676
2.6100000000	0.4251957427
2.6150000000	0.4137236451
2.6200000000	0.4038328502
2.6250000000	0.3958052065
2.6300000000	0.3898108987
2.6350000000	0.3859237142
2.6400000000	0.3841823630
2.6450000000	0.3846305760
2.6500000000	0.3873622539
2.6550000000	0.3923931971
2.6600000000	0.3998553965
2.6650000000	0.4098654518
2.6700000000	0.4225607497
2.6750000000	0.4381042960
2.6800000000	0.4566775127
2.6850000000	0.4784785433
2.6900000000	0.5036988633
2.6950000000	0.5325120237
2.7000000000	0.5650382482
2.7050000000	0.6051941233
2.7100000000	0.6502008043
2.7150000000	0.6997493051
2.7200000000	0.7531718038
2.7250000000	0.8093558129
2.7300000000	0.8666651919
2.7350000000	0.9228708798
2.7400000000	0.9751147215
2.7450000000	1.0203794837
2.7500000000	1.0542852199
2.7550000000	1.0738234312
2.7600000000	1.0767345823
2.7650000000	1.0624374550
2.7700000000	1.0322342251
2.7750000000	0.9890466387
2.7800000000	0.9367496667
2.7850000000	0.8794656128
2.7900000000	0.8208771283
2.7950000000	0.7639326132
2.8000000000	0.7107117393
2.8050000000	0.6565941590
2.8100000000	0.6098777024
2.8150000000	0.5704558048
2.8200000000	0.5377088111
2.8250000000	0.5108131602
2.8300000000	0.4889426978
2.8350000000	0.4713933214
2.8400000000	0.4574165235
2.8450000000	0.4470627227
2.8500000000	0.4397833735
2.8550000000	0.4353740889
2.8600000000	0.4336902751
2.8650000000	0.4346176990
2.8700000000	0.4380546704
2.8750000000	0.4438971273
2.8800000000	0.4520246821
2.8850000000	0.4622876469
2.8900000000	0.4745017234
2.8950000000	0.4884418199
2.9000000000	0.5038409502
2.9050000000	0.5240694722
2.9100000000	0.5448376942
2.9150000000	0.5653447068
2.9200000000	0.5846274035
2.9250000000	0.6015690861
2.9300000000	0.6151202123
2.9350000000	0.6238835117
2.9400000000	0.6271590877
2.9450000000	0.6245885435
2.9500000000	0.6163828491
2.9550000000	0.6032906193
2.9600000000	0.5864520640
2.9650000000	0.5671899424
2.9700000000	0.5468022640
2.9750000000	0.5264152606
2.9800000000	0.5069023835
2.9850000000	0.4888729576
2.9900000000	0.4727019522
2.9950000000	0.4585803694
3.0000000000	0.4465697926
