# energy (eV)    P(omega), $W$ = 300 nm, $h$ = 300 nm, $s$ = 20 nm, $d/W = 5$, $E_{\rm e}$ = 200 keV
0.2000000000	0.0684340467
0.2050000000	0.0694170674
0.2100000000	0.0703411108
0.2150000000	0.0712080205
0.2200000000	0.0720193859
0.2250000000	0.0727765210
0.2300000000	0.0734803906
0.2350000000	0.0741315975
0.2400000000	0.0747303132
0.2450000000	0.0752761308
0.2500000000	0.0757681472
0.2550000000	0.0762046280
0.2600000000	0.0765830389
0.2650000000	0.0768998474
0.2700000000	0.0771502115
0.2750000000	0.0773277927
0.2800000000	0.0774243753
0.2850000000	0.0774294546
0.2900000000	0.0773295346
0.2950000000	0.0771075979
0.3000000000	0.0767417305
0.3050000000	0.0762042477
0.3100000000	0.0754596074
0.3150000000	0.0795244860
0.3200000000	0.0843527918
0.3250000000	0.0904563127
0.3300000000	0.0986238246
0.3350000000	0.1087936152
0.3400000000	0.1221125052
0.3450000000	0.1382813673
0.3500000000	0.1594419303
0.3550000000	0.1874553146
0.3600000000	0.2240597459
0.3650000000	0.2751143889
0.3700000000	0.3424998931
0.3750000000	0.4363073058
0.3800000000	0.5720773753
0.3850000000	0.7837633996
0.3900000000	1.1184352667
0.3950000000	1.6873340805
0.4000000000	2.7725888998
0.4050000000	5.2073342156
0.4100000000	11.8556292209
0.4150000000	38.0794588955
0.4200000000	24.2385056638
0.4250000000	-45.7551674523
0.4300000000	12.7505727254
0.4350000000	7.9558618916
0.4400000000	4.8708137799
0.4450000000	3.2090007671
0.4500000000	2.2517072319
0.4550000000	1.6622379524
0.4600000000	1.2781002727
0.4650000000	1.0161973205
0.4700000000	0.8310040639
0.4750000000	0.6970249002
0.4800000000	0.5976693311
0.4850000000	0.5229060893
0.4900000000	0.4658505291
0.4950000000	0.4218789482
0.5000000000	0.3878318398
0.5050000000	0.3613883244
0.5100000000	0.3410569926
0.5150000000	0.3257404378
0.5200000000	0.3142847709
0.5250000000	0.3061760817
0.5300000000	0.3008581861
0.5350000000	0.2979254604
0.5400000000	0.2970793636
0.5450000000	0.2980706558
0.5500000000	0.3008251120
0.5550000000	0.3052037066
0.5600000000	0.3111387154
0.5650000000	0.3186015436
0.5700000000	0.3275679979
0.5750000000	0.3381022442
0.5800000000	0.3503085823
0.5850000000	0.3642555487
0.5900000000	0.3800735318
0.5950000000	0.3979242231
0.6000000000	0.4180133286
0.6050000000	0.4406357067
0.6100000000	0.4660753993
0.6150000000	0.4947178947
0.6200000000	0.5270777321
0.6250000000	0.5636475608
0.6300000000	0.6051555373
0.6350000000	0.6525092665
0.6400000000	0.7066535024
0.6450000000	0.7689512582
0.6500000000	0.8411952459
0.6550000000	0.9252520360
0.6600000000	1.0239893419
0.6650000000	1.1410896946
0.6700000000	1.2808824148
0.6750000000	1.4499667256
0.6800000000	1.6572278343
0.6850000000	1.9142967758
0.6900000000	2.2392026933
0.6950000000	2.6571525298
0.7000000000	3.2082111191
0.7050000000	3.9536252818
0.7100000000	4.9972027103
0.7150000000	6.5237563215
0.7200000000	8.8774258176
0.7250000000	12.7858134045
0.7300000000	19.9624220328
0.7350000000	35.3241964984
0.7400000000	77.4711446921
0.7450000000	257.1970812540
0.7500000000	797.3888365480
0.7550000000	200.7515086624
0.7600000000	66.5350564166
0.7650000000	31.9044939519
0.7700000000	18.5690985822
0.7750000000	12.1291754178
0.7800000000	8.5426981425
0.7850000000	6.3498510247
0.7900000000	4.9098467788
0.7950000000	3.9163500228
0.8000000000	3.2019168969
0.8050000000	2.6696431799
0.8100000000	2.2636158908
0.8150000000	1.9416247543
0.8200000000	1.6874208736
0.8250000000	1.4826813058
0.8300000000	1.3149113455
0.8350000000	1.1769431774
0.8400000000	1.0612584732
0.8450000000	0.9641628956
0.8500000000	0.8820823433
0.8550000000	0.8112304182
0.8600000000	0.7507453962
0.8650000000	0.6990931116
0.8700000000	0.6534402854
0.8750000000	0.6146263686
0.8800000000	0.5817217350
0.8850000000	0.5522178058
0.8900000000	0.5286134876
0.8950000000	0.5071382732
0.9000000000	0.4901870308
0.9050000000	0.4786424998
0.9100000000	0.4680694155
0.9150000000	0.4618148523
0.9200000000	0.4614445540
0.9250000000	0.4612501063
0.9300000000	0.4548009711
0.9350000000	0.4346064165
0.9400000000	0.3206046022
0.9450000000	-0.1988887773
0.9500000000	-2.9432094845
0.9550000000	-16.8728229724
0.9600000000	3.9853498803
0.9650000000	7.0047004656
0.9700000000	3.1089496541
0.9750000000	1.6328628161
0.9800000000	1.0235838288
0.9850000000	0.7385432540
0.9900000000	0.5742254489
0.9950000000	0.4745536732
1.0000000000	0.4109011071
1.0050000000	0.3705642931
1.0100000000	0.3392581144
1.0150000000	0.3163735617
1.0200000000	0.3009664552
1.0250000000	0.2880006539
1.0300000000	0.2781288364
1.0350000000	0.2706340555
1.0400000000	0.2658468033
1.0450000000	0.2618217516
1.0500000000	0.2591129746
1.0550000000	0.2575653552
1.0600000000	0.2575367404
1.0650000000	0.2580314045
1.0700000000	0.2594513877
1.0750000000	0.2618014013
1.0800000000	0.2653449661
1.0850000000	0.2698499381
1.0900000000	0.2765649216
1.0950000000	0.2845504795
1.1000000000	0.2940869587
1.1050000000	0.3050518415
1.1100000000	0.3178032937
1.1150000000	0.3326239043
1.1200000000	0.3498604369
1.1250000000	0.3699085775
1.1300000000	0.3933664249
1.1350000000	0.4209562355
1.1400000000	0.4535140382
1.1450000000	0.4925049490
1.1500000000	0.5395727611
1.1550000000	0.5970700631
1.1600000000	0.6683153976
1.1650000000	0.7576274910
1.1700000000	0.8730316308
1.1750000000	1.0252383894
1.1800000000	1.2319286235
1.1850000000	1.5221480342
1.1900000000	1.9507194898
1.1950000000	2.6227196282
1.2000000000	3.7616145870
1.2050000000	5.9127170126
1.2100000000	10.6435954525
1.2150000000	23.4327319862
1.2200000000	57.4708841487
1.2250000000	51.6849727576
1.2300000000	20.6780941311
1.2350000000	9.7495331460
1.2400000000	5.6121873471
1.2450000000	3.7161291495
1.2500000000	2.7200014978
1.2550000000	2.1497561897
1.2600000000	1.8080369862
1.2650000000	1.6000555707
1.2700000000	1.4839287922
1.2750000000	1.4326356276
1.2800000000	1.4339587205
1.2850000000	1.4834205961
1.2900000000	1.5823680365
1.2950000000	1.7364395353
1.3000000000	1.9633411247
1.3050000000	2.2861228633
1.3100000000	2.7464742995
1.3150000000	3.4162223693
1.3200000000	4.4239636090
1.3250000000	6.0152761371
1.3300000000	8.7261653652
1.3350000000	13.8011537505
1.3400000000	24.6470938258
1.3450000000	51.5782783159
1.3500000000	109.5705272879
1.3550000000	102.2567052053
1.3600000000	47.1734474114
1.3650000000	23.1814629308
1.3700000000	13.2942741475
1.3750000000	8.5486126345
1.3800000000	5.9609245441
1.3850000000	4.4023874712
1.3900000000	3.3984210439
1.3950000000	2.7138910900
1.4000000000	2.2277972303
1.4050000000	1.8718535652
1.4100000000	1.6051124392
1.4150000000	1.4038422431
1.4200000000	1.2524956959
1.4250000000	1.1511454342
1.4300000000	1.1140790188
1.4350000000	1.1348407954
1.4400000000	0.8741986548
1.4450000000	0.0757426900
1.4500000000	-1.2204183362
1.4550000000	-0.3420523702
1.4600000000	1.4783009416
1.4650000000	0.8002470018
1.4700000000	-0.7561575620
1.4750000000	-3.3086925262
1.4800000000	-1.4726040428
1.4850000000	2.4201979061
1.4900000000	1.9618244737
1.4950000000	1.2698264385
1.5000000000	0.8921979513
1.5050000000	0.6888595257
1.5100000000	0.5729630851
1.5150000000	0.5025797814
1.5200000000	0.4571138546
1.5250000000	0.4288648757
1.5300000000	0.4072864541
1.5350000000	0.3924131739
1.5400000000	0.3826168230
1.5450000000	0.3770238697
1.5500000000	0.3750703545
1.5550000000	0.3767708102
1.5600000000	0.3831301145
1.5650000000	0.3936329612
1.5700000000	0.4106377564
1.5750000000	0.4370216120
1.5800000000	0.4781866503
1.5850000000	0.5446483942
1.5900000000	0.6585614549
1.5950000000	0.8689523955
1.6000000000	1.2793801874
1.6050000000	1.9580105923
1.6100000000	2.2723067199
1.6150000000	1.6831236021
1.6200000000	1.1303992269
1.6250000000	0.8386345209
1.6300000000	0.6921366682
1.6350000000	0.6167117285
1.6400000000	0.5784785575
1.6450000000	0.5616898423
1.6500000000	0.5584597406
1.6550000000	0.5650940821
1.6600000000	0.5793880045
1.6650000000	0.6003345515
1.6700000000	0.6275507095
1.6750000000	0.6610384252
1.6800000000	0.7010967805
1.6850000000	0.7481898419
1.6900000000	0.8027276259
1.6950000000	0.8639339082
1.7000000000	0.9307788001
1.7050000000	0.9992730056
1.7100000000	1.0774242519
1.7150000000	1.2717334344
1.7200000000	1.6126896785
1.7250000000	1.9250379692
1.7300000000	2.2602132113
1.7350000000	2.6285090237
1.7400000000	2.9899198176
1.7450000000	3.4541400290
1.7500000000	4.1561461617
1.7550000000	5.2010009134
1.7600000000	6.7642926471
1.7650000000	9.1741181654
1.7700000000	13.0559243847
1.7750000000	19.5957610408
1.7800000000	30.7395207145
1.7850000000	47.1739797010
1.7900000000	58.6246637677
1.7950000000	49.9200929755
1.8000000000	33.2232604540
1.8050000000	20.9812818895
1.8100000000	13.8334849184
1.8150000000	9.6438780599
1.8200000000	7.0655365303
1.8250000000	5.3939895150
1.8300000000	4.2590677418
1.8350000000	3.4579937881
1.8400000000	2.8743750754
1.8450000000	2.4376056621
1.8500000000	2.1031882802
1.8550000000	1.8432799523
1.8600000000	1.6384578506
1.8650000000	1.4755220422
1.8700000000	1.3450846782
1.8750000000	1.2402539515
1.8800000000	1.1555635998
1.8850000000	1.0861841072
1.8900000000	1.0265510152
1.8950000000	0.9683610374
1.9000000000	0.8972756868
1.9050000000	0.7626865838
1.9100000000	0.5774704332
1.9150000000	0.4795130879
1.9200000000	1.1719064880
1.9250000000	3.0851141345
1.9300000000	4.6024095987
1.9350000000	4.5315462821
1.9400000000	3.5641373564
1.9450000000	2.6262157055
1.9500000000	1.9676909140
1.9550000000	1.5362074367
1.9600000000	1.2510711155
1.9650000000	1.0602241861
1.9700000000	0.9224494572
1.9750000000	0.8214553939
1.9800000000	0.7443502890
1.9850000000	0.6817808574
1.9900000000	0.6265899127
1.9950000000	0.5725309287
2.0000000000	0.5186933430
2.0050000000	0.4842973130
2.0100000000	0.5040033129
2.0150000000	0.5582896742
2.0200000000	0.5917614524
2.0250000000	0.6006513981
2.0300000000	0.6026507860
2.0350000000	0.6062894395
2.0400000000	0.6147363260
2.0450000000	0.6287989835
2.0500000000	0.6490009786
2.0550000000	0.6758176679
2.0600000000	0.7092493927
2.0650000000	0.7472721904
2.0700000000	0.7848667083
2.0750000000	0.8182717163
2.0800000000	0.8508071259
2.0850000000	0.8893381313
2.0900000000	0.9384670622
2.0950000000	1.0001325896
2.1000000000	1.0764210089
2.1050000000	1.1666420312
2.1100000000	1.2771365079
2.1150000000	1.4125398202
2.1200000000	1.5793524516
2.1250000000	1.7866922564
2.1300000000	2.0474117146
2.1350000000	2.3798601624
2.1400000000	2.8105334503
2.1450000000	3.3781686814
2.1500000000	4.1392072494
2.1550000000	5.1735291753
2.1600000000	6.5833683704
2.1650000000	8.4553044496
2.1700000000	10.7547022231
2.1750000000	13.0407826775
2.1800000000	14.4532864378
2.1850000000	14.5266645208
2.1900000000	13.8844051371
2.1950000000	13.3846070679
2.2000000000	13.1629597378
2.2050000000	12.5473406939
2.2100000000	11.2403691468
2.2150000000	9.6334577882
2.2200000000	8.1909215537
2.2250000000	6.9987145779
2.2300000000	5.9489066559
2.2350000000	4.9997195081
2.2400000000	4.1844050315
2.2450000000	3.5320476011
2.2500000000	3.0319615469
2.2550000000	2.6562956678
2.2600000000	2.3750235916
2.2650000000	2.1580551505
2.2700000000	1.9728610161
2.2750000000	1.7873911400
2.2800000000	1.5877043847
2.2850000000	1.3976824255
2.2900000000	1.2663628208
2.2950000000	1.2215052571
2.3000000000	1.2375341335
2.3050000000	1.2620128950
2.3100000000	1.2640676799
2.3150000000	1.2439488177
2.3200000000	1.2150209098
2.3250000000	1.1910880864
2.3300000000	1.1792134211
2.3350000000	1.1806098260
2.3400000000	1.1913200344
2.3450000000	1.2023883115
2.3500000000	1.2025377103
2.3550000000	1.1845736191
2.3600000000	1.1505321526
2.3650000000	1.1093106574
2.3700000000	1.0700802818
2.3750000000	1.0383185549
2.3800000000	1.0158049270
2.3850000000	1.0020363154
2.3900000000	0.9958653131
2.3950000000	0.9959627146
2.4000000000	1.0026904611
2.4050000000	1.0182642047
2.4100000000	1.0434263834
2.4150000000	1.0792048575
2.4200000000	1.1262173514
2.4250000000	1.1855453248
2.4300000000	1.2587661407
2.4350000000	1.3479957791
2.4400000000	1.4559647365
2.4450000000	1.5861594067
2.4500000000	1.7429783812
2.4550000000	1.9319502862
2.4600000000	2.1598677336
2.4650000000	2.4348804869
2.4700000000	2.7663354498
2.4750000000	3.1635952378
2.4800000000	3.6363291407
2.4850000000	4.1883646790
2.4900000000	4.8143059177
2.4950000000	5.4917530314
2.5000000000	6.1733348768
2.5050000000	6.8109278166
2.5100000000	7.2416732872
2.5150000000	7.3716381333
2.5200000000	7.1784340130
2.5250000000	6.7217002581
2.5300000000	6.1053432562
2.5350000000	5.4295800526
2.5400000000	4.7652147028
2.5450000000	4.1522533473
2.5500000000	3.6084866771
2.5550000000	3.1379649581
2.5600000000	2.7342189508
2.5650000000	2.3947712319
2.5700000000	2.1116296076
2.5750000000	1.8797908335
2.5800000000	1.6955177047
2.5850000000	1.5547478632
2.5900000000	1.4508000833
2.5950000000	1.3742813020
2.6000000000	1.3154113456
2.6050000000	1.2735734293
2.6100000000	1.2373476348
2.6150000000	1.2061597113
2.6200000000	1.1806257489
2.6250000000	1.1614283586
2.6300000000	1.1490233751
2.6350000000	1.1436433885
2.6400000000	1.1454235077
2.6450000000	1.1544894229
2.6500000000	1.1710871871
2.6550000000	1.1952857350
2.6600000000	1.2274564000
2.6650000000	1.2679743205
2.6700000000	1.3173003319
2.6750000000	1.3759928611
2.6800000000	1.4446708440
2.6850000000	1.5239673971
2.6900000000	1.6144010795
2.6950000000	1.7162725800
2.7000000000	1.8294786105
2.7050000000	1.9668943740
2.7100000000	2.1168637212
2.7150000000	2.2764658941
2.7200000000	2.4414530049
2.7250000000	2.6064888613
2.7300000000	2.7655526577
2.7350000000	2.9122861099
2.7400000000	3.0400770697
2.7450000000	3.1430566525
2.7500000000	3.2121208598
2.7550000000	3.2417586245
2.7600000000	3.2277881950
2.7650000000	3.1697235242
2.7700000000	3.0714556827
2.7750000000	2.9407804057
2.7800000000	2.7878588510
2.7850000000	2.6234706083
2.7900000000	2.4572876257
2.7950000000	2.2970659156
2.8000000000	2.1482897412
2.8050000000	1.9977633848
2.8100000000	1.8689329089
2.8150000000	1.7614527698
2.8200000000	1.6735928158
2.8250000000	1.6030727320
2.8300000000	1.5475954784
2.8350000000	1.5051951919
2.8400000000	1.4738024308
2.8450000000	1.4534892136
2.8500000000	1.4427515870
2.8550000000	1.4410164913
2.8600000000	1.4478560036
2.8650000000	1.4628846093
2.8700000000	1.4856710473
2.8750000000	1.5156681454
2.8800000000	1.5521585667
2.8850000000	1.5942093997
2.8900000000	1.6406992157
2.8950000000	1.6903597261
2.9000000000	1.7418571978
2.9050000000	1.8037398170
2.9100000000	1.8631037001
2.9150000000	1.9180816710
2.9200000000	1.9667142020
2.9250000000	2.0067779792
2.9300000000	2.0362257905
2.9350000000	2.0518737506
2.9400000000	2.0523477400
2.9450000000	2.0370624546
2.9500000000	2.0068997764
2.9550000000	1.9641520575
2.9600000000	1.9121280094
2.9650000000	1.8545766663
2.9700000000	1.7951232923
2.9750000000	1.7368660451
2.9800000000	1.6821788365
2.9850000000	1.6326813116
2.9900000000	1.5893476249
2.9950000000	1.5526350477
3.0000000000	1.5226397794
