# energy (eV)    P(omega), $W$ = 400 nm, $h$ = 300 nm, $s$ = 20 nm, $d/W = 5$, $E_{\rm e}$ = 200 keV
0.2000000000	0.0500965700
0.2050000000	0.0505522999
0.2100000000	0.0508732166
0.2150000000	0.0510539153
0.2200000000	0.0510868392
0.2250000000	0.0509617223
0.2300000000	0.0506650581
0.2350000000	0.0501792606
0.2400000000	0.0494817151
0.2450000000	0.0485432748
0.2500000000	0.0473266772
0.2550000000	0.0457839759
0.2600000000	0.0438533860
0.2650000000	0.0458765054
0.2700000000	0.0510154253
0.2750000000	0.0583691013
0.2800000000	0.0686149273
0.2850000000	0.0837200433
0.2900000000	0.1024365530
0.2950000000	0.1292684123
0.3000000000	0.1653383868
0.3050000000	0.2206253259
0.3100000000	0.2976389101
0.3150000000	0.4466570502
0.3200000000	0.6793960645
0.3250000000	0.8387430496
0.3300000000	1.0591723900
0.3350000000	1.3716640964
0.3400000000	1.8622145546
0.3450000000	2.7038443937
0.3500000000	4.3821323474
0.3550000000	8.2671746889
0.3600000000	20.3177308250
0.3650000000	0.0916722036
0.3700000000	9.4167149711
0.3750000000	12.3826838185
0.3800000000	5.7699496878
0.3850000000	3.2502921458
0.3900000000	2.0847928793
0.3950000000	1.4691231448
0.4000000000	1.1126501100
0.4050000000	0.8802540990
0.4100000000	0.7289591743
0.4150000000	0.6291721372
0.4200000000	0.5661054561
0.4250000000	0.5165747324
0.4300000000	0.4580456592
0.4350000000	0.4117233444
0.4400000000	0.3750876215
0.4450000000	0.3459579956
0.4500000000	0.3229604578
0.4550000000	0.3047242257
0.4600000000	0.2904986850
0.4650000000	0.2794899103
0.4700000000	0.2711723157
0.4750000000	0.2651781737
0.4800000000	0.2611865863
0.4850000000	0.2589161747
0.4900000000	0.2582005483
0.4950000000	0.2589116910
0.5000000000	0.2609402336
0.5050000000	0.2642374312
0.5100000000	0.2687633550
0.5150000000	0.2744942875
0.5200000000	0.2814421186
0.5250000000	0.2896166096
0.5300000000	0.2991377630
0.5350000000	0.3100589450
0.5400000000	0.3224762291
0.5450000000	0.3365155971
0.5500000000	0.3523553001
0.5550000000	0.3701903041
0.5600000000	0.3902579260
0.5650000000	0.4128633132
0.5700000000	0.4384277195
0.5750000000	0.4672633651
0.5800000000	0.4999544352
0.5850000000	0.5372991086
0.5900000000	0.5798357984
0.5950000000	0.6286974020
0.6000000000	0.6853806295
0.6050000000	0.7510072789
0.6100000000	0.8281487946
0.6150000000	0.9189376377
0.6200000000	1.0270343862
0.6250000000	1.1576907085
0.6300000000	1.3162625332
0.6350000000	1.5128138807
0.6400000000	1.7584482310
0.6450000000	2.0733142036
0.6500000000	2.4831497537
0.6550000000	3.0315523452
0.6600000000	3.7921353806
0.6650000000	4.8812020593
0.6700000000	6.5303103492
0.6750000000	9.1818302016
0.6800000000	13.8688955584
0.6850000000	23.2738048250
0.6900000000	46.6445251642
0.6950000000	130.9384250915
0.7000000000	635.0637592141
0.7050000000	308.7525708510
0.7100000000	79.3122723797
0.7150000000	33.7281381410
0.7200000000	18.4194206531
0.7250000000	11.5707228802
0.7300000000	7.9359407290
0.7350000000	5.7872376326
0.7400000000	4.4112846022
0.7450000000	3.4773409412
0.7500000000	2.8157520240
0.7550000000	2.3297013656
0.7600000000	1.9633536758
0.7650000000	1.6792559769
0.7700000000	1.4549897040
0.7750000000	1.2749456776
0.7800000000	1.1286356901
0.7850000000	1.0081642606
0.7900000000	0.9072370826
0.7950000000	0.8229442863
0.8000000000	0.7512726262
0.8050000000	0.6898683263
0.8100000000	0.6375948272
0.8150000000	0.5917792569
0.8200000000	0.5518918801
0.8250000000	0.5184194210
0.8300000000	0.4891199306
0.8350000000	0.4636482816
0.8400000000	0.4433639754
0.8450000000	0.4256648523
0.8500000000	0.4106579128
0.8550000000	0.4011723495
0.8600000000	0.3935743327
0.8650000000	0.3881342240
0.8700000000	0.3900287257
0.8750000000	0.3906925196
0.8800000000	0.3885899466
0.8850000000	0.3716939264
0.8900000000	0.2884460947
0.8950000000	-0.1287531233
0.9000000000	-2.3658934308
0.9050000000	-15.5456558194
0.9100000000	2.9602005493
0.9150000000	7.0121765275
0.9200000000	2.9108899559
0.9250000000	1.5143265227
0.9300000000	0.9243773414
0.9350000000	0.6425179567
0.9400000000	0.4904658719
0.9450000000	0.4061832829
0.9500000000	0.3463280294
0.9550000000	0.3062601935
0.9600000000	0.2814780803
0.9650000000	0.2610282132
0.9700000000	0.2464329730
0.9750000000	0.2364816474
0.9800000000	0.2304161806
0.9850000000	0.2292883261
0.9900000000	0.2314677578
0.9950000000	0.2403349174
1.0000000000	0.2615610499
1.0050000000	0.3111403348
1.0100000000	0.4410880747
1.0150000000	0.8864843257
1.0200000000	1.7019091318
1.0250000000	0.7740350680
1.0300000000	0.3967267311
1.0350000000	0.2842715303
1.0400000000	0.2400507929
1.0450000000	0.2193078536
1.0500000000	0.2089133468
1.0550000000	0.2034627101
1.0600000000	0.2010200872
1.0650000000	0.2005691117
1.0700000000	0.2015462898
1.0750000000	0.2037535696
1.0800000000	0.2067968180
1.0850000000	0.2109363155
1.0900000000	0.2169161040
1.0950000000	0.2238866223
1.1000000000	0.2319162596
1.1050000000	0.2410195911
1.1100000000	0.2513406922
1.1150000000	0.2630169337
1.1200000000	0.2762113092
1.1250000000	0.2910586870
1.1300000000	0.3079437471
1.1350000000	0.3271257175
1.1400000000	0.3489928949
1.1450000000	0.3740389737
1.1500000000	0.4026480973
1.1550000000	0.4360165466
1.1600000000	0.4749007113
1.1650000000	0.5202913218
1.1700000000	0.5723941965
1.1750000000	0.6252378716
1.1800000000	0.6752566221
1.1850000000	0.9385099391
1.1900000000	1.1646730859
1.1950000000	1.5965498958
1.2000000000	2.1743575390
1.2050000000	1.9073319663
1.2100000000	1.8253936954
1.2150000000	2.0322102742
1.2200000000	2.4305566004
1.2250000000	3.0422827629
1.2300000000	3.9724529988
1.2350000000	5.4438842555
1.2400000000	7.9225114122
1.2450000000	12.5897529467
1.2500000000	22.6976907898
1.2550000000	49.1334611770
1.2600000000	118.6779857728
1.2650000000	120.2160736053
1.2700000000	50.0075216185
1.2750000000	23.0835604202
1.2800000000	12.7841129698
1.2850000000	8.0394269305
1.2900000000	5.5103050773
1.2950000000	4.0160017205
1.3000000000	3.0641962240
1.3050000000	2.4233486663
1.3100000000	1.9714481828
1.3150000000	1.6449281859
1.3200000000	1.4028792916
1.3250000000	1.2207297830
1.3300000000	1.0835551453
1.3350000000	0.9821977646
1.3400000000	0.9119036481
1.3450000000	0.8713701579
1.3500000000	0.8665136914
1.3550000000	0.9108028053
1.3600000000	1.0385060226
1.3650000000	1.3368261854
1.3700000000	2.0492403291
1.3750000000	3.8217709952
1.3800000000	6.2426614614
1.3850000000	4.3609566839
1.3900000000	2.2223424313
1.3950000000	1.2894567338
1.4000000000	0.8444533219
1.4050000000	0.5709633636
1.4100000000	0.3234470599
1.4150000000	-0.0457751599
1.4200000000	-0.8723815194
1.4250000000	-3.0626504896
1.4300000000	-4.1179563608
1.4350000000	1.8866406032
1.4400000000	2.4132976039
1.4450000000	1.4468833053
1.4500000000	0.9003139542
1.4550000000	0.6206281166
1.4600000000	0.4582967448
1.4650000000	0.3299997140
1.4700000000	0.1927600003
1.4750000000	0.2265393250
1.4800000000	0.3321426776
1.4850000000	0.3015958026
1.4900000000	0.2670538069
1.4950000000	0.2447118973
1.5000000000	0.2300350952
1.5050000000	0.2203306150
1.5100000000	0.2137285403
1.5150000000	0.2101256470
1.5200000000	0.2074692200
1.5250000000	0.2065095086
1.5300000000	0.2073343980
1.5350000000	0.2103220714
1.5400000000	0.2164163717
1.5450000000	0.2277135779
1.5500000000	0.2489253940
1.5550000000	0.2894435321
1.5600000000	0.3502630009
1.5650000000	0.3600115154
1.5700000000	0.3051340341
1.5750000000	0.2666282970
1.5800000000	0.2500217943
1.5850000000	0.2448022013
1.5900000000	0.2454885925
1.5950000000	0.2497008161
1.6000000000	0.2564020009
1.6050000000	0.2652353748
1.6100000000	0.2759344568
1.6150000000	0.2884597192
1.6200000000	0.3030107709
1.6250000000	0.3197598130
1.6300000000	0.3389897571
1.6350000000	0.3610653059
1.6400000000	0.3864527952
1.6450000000	0.4157478139
1.6500000000	0.4496979638
1.6550000000	0.4892506560
1.6600000000	0.5356333560
1.6650000000	0.5904304578
1.6700000000	0.6551825217
1.6750000000	0.7336699671
1.6800000000	0.8292344669
1.6850000000	0.9471330579
1.6900000000	1.0948297327
1.6950000000	1.2832777411
1.7000000000	1.5289659507
1.7050000000	1.8679006409
1.7100000000	2.3407770289
1.7150000000	3.0281169412
1.7200000000	4.0756534294
1.7250000000	5.7375387715
1.7300000000	8.2913982354
1.7350000000	11.5687291435
1.7400000000	15.7115867159
1.7450000000	22.9816521188
1.7500000000	32.4189775533
1.7550000000	32.9404655199
1.7600000000	23.1098653488
1.7650000000	14.3953156798
1.7700000000	9.2279802544
1.7750000000	6.2896387583
1.7800000000	4.5532021531
1.7850000000	3.4850771257
1.7900000000	2.8226765518
1.7950000000	2.4436581991
1.8000000000	2.2906753552
1.8050000000	2.2422393714
1.8100000000	1.9949468904
1.8150000000	1.5457968436
1.8200000000	1.1869589815
1.8250000000	1.0019479640
1.8300000000	0.8723032888
1.8350000000	0.7570829364
1.8400000000	0.6631288044
1.8450000000	0.5885703126
1.8500000000	0.5284841506
1.8550000000	0.4788464284
1.8600000000	0.4331868663
1.8650000000	0.3945865594
1.8700000000	0.3555758055
1.8750000000	0.2993383109
1.8800000000	0.1711410592
1.8850000000	-0.1098352865
1.8900000000	-0.4877687070
1.8950000000	-0.5526182027
1.9000000000	0.0591415190
1.9050000000	0.6295206785
1.9100000000	0.6960757107
1.9150000000	0.5880540528
1.9200000000	0.4821825331
1.9250000000	0.4070548654
1.9300000000	0.3615557976
1.9350000000	0.3268173368
1.9400000000	0.3037053679
1.9450000000	0.2884029963
1.9500000000	0.2777063156
1.9550000000	0.2687611748
1.9600000000	0.2610430786
1.9650000000	0.2555646187
1.9700000000	0.2526400855
1.9750000000	0.2520746823
1.9800000000	0.2537108834
1.9850000000	0.2575964025
1.9900000000	0.2639863402
1.9950000000	0.2731996739
2.0000000000	0.2849969065
2.0050000000	0.2983809039
2.0100000000	0.3079837418
2.0150000000	0.3143918098
2.0200000000	0.3221190001
2.0250000000	0.3340434469
2.0300000000	0.3510123832
2.0350000000	0.3734502706
2.0400000000	0.4021277121
2.0450000000	0.4383815204
2.0500000000	0.4841314307
2.0550000000	0.5415106786
2.0600000000	0.6115537555
2.0650000000	0.6931594703
2.0700000000	0.7875537691
2.0750000000	0.9052667109
2.0800000000	1.0636832488
2.0850000000	1.2797538472
2.0900000000	1.5633363012
2.0950000000	1.8940564363
2.1000000000	2.1888205243
2.1050000000	2.3316526506
2.1100000000	2.2638241479
2.1150000000	2.1077410082
2.1200000000	1.9974206193
2.1250000000	1.9927156946
2.1300000000	2.1113833781
2.1350000000	2.3674980093
2.1400000000	2.7892497422
2.1450000000	3.4265111353
2.1500000000	4.3491201289
2.1550000000	5.6095360187
2.1600000000	7.1061154512
2.1650000000	8.3639668280
2.1700000000	8.6611840566
2.1750000000	7.7531663019
2.1800000000	6.2593410594
2.1850000000	4.8293813059
2.1900000000	3.7113647322
2.1950000000	2.9036323451
2.2000000000	2.3369433647
2.2050000000	1.9459778458
2.2100000000	1.6745701897
2.2150000000	1.4663972592
2.2200000000	1.2798569527
2.2250000000	1.1024228310
2.2300000000	0.9417665050
2.2350000000	0.8038203334
2.2400000000	0.6869849380
2.2450000000	0.5861023069
2.2500000000	0.4960380802
2.2550000000	0.4139205497
2.2600000000	0.3318012034
2.2650000000	0.2720604158
2.2700000000	0.2396079243
2.2750000000	0.2477747126
2.2800000000	0.2949041908
2.2850000000	0.3549188204
2.2900000000	0.3988474951
2.2950000000	0.4183155355
2.3000000000	0.4205393902
2.3050000000	0.4138174920
2.3100000000	0.4049647594
2.3150000000	0.3971218834
2.3200000000	0.3915305016
2.3250000000	0.3888718637
2.3300000000	0.3896967426
2.3350000000	0.3944614296
2.3400000000	0.4035559528
2.3450000000	0.4173751688
2.3500000000	0.4363375147
2.3550000000	0.4610703261
2.3600000000	0.4911675816
2.3650000000	0.5268166689
2.3700000000	0.5679185779
2.3750000000	0.6149195814
2.3800000000	0.6695162828
2.3850000000	0.7337217730
2.3900000000	0.8079811180
2.3950000000	0.8889876525
2.4000000000	0.9682408541
2.4050000000	1.0365395542
2.4100000000	1.0743960285
2.4150000000	1.0780149757
2.4200000000	1.0566517066
2.4250000000	1.0260886963
2.4300000000	1.0003332925
2.4350000000	0.9878411273
2.4400000000	0.9919866519
2.4450000000	1.0133154866
2.4500000000	1.0518962501
2.4550000000	1.1085886826
2.4600000000	1.1870268675
2.4650000000	1.2909360416
2.4700000000	1.4244646128
2.4750000000	1.5902035103
2.4800000000	1.7868450153
2.4850000000	2.0059990728
2.4900000000	2.2284737163
2.4950000000	2.4224209464
2.5000000000	2.5479874852
2.5050000000	2.5641316345
2.5100000000	2.4544656641
2.5150000000	2.2489233643
2.5200000000	1.9953337646
2.5250000000	1.7357159421
2.5300000000	1.4956831684
2.5350000000	1.2859972882
2.5400000000	1.1082426719
2.5450000000	0.9597821189
2.5500000000	0.8367937764
2.5550000000	0.7358437823
2.5600000000	0.6514320610
2.5650000000	0.5882596944
2.5700000000	0.5428680821
2.5750000000	0.5136385046
2.5800000000	0.4973267791
2.5850000000	0.4894959190
2.5900000000	0.4859819378
2.5950000000	0.4841919589
2.6000000000	0.4832899562
2.6050000000	0.4871425142
2.6100000000	0.4932471651
2.6150000000	0.5025386850
2.6200000000	0.5155137029
2.6250000000	0.5322028025
2.6300000000	0.5521349110
2.6350000000	0.5743102398
2.6400000000	0.5972011912
2.6450000000	0.6188706265
2.6500000000	0.6372670021
2.6550000000	0.6507082364
2.6600000000	0.6584129687
2.6650000000	0.6608401002
2.6700000000	0.6595917589
2.6750000000	0.6570098988
2.6800000000	0.6553638623
2.6850000000	0.6567739353
2.6900000000	0.6627167040
2.6950000000	0.6740996439
2.7000000000	0.6913578817
2.7050000000	0.7171901818
2.7100000000	0.7504343751
2.7150000000	0.7905530722
2.7200000000	0.8364354018
2.7250000000	0.8861955718
2.7300000000	0.9369866461
2.7350000000	0.9849703657
2.7400000000	1.0255810661
2.7450000000	1.0541831223
2.7500000000	1.0670401145
2.7550000000	1.0622695997
2.7600000000	1.0403524833
2.7650000000	1.0039595564
2.7700000000	0.9571776824
2.7750000000	0.9045348783
2.7800000000	0.8501830503
2.7850000000	0.7974437509
2.7900000000	0.7482426011
2.7950000000	0.7046867793
2.8000000000	0.6672122551
2.8050000000	0.6325035417
2.8100000000	0.6051378174
2.8150000000	0.5840378533
2.8200000000	0.5680333897
2.8250000000	0.5560505588
2.8300000000	0.5471766476
2.8350000000	0.5406545841
2.8400000000	0.5358446469
2.8450000000	0.5322036988
2.8500000000	0.5292955954
2.8550000000	0.5268307962
2.8600000000	0.5247112560
2.8650000000	0.5230449063
2.8700000000	0.5221182242
2.8750000000	0.5223252408
2.8800000000	0.5240802633
2.8850000000	0.5277392026
2.8900000000	0.5335447327
2.8950000000	0.5415932734
2.9000000000	0.5518186834
2.9050000000	0.5671133257
2.9100000000	0.5838854418
2.9150000000	0.6010152728
2.9200000000	0.6170876885
2.9250000000	0.6305824947
2.9300000000	0.6400882347
2.9350000000	0.6445495879
2.9400000000	0.6434715893
2.9450000000	0.6370141532
2.9500000000	0.6259322871
2.9550000000	0.6113836690
2.9600000000	0.5946846608
2.9650000000	0.5770821519
2.9700000000	0.5596015711
2.9750000000	0.5429804052
2.9800000000	0.5276726938
2.9850000000	0.5138980655
2.9900000000	0.5017076034
2.9950000000	0.4910478538
3.0000000000	0.4818130787
