# energy (eV)    P(omega), $W$ = 400 nm, $h$ = 300 nm, $s$ = 20 nm, $d/W = 5$, $E_{\rm e}$ = 200 keV
0.2000000000	0.1062177261
0.2050000000	0.1071839472
0.2100000000	0.1078643900
0.2150000000	0.1082475949
0.2200000000	0.1083175393
0.2250000000	0.1080524574
0.2300000000	0.1074237133
0.2350000000	0.1063940227
0.2400000000	0.1049154399
0.2450000000	0.1029261718
0.2500000000	0.1003472186
0.2550000000	0.0970769308
0.2600000000	0.0929843208
0.2650000000	0.0972733596
0.2700000000	0.1081678065
0.2750000000	0.1237575465
0.2800000000	0.1454786911
0.2850000000	0.1775016094
0.2900000000	0.2171808820
0.2950000000	0.2740649683
0.3000000000	0.3505343207
0.3050000000	0.4677444412
0.3100000000	0.6310163106
0.3150000000	0.9469410374
0.3200000000	1.4403590765
0.3250000000	1.7781861432
0.3300000000	2.2455132234
0.3350000000	2.9080210559
0.3400000000	3.9480294414
0.3450000000	5.7323584522
0.3500000000	9.2904807534
0.3550000000	17.5271360438
0.3600000000	43.0754934955
0.3650000000	0.1942026928
0.3700000000	19.9644917300
0.3750000000	26.2527326437
0.3800000000	12.2330129552
0.3850000000	6.8910532965
0.3900000000	4.4200586081
0.3950000000	3.1147651251
0.4000000000	2.3589988866
0.4050000000	1.8662905304
0.4100000000	1.5455265528
0.4150000000	1.3339660285
0.4200000000	1.2002578361
0.4250000000	1.0952475146
0.4300000000	0.9711581910
0.4350000000	0.8729487941
0.4400000000	0.7952763227
0.4450000000	0.7335178556
0.4500000000	0.6847603602
0.4550000000	0.6460975883
0.4600000000	0.6159381615
0.4650000000	0.5925988618
0.4700000000	0.5749653700
0.4750000000	0.5622580774
0.4800000000	0.5537966388
0.4850000000	0.5489844911
0.4900000000	0.5474688830
0.4950000000	0.5489784121
0.5000000000	0.5532812186
0.5050000000	0.5602739635
0.5100000000	0.5698720214
0.5150000000	0.5820251207
0.5200000000	0.5967585000
0.5250000000	0.6140928710
0.5300000000	0.6342827127
0.5350000000	0.6574411871
0.5400000000	0.6837720461
0.5450000000	0.7135424257
0.5500000000	0.7471303235
0.5550000000	0.7849491603
0.5600000000	0.8275021659
0.5650000000	0.8754364182
0.5700000000	0.9296451667
0.5750000000	0.9907904896
0.5800000000	1.0601111383
0.5850000000	1.1392996360
0.5900000000	1.2294977054
0.5950000000	1.3331076466
0.6000000000	1.4533031860
0.6050000000	1.5924631401
0.6100000000	1.7560402074
0.6150000000	1.9485562933
0.6200000000	2.1777736295
0.6250000000	2.4548283640
0.6300000000	2.7910777249
0.6350000000	3.2078624536
0.6400000000	3.7287274984
0.6450000000	4.3963979949
0.6500000000	5.2654515500
0.6550000000	6.4283365172
0.6600000000	8.0411505849
0.6650000000	10.3505153305
0.6700000000	13.8474509916
0.6750000000	19.4700068193
0.6800000000	29.4089526857
0.6850000000	49.3521303495
0.6900000000	98.9099603829
0.6950000000	277.6561522884
0.7000000000	1346.6612622585
0.7050000000	654.7152664362
0.7100000000	168.1834006851
0.7150000000	71.5213919275
0.7200000000	39.0589371225
0.7250000000	24.5361159868
0.7300000000	16.8284688140
0.7350000000	12.2720856071
0.7400000000	9.3543370873
0.7450000000	7.3738805417
0.7500000000	5.9709594059
0.7550000000	4.9402719929
0.7600000000	4.1634182829
0.7650000000	3.5609781629
0.7700000000	3.0854124950
0.7750000000	2.7036216110
0.7800000000	2.3933649207
0.7850000000	2.1378999059
0.7900000000	1.9238791585
0.7950000000	1.7451323182
0.8000000000	1.5931491233
0.8050000000	1.4629382957
0.8100000000	1.3520897840
0.8150000000	1.2549355805
0.8200000000	1.1703523961
0.8250000000	1.0993724817
0.8300000000	1.0372415744
0.8350000000	0.9832278458
0.8400000000	0.9402143613
0.8450000000	0.9026829470
0.8500000000	0.8708605260
0.8550000000	0.8507469103
0.8600000000	0.8346360411
0.8650000000	0.8231012627
0.8700000000	0.8271207351
0.8750000000	0.8285301995
0.8800000000	0.8240728783
0.8850000000	0.7882427635
0.8900000000	0.6116990469
0.8950000000	-0.2730618373
0.9000000000	-5.0174131450
0.9050000000	-32.9680698527
0.9100000000	6.2777940428
0.9150000000	14.8709603506
0.9200000000	6.1732325435
0.9250000000	3.2114919604
0.9300000000	1.9603641916
0.9350000000	1.3626132534
0.9400000000	1.0401494223
0.9450000000	0.8614070591
0.9500000000	0.7344682731
0.9550000000	0.6494931864
0.9600000000	0.5969348902
0.9650000000	0.5535634112
0.9700000000	0.5226072084
0.9750000000	0.5014982908
0.9800000000	0.4886283555
0.9850000000	0.4862268731
0.9900000000	0.4908340291
0.9950000000	0.5096147474
1.0000000000	0.5545865887
1.0050000000	0.6596431815
1.0100000000	0.9350073425
1.0150000000	1.8788448099
1.0200000000	3.6068747001
1.0250000000	1.6406280531
1.0300000000	0.8410548821
1.0350000000	0.6027422687
1.0400000000	0.5090306811
1.0450000000	0.4650738303
1.0500000000	0.4430486013
1.0550000000	0.4315010160
1.0600000000	0.4263289664
1.0650000000	0.4253785504
1.0700000000	0.4274556265
1.0750000000	0.4321406625
1.0800000000	0.4385981323
1.0850000000	0.4473802562
1.0900000000	0.4600652602
1.0950000000	0.4748513539
1.1000000000	0.4918835968
1.1050000000	0.5111930600
1.1100000000	0.5330853082
1.1150000000	0.5578517427
1.1200000000	0.5858380876
1.1250000000	0.6173303394
1.1300000000	0.6531445329
1.1350000000	0.6938303813
1.1400000000	0.7402115127
1.1450000000	0.7933349464
1.1500000000	0.8540152411
1.1550000000	0.9247896259
1.1600000000	1.0072617266
1.1650000000	1.1035309921
1.1700000000	1.2140285062
1.1750000000	1.3260652349
1.1800000000	1.4320505396
1.1850000000	1.9906731634
1.1900000000	2.4703269040
1.1950000000	3.3861582387
1.2000000000	4.6115008769
1.2050000000	4.0453277087
1.2100000000	3.8716825119
1.2150000000	4.3104132468
1.2200000000	5.1553626463
1.2250000000	6.4528969114
1.2300000000	8.4258740957
1.2350000000	11.5469117371
1.2400000000	16.8043020486
1.2450000000	26.7039435205
1.2500000000	48.1438102088
1.2550000000	104.2165617612
1.2600000000	251.7272208727
1.2650000000	254.9900595649
1.2700000000	106.0710349378
1.2750000000	48.9626757911
1.2800000000	27.1165199147
1.2850000000	17.0525609050
1.2900000000	11.6880362136
1.2950000000	8.5184672376
1.3000000000	6.4995930453
1.3050000000	5.1402943338
1.3100000000	4.1817740853
1.3150000000	3.4892016301
1.3200000000	2.9758046462
1.3250000000	2.5894654255
1.3300000000	2.2985292300
1.3350000000	2.0835745804
1.3400000000	1.9345225825
1.3450000000	1.8486182070
1.3500000000	1.8384254000
1.3550000000	1.9325411302
1.3600000000	2.2037151262
1.3650000000	2.8370655569
1.3700000000	4.3494505425
1.3750000000	8.1122549031
1.3800000000	13.2513907105
1.3850000000	9.2569241355
1.3900000000	4.7170981877
1.3950000000	2.7368145444
1.4000000000	1.7922298854
1.4050000000	1.2117765632
1.4100000000	0.6865618234
1.4150000000	-0.0967401433
1.4200000000	-1.8501955485
1.4250000000	-6.4962035501
1.4300000000	-8.7347490186
1.4350000000	4.0020676996
1.4400000000	5.1191905243
1.4450000000	3.0692299702
1.4500000000	1.9098372288
1.4550000000	1.3165511186
1.4600000000	0.9721822970
1.4650000000	0.6999607008
1.4700000000	0.4086896704
1.4750000000	0.4804639000
1.4800000000	0.7046979553
1.4850000000	0.6398797138
1.4900000000	0.5665718387
1.4950000000	0.5191583118
1.5000000000	0.4880130378
1.5050000000	0.4674194728
1.5100000000	0.4534090796
1.5150000000	0.4457616655
1.5200000000	0.4401221772
1.5250000000	0.4380813965
1.5300000000	0.4398249782
1.5350000000	0.4461538517
1.5400000000	0.4590678819
1.5450000000	0.4830090423
1.5500000000	0.5279615772
1.5550000000	0.6138267355
1.5600000000	0.7427122850
1.5650000000	0.7633747440
1.5700000000	0.6470945310
1.5750000000	0.5655104818
1.5800000000	0.5303343544
1.5850000000	0.5192897608
1.5900000000	0.5207624590
1.5950000000	0.5297090227
1.6000000000	0.5439325538
1.6050000000	0.5626775353
1.6100000000	0.5853794953
1.6150000000	0.6119550338
1.6200000000	0.6428278648
1.6250000000	0.6783635264
1.6300000000	0.7191623615
1.6350000000	0.7659982100
1.6400000000	0.8198605114
1.6450000000	0.8820129297
1.6500000000	0.9540416426
1.6550000000	1.0379567426
1.6600000000	1.1363625147
1.6650000000	1.2526205349
1.6700000000	1.3899995664
1.6750000000	1.5565202032
1.6800000000	1.7592726792
1.6850000000	2.0094110345
1.6900000000	2.3227720825
1.6950000000	2.7225961789
1.7000000000	3.2438697047
1.7050000000	3.9629911908
1.7100000000	4.9663130292
1.7150000000	6.4246978573
1.7200000000	8.6473891531
1.7250000000	12.1736910807
1.7300000000	17.5926103785
1.7350000000	24.5458974165
1.7400000000	33.3339983970
1.7450000000	48.7559818317
1.7500000000	68.7760903586
1.7550000000	69.8821224525
1.7600000000	49.0269286538
1.7650000000	30.5394054509
1.7700000000	19.5771252755
1.7750000000	13.3435620640
1.7800000000	9.6598051171
1.7850000000	7.3938730257
1.7900000000	5.9887197192
1.7950000000	5.1848370074
1.8000000000	4.8606020452
1.8050000000	4.7581813477
1.8100000000	4.2335032535
1.8150000000	3.2802258406
1.8200000000	2.5186245436
1.8250000000	2.1260079887
1.8300000000	1.8509022699
1.8350000000	1.6063973854
1.8400000000	1.4070229472
1.8450000000	1.2488115240
1.8500000000	1.1213139937
1.8550000000	1.0159901998
1.8600000000	0.9191112817
1.8650000000	0.8372125283
1.8700000000	0.7544464439
1.8750000000	0.6351362982
1.8800000000	0.3631622197
1.8850000000	-0.2329406917
1.8900000000	-1.0347456834
1.8950000000	-1.1723376926
1.9000000000	0.1255192357
1.9050000000	1.3355947263
1.9100000000	1.4767937454
1.9150000000	1.2476213275
1.9200000000	1.0230095239
1.9250000000	0.8636211729
1.9300000000	0.7670901308
1.9350000000	0.6933868684
1.9400000000	0.6443478472
1.9450000000	0.6118756884
1.9500000000	0.5891766184
1.9550000000	0.5702008956
1.9600000000	0.5538344008
1.9650000000	0.5422193724
1.9700000000	0.5360200331
1.9750000000	0.5348230788
1.9800000000	0.5382944846
1.9850000000	0.5465352330
1.9900000000	0.5600857273
1.9950000000	0.5796217726
2.0000000000	0.6046361570
2.0050000000	0.6330210021
2.0100000000	0.6534013471
2.0150000000	0.6670218819
2.0200000000	0.6834464176
2.0250000000	0.7087736201
2.0300000000	0.7448005474
2.0350000000	0.7924296883
2.0400000000	0.8532981164
2.0450000000	0.9302441741
2.0500000000	1.0273431583
2.0550000000	1.1491237486
2.0600000000	1.2977835210
2.0650000000	1.4709883969
2.0700000000	1.6713436338
2.0750000000	1.9212000777
2.0800000000	2.2574572426
2.0850000000	2.7160939523
2.0900000000	3.3180339375
2.0950000000	4.0200261031
2.1000000000	4.6456784011
2.1050000000	4.9487963542
2.1100000000	4.8047057810
2.1150000000	4.4732413271
2.1200000000	4.2388836259
2.1250000000	4.2286734015
2.1300000000	4.4802853122
2.1350000000	5.0235663395
2.1400000000	5.9183146201
2.1450000000	7.2703378175
2.1500000000	9.2278136763
2.1550000000	11.9020566275
2.1600000000	15.0774104729
2.1650000000	17.7462641371
2.1700000000	18.3769012340
2.1750000000	16.4503303685
2.1800000000	13.2808139718
2.1850000000	10.2467931087
2.1900000000	7.8746282278
2.1950000000	6.1608010755
2.2000000000	4.9584004894
2.2050000000	4.1288344992
2.2100000000	3.5529399825
2.2150000000	3.1112258299
2.2200000000	2.7154343074
2.2250000000	2.3389845302
2.2300000000	1.9981405026
2.2350000000	1.7054791747
2.2400000000	1.4576039487
2.2450000000	1.2435711179
2.2500000000	1.0524883108
2.2550000000	0.8782643149
2.2600000000	0.7040361451
2.2650000000	0.5772908267
2.2700000000	0.5084445224
2.2750000000	0.5257804510
2.2800000000	0.6257834050
2.2850000000	0.7531248259
2.2900000000	0.8463365893
2.2950000000	0.8876501613
2.3000000000	0.8923768316
2.3050000000	0.8781236029
2.3100000000	0.8593493191
2.3150000000	0.8427171469
2.3200000000	0.8308613665
2.3250000000	0.8252280176
2.3300000000	0.8269867497
2.3350000000	0.8371067493
2.3400000000	0.8564163626
2.3450000000	0.8857540769
2.3500000000	0.9260082938
2.3550000000	0.9785106175
2.3600000000	1.0423996644
2.3650000000	1.1180730186
2.3700000000	1.2053205305
2.3750000000	1.3050895113
2.3800000000	1.4209814225
2.3850000000	1.5572694628
2.3900000000	1.7148981857
2.3950000000	1.8868478527
2.4000000000	2.0550732929
2.4050000000	2.2000404418
2.4100000000	2.2803812916
2.4150000000	2.2880392335
2.4200000000	2.2426613731
2.4250000000	2.1777503325
2.4300000000	2.1230400621
2.4350000000	2.0964788578
2.4400000000	2.1052287877
2.4450000000	2.1504465202
2.4500000000	2.2322758113
2.4550000000	2.3525387863
2.4600000000	2.5189463303
2.4650000000	2.7394028036
2.4700000000	3.0227115139
2.4750000000	3.3743715498
2.4800000000	3.7916094529
2.4850000000	4.2566235010
2.4900000000	4.7286904254
2.4950000000	5.1402309210
2.5000000000	5.4066780285
2.5050000000	5.4409426756
2.5100000000	5.2082489501
2.5150000000	4.7721121169
2.5200000000	4.2340209256
2.5250000000	3.6831365553
2.5300000000	3.1738088262
2.5350000000	2.7288739599
2.5400000000	2.3516943221
2.5450000000	2.0366742387
2.5500000000	1.7757043469
2.5550000000	1.5614984973
2.5600000000	1.3823860786
2.5650000000	1.2483428166
2.5700000000	1.1520299904
2.5750000000	1.0900129643
2.5800000000	1.0554078555
2.5850000000	1.0387996045
2.5900000000	1.0313523150
2.5950000000	1.0275639434
2.6000000000	1.0256604958
2.6050000000	1.0338484755
2.6100000000	1.0468168301
2.6150000000	1.0665495980
2.6200000000	1.0941008531
2.6250000000	1.1295354202
2.6300000000	1.1718531846
2.6350000000	1.2189316302
2.6400000000	1.2675276680
2.6450000000	1.3135287653
2.6500000000	1.3525794950
2.6550000000	1.3811087778
2.6600000000	1.3974577233
2.6650000000	1.4026004909
2.6700000000	1.3999382192
2.6750000000	1.3944426149
2.6800000000	1.3909312373
2.6850000000	1.3939051224
2.6900000000	1.4064987619
2.6950000000	1.4306384554
2.7000000000	1.4672477727
2.7050000000	1.5220521358
2.7100000000	1.5925870202
2.7150000000	1.6777118989
2.7200000000	1.7750692977
2.7250000000	1.8806573457
2.7300000000	1.9884345974
2.7350000000	2.0902559737
2.7400000000	2.1764328489
2.7450000000	2.2371279845
2.7500000000	2.2644124121
2.7550000000	2.2542912778
2.7600000000	2.2077848624
2.7650000000	2.1305605530
2.7700000000	2.0312907477
2.7750000000	1.9195839809
2.7800000000	1.8042508961
2.7850000000	1.6923399377
2.7900000000	1.5879374275
2.7950000000	1.4955149573
2.8000000000	1.4159976559
2.8050000000	1.3423505847
2.8100000000	1.2842860356
2.8150000000	1.2395178794
2.8200000000	1.2055625589
2.8250000000	1.1801410487
2.8300000000	1.1613162813
2.8350000000	1.1474814719
2.8400000000	1.1372788647
2.8450000000	1.1295556500
2.8500000000	1.1233861269
2.8550000000	1.1181557447
2.8600000000	1.1136564852
2.8650000000	1.1101175529
2.8700000000	1.1081471973
2.8750000000	1.1085819608
2.8800000000	1.1123014559
2.8850000000	1.1200613043
2.8900000000	1.1323767745
2.8950000000	1.1494526740
2.9000000000	1.1711487946
2.9050000000	1.2036026473
2.9100000000	1.2391929364
2.9150000000	1.2755433299
2.9200000000	1.3096506701
2.9250000000	1.3382888006
2.9300000000	1.3584623106
2.9350000000	1.3679315316
2.9400000000	1.3656459489
2.9450000000	1.3519447921
2.9500000000	1.3284301828
2.9550000000	1.2975587579
2.9600000000	1.2621239388
2.9650000000	1.2247717126
2.9700000000	1.1876781102
2.9750000000	1.1524081189
2.9800000000	1.1199252111
2.9850000000	1.0906954358
2.9900000000	1.0648271319
2.9950000000	1.0422068330
3.0000000000	1.0226101219
