# energy (eV)    P(omega), $W$ = 300 nm, $h$ = 300 nm, $s$ = 20 nm, $d/W = 5$, $E_{\rm e}$ = 200 keV
0.2000000000	0.3379276180
0.2050000000	0.3427852434
0.2100000000	0.3473521718
0.2150000000	0.3516374615
0.2200000000	0.3556489153
0.2250000000	0.3593929866
0.2300000000	0.3628744051
0.2350000000	0.3660961287
0.2400000000	0.3690589633
0.2450000000	0.3717608908
0.2500000000	0.3741974154
0.2550000000	0.3763599493
0.2600000000	0.3782359625
0.2650000000	0.3798079839
0.2700000000	0.3810520581
0.2750000000	0.3819368876
0.2800000000	0.3824218877
0.2850000000	0.3824551300
0.2900000000	0.3819699328
0.2950000000	0.3808822460
0.3000000000	0.3790838085
0.3050000000	0.3764378554
0.3100000000	0.3727687826
0.3150000000	0.3928492289
0.3200000000	0.4167009159
0.3250000000	0.4468515704
0.3300000000	0.4871969930
0.3350000000	0.5374333090
0.3400000000	0.6032253649
0.3450000000	0.6830970486
0.3500000000	0.7876276091
0.3550000000	0.9260117096
0.3600000000	1.1068374182
0.3650000000	1.3590498121
0.3700000000	1.6919435484
0.3750000000	2.1553723920
0.3800000000	2.8261152660
0.3850000000	3.8719178982
0.3900000000	5.5253380464
0.3950000000	8.3359814938
0.4000000000	13.6977530710
0.4050000000	25.7269355587
0.4100000000	58.5742194062
0.4150000000	188.1404164689
0.4200000000	119.7563128083
0.4250000000	-226.0741498405
0.4300000000	63.0017093493
0.4350000000	39.3115262001
0.4400000000	24.0682531042
0.4450000000	15.8570867885
0.4500000000	11.1269532202
0.4550000000	8.2142594177
0.4600000000	6.3161318810
0.4650000000	5.0219863296
0.4700000000	4.1068799910
0.4750000000	3.4448348384
0.4800000000	2.9538777099
0.4850000000	2.5844413817
0.4900000000	2.3025071819
0.4950000000	2.0852282391
0.5000000000	1.9169928277
0.5050000000	1.7863321918
0.5100000000	1.6858774117
0.5150000000	1.6102058086
0.5200000000	1.5536153946
0.5250000000	1.5135670518
0.5300000000	1.4873124912
0.5350000000	1.4728473698
0.5400000000	1.4686967663
0.5450000000	1.4736288000
0.5500000000	1.4872775828
0.5550000000	1.5089562125
0.5600000000	1.5383300433
0.5650000000	1.5752582469
0.5700000000	1.6196220748
0.5750000000	1.6717384933
0.5800000000	1.7321242471
0.5850000000	1.8011181146
0.5900000000	1.8793658058
0.5950000000	1.9676669811
0.6000000000	2.0670392689
0.6050000000	2.1789411890
0.6100000000	2.3047780756
0.6150000000	2.4464567491
0.6200000000	2.6065222401
0.6250000000	2.7874118667
0.6300000000	2.9927271252
0.6350000000	3.2269577670
0.6400000000	3.4947770588
0.6450000000	3.8029277422
0.6500000000	4.1602761048
0.6550000000	4.5760560279
0.6600000000	5.0644541931
0.6650000000	5.6436834813
0.6700000000	6.3351621189
0.6750000000	7.1715329566
0.6800000000	8.1967464689
0.6850000000	9.4683370987
0.6900000000	11.0754901314
0.6950000000	13.1428931949
0.7000000000	15.8687322121
0.7050000000	19.5559756683
0.7100000000	24.7181223611
0.7150000000	32.2693802226
0.7200000000	43.9121068420
0.7250000000	63.2455040170
0.7300000000	98.7457709639
0.7350000000	174.7355930110
0.7400000000	383.2241061152
0.7450000000	1272.2790707640
0.7500000000	3944.4807427240
0.7550000000	993.0745506166
0.7600000000	329.1370216457
0.7650000000	157.8269166193
0.7700000000	91.8592509192
0.7750000000	60.0020565209
0.7800000000	42.2602885731
0.7850000000	31.4125669686
0.7900000000	24.2890282041
0.7950000000	19.3742967466
0.8000000000	15.8400504728
0.8050000000	13.2069243482
0.8100000000	11.1983247378
0.8150000000	9.6054416770
0.8200000000	8.3478971181
0.8250000000	7.3350483222
0.8300000000	6.5050859526
0.8350000000	5.8225506438
0.8400000000	5.2502516990
0.8450000000	4.7699148317
0.8500000000	4.3638543679
0.8550000000	4.0133441594
0.8600000000	3.7141190992
0.8650000000	3.4585890931
0.8700000000	3.2327393792
0.8750000000	3.0407227598
0.8800000000	2.8779403262
0.8850000000	2.7319812721
0.8900000000	2.6152095481
0.8950000000	2.5089707687
0.9000000000	2.4251137526
0.9050000000	2.3680063804
0.9100000000	2.3157050284
0.9150000000	2.2847700334
0.9200000000	2.2829486018
0.9250000000	2.2819972823
0.9300000000	2.2500991488
0.9350000000	2.1501902086
0.9400000000	1.5861351746
0.9450000000	-0.9842519721
0.9500000000	-14.5629113960
0.9550000000	-83.4857769573
0.9600000000	19.7190453538
0.9650000000	34.6588235158
0.9700000000	15.3828379251
0.9750000000	8.0792110818
0.9800000000	5.0645149359
0.9850000000	3.6541410873
0.9900000000	2.8410998653
0.9950000000	2.3479262865
1.0000000000	2.0329753053
1.0050000000	1.8333908882
1.0100000000	1.6784897250
1.0150000000	1.5652588023
1.0200000000	1.4890265125
1.0250000000	1.4248738025
1.0300000000	1.3760302894
1.0350000000	1.3389483322
1.0400000000	1.3152635907
1.0450000000	1.2953504039
1.0500000000	1.2819505324
1.0550000000	1.2742962255
1.0600000000	1.2741582559
1.0650000000	1.2766099889
1.0700000000	1.2836408060
1.0750000000	1.2952739212
1.0800000000	1.3128132646
1.0850000000	1.3351104389
1.0900000000	1.3683437051
1.0950000000	1.4078650730
1.1000000000	1.4550618575
1.1050000000	1.5093285231
1.1100000000	1.5724372545
1.1150000000	1.6457871759
1.1200000000	1.7310944798
1.1250000000	1.8303178297
1.1300000000	1.9464180129
1.1350000000	2.0829696470
1.1400000000	2.2441112715
1.1450000000	2.4370954546
1.1500000000	2.6700581330
1.1550000000	2.9546452007
1.1600000000	3.3072831224
1.1650000000	3.7493497783
1.1700000000	4.3205710413
1.1750000000	5.0739632830
1.1800000000	6.0970497712
1.1850000000	7.5336082531
1.1900000000	9.6550181886
1.1950000000	12.9814203834
1.2000000000	18.6190016565
1.2050000000	29.2671375054
1.2100000000	52.6855516850
1.2150000000	115.9936740313
1.2200000000	284.4889117208
1.2250000000	255.8497233701
1.2300000000	102.3601331406
1.2350000000	48.2613674945
1.2400000000	27.7804187607
1.2450000000	18.3943089113
1.2500000000	13.4630427784
1.2550000000	10.6399725035
1.2600000000	8.9481370522
1.2650000000	7.9183022999
1.2700000000	7.3431264674
1.2750000000	7.0888354681
1.2800000000	7.0949356127
1.2850000000	7.3392323115
1.2900000000	7.8283663817
1.2950000000	8.5901965263
1.3000000000	9.7123004257
1.3050000000	11.3086690052
1.3100000000	13.5854985060
1.3150000000	16.8980465089
1.3200000000	21.8823659446
1.3250000000	29.7530962021
1.3300000000	43.1613671359
1.3350000000	68.2627392637
1.3400000000	121.9077668929
1.3450000000	255.1117878583
1.3500000000	541.9461076707
1.3550000000	505.7700404445
1.3600000000	233.3232242780
1.3650000000	114.6569729268
1.3700000000	65.7542105975
1.3750000000	42.2818178602
1.3800000000	29.4829180004
1.3850000000	21.7742617167
1.3900000000	16.8085386172
1.3950000000	13.4227606687
1.4000000000	11.0184432948
1.4050000000	9.2578322929
1.4100000000	7.9383765712
1.4150000000	6.9426650438
1.4200000000	6.1937177992
1.4250000000	5.6917128204
1.4300000000	5.5068561817
1.4350000000	5.6068118308
1.4400000000	4.3163170565
1.4450000000	0.3665367390
1.4500000000	-6.0487764609
1.4550000000	-1.6981369418
1.4600000000	7.3167803529
1.4650000000	3.9623995660
1.4700000000	-3.7366790596
1.4750000000	-16.3608053847
1.4800000000	-7.2817560522
1.4850000000	11.9685391710
1.4900000000	9.7015528711
1.4950000000	6.2793339951
1.5000000000	4.4117599816
1.5050000000	3.4060740135
1.5100000000	2.8328181889
1.5150000000	2.4846239737
1.5200000000	2.2596369615
1.5250000000	2.1197760897
1.5300000000	2.0128695055
1.5350000000	1.9390855721
1.5400000000	1.8903611761
1.5450000000	1.8623594451
1.5500000000	1.8522712635
1.5550000000	1.8601341061
1.5600000000	1.8908693318
1.5650000000	1.9418482289
1.5700000000	2.0246091787
1.5750000000	2.1531644610
1.5800000000	2.3538377383
1.5850000000	2.6778766320
1.5900000000	3.2332584464
1.5950000000	4.2589408376
1.6000000000	6.2596866557
1.6050000000	9.5678773153
1.6100000000	11.1006363823
1.6150000000	8.2298372510
1.6200000000	5.5366017640
1.6250000000	4.1153243669
1.6300000000	3.4021880228
1.6350000000	3.0355928496
1.6400000000	2.8504153445
1.6450000000	2.7699180534
1.6500000000	2.7556789372
1.6550000000	2.7897251884
1.6600000000	2.8613331948
1.6650000000	2.9656294145
1.6700000000	3.1007912099
1.6750000000	3.2668741465
1.6800000000	3.4653976417
1.6850000000	3.6986984658
1.6900000000	3.9688584086
1.6950000000	4.2721491847
1.7000000000	4.6036826030
1.7050000000	4.9442077927
1.7100000000	5.3332966075
1.7150000000	6.2937977472
1.7200000000	7.9754227645
1.7250000000	9.5191739060
1.7300000000	11.1782816806
1.7350000000	13.0010959201
1.7400000000	14.7886478961
1.7450000000	17.0841739894
1.7500000000	20.5559257757
1.7550000000	25.7235904052
1.7600000000	33.4555542032
1.7650000000	45.3745332549
1.7700000000	64.5739421816
1.7750000000	96.9199414266
1.7800000000	152.0368196282
1.7850000000	233.3211131916
1.7900000000	289.9551777571
1.7950000000	246.9014740520
1.8000000000	164.3188010074
1.8050000000	103.7701195131
1.8100000000	68.4172575265
1.8150000000	47.6955367662
1.8200000000	34.9430584701
1.8250000000	26.6755455571
1.8300000000	21.0621279700
1.8350000000	17.0998738707
1.8400000000	14.2131028451
1.8450000000	12.0525940946
1.8500000000	10.3982555980
1.8550000000	9.1123653271
1.8600000000	8.0988396844
1.8650000000	7.2923666613
1.8700000000	6.6464815941
1.8750000000	6.1270455061
1.8800000000	5.7069533628
1.8850000000	5.3622104142
1.8900000000	5.0651339271
1.8950000000	4.7744012161
1.9000000000	4.4186760213
1.9050000000	3.7465761845
1.9100000000	2.8206683679
1.9150000000	2.3208080558
1.9200000000	5.7219161525
1.9250000000	15.1535656819
1.9300000000	22.6341618907
1.9350000000	22.2908566717
1.9400000000	17.5355884453
1.9450000000	12.9245917175
1.9500000000	9.6868827867
1.9550000000	7.5652670970
1.9600000000	6.1631357431
1.9650000000	5.2247052032
1.9700000000	4.5471172263
1.9750000000	4.0504216572
1.9800000000	3.6712373325
1.9850000000	3.3635862261
1.9900000000	3.0922937133
1.9950000000	2.8266728549
2.0000000000	2.5622401106
2.0050000000	2.3933967085
2.0100000000	2.4902500350
2.0150000000	2.7569375500
2.0200000000	2.9214945274
2.0250000000	2.9654385248
2.0300000000	2.9756542771
2.0350000000	2.9940146163
2.0400000000	3.0361080806
2.0450000000	3.1059272469
2.0500000000	3.2060790960
2.0550000000	3.3389356779
2.0600000000	3.5045041078
2.0650000000	3.6927412640
2.0700000000	3.8787348448
2.0750000000	4.0438039285
2.0800000000	4.2044061193
2.0850000000	4.3945968615
2.0900000000	4.6371893911
2.0950000000	4.9417785050
2.1000000000	5.3186636733
2.1050000000	5.7644232827
2.1100000000	6.3103788282
2.1150000000	6.9794277557
2.1200000000	7.8036836682
2.1250000000	8.8281973965
2.1300000000	10.1164654806
2.1350000000	11.7591543415
2.1400000000	13.8871683391
2.1450000000	16.6919020493
2.1500000000	20.4522156013
2.1550000000	25.5627713647
2.1600000000	32.5286848015
2.1650000000	41.7777211388
2.1700000000	53.1389692393
2.1750000000	64.4351102754
2.1800000000	71.4167780813
2.1850000000	71.7847183546
2.1900000000	68.6194064915
2.1950000000	66.1592975656
2.2000000000	65.0716964140
2.2050000000	62.0293752326
2.2100000000	55.5610001064
2.2150000000	47.6046929026
2.2200000000	40.4606147973
2.2250000000	34.5579732380
2.2300000000	29.3657593938
2.2350000000	24.6761953666
2.2400000000	20.6503655387
2.2450000000	17.4296478328
2.2500000000	14.9602530984
2.2550000000	13.1043867814
2.2600000000	11.7138060259
2.2650000000	10.6401725253
2.2700000000	9.7233997715
2.2750000000	8.8060275013
2.2800000000	7.8198757600
2.2850000000	6.8828875406
2.2900000000	6.2366209072
2.2950000000	6.0174639289
2.3000000000	6.0986611796
2.3050000000	6.2211385954
2.3100000000	6.2322464111
2.3150000000	6.1332641044
2.3200000000	5.9902469431
2.3250000000	5.8714219844
2.3300000000	5.8117188547
2.3350000000	5.8172188845
2.3400000000	5.8685842751
2.3450000000	5.9219570247
2.3500000000	5.9221005878
2.3550000000	5.8337736461
2.3600000000	5.6669479588
2.3650000000	5.4651860750
2.3700000000	5.2733931184
2.3750000000	5.1183738047
2.3800000000	5.0087979802
2.3850000000	4.9421403080
2.3900000000	4.9127255877
2.3950000000	4.9139917485
2.4000000000	4.9477545252
2.4050000000	5.0250128560
2.4100000000	5.1494606903
2.4150000000	5.3262276725
2.4200000000	5.5584179735
2.4250000000	5.8513939668
2.4300000000	6.2129460521
2.4350000000	6.6535203369
2.4400000000	7.1866010934
2.4450000000	7.8293920242
2.4500000000	8.6036145852
2.4550000000	9.5365586246
2.4600000000	10.6617615505
2.4650000000	12.0194583287
2.4700000000	13.6557916288
2.4750000000	15.6169878862
2.4800000000	17.9507863073
2.4850000000	20.6760768968
2.4900000000	23.7661922206
2.4950000000	27.1104664265
2.5000000000	30.4748606123
2.5050000000	33.6214663363
2.5100000000	35.7460600370
2.5150000000	36.3850565134
2.5200000000	35.4285331546
2.5250000000	33.1717296122
2.5300000000	30.1281075826
2.5350000000	26.7923501579
2.5400000000	23.5135706860
2.5450000000	20.4887950419
2.5500000000	17.8055031493
2.5550000000	15.4835461890
2.5600000000	13.4909724066
2.5650000000	11.8156346714
2.5700000000	10.4181601247
2.5750000000	9.2739064502
2.5800000000	8.3644693820
2.5850000000	7.6698105377
2.5900000000	7.1569432943
2.5950000000	6.7794683203
2.6000000000	6.4890708972
2.6050000000	6.2826639267
2.6100000000	6.1038660343
2.6150000000	5.9498516798
2.6200000000	5.8236719188
2.6250000000	5.7287079112
2.6300000000	5.6672117344
2.6350000000	5.6403371140
2.6400000000	5.6487464078
2.6450000000	5.6930652357
2.6500000000	5.7745101757
2.6550000000	5.8934240190
2.6600000000	6.0516472327
2.6650000000	6.2510398643
2.6700000000	6.4938816275
2.6750000000	6.7829334347
2.6800000000	7.1212412331
2.6850000000	7.5119222695
2.6900000000	7.9575251427
2.6950000000	8.4595378678
2.7000000000	9.0174590677
2.7050000000	9.6947649952
2.7100000000	10.4340869495
2.7150000000	11.2211027817
2.7200000000	12.0349618901
2.7250000000	12.8494317728
2.7300000000	13.6348636242
2.7350000000	14.3598727373
2.7400000000	14.9917541883
2.7450000000	15.5014038252
2.7500000000	15.8437239902
2.7550000000	15.9913580119
2.7600000000	15.9235536993
2.7650000000	15.6378469703
2.7700000000	15.1534323738
2.7750000000	14.5088109663
2.7800000000	13.7541761746
2.7850000000	12.9427871816
2.7900000000	12.1224247272
2.7950000000	11.3314081102
2.8000000000	10.5968322592
2.8050000000	9.8535494289
2.8100000000	9.2173282220
2.8150000000	8.6864699827
2.8200000000	8.2524404500
2.8250000000	7.9039842266
2.8300000000	7.6297604422
2.8350000000	7.4200696138
2.8400000000	7.2646945161
2.8450000000	7.1639935982
2.8500000000	7.1105400394
2.8550000000	7.1015044547
2.8600000000	7.1347714026
2.8650000000	7.2084345875
2.8700000000	7.3203706594
2.8750000000	7.4678863828
2.8800000000	7.6474583527
2.8850000000	7.8545041569
2.8900000000	8.0835179370
2.8950000000	8.3282708790
2.9000000000	8.5822070845
2.9050000000	8.8875834925
2.9100000000	9.1807225028
2.9150000000	9.4523829306
2.9200000000	9.6928534131
2.9250000000	9.8911043841
2.9300000000	10.0369864855
2.9350000000	10.1147381174
2.9400000000	10.1175446412
2.9450000000	10.0424981118
2.9500000000	9.8939353122
2.9550000000	9.6831669479
2.9600000000	9.4265267182
2.9650000000	9.1425243284
2.9700000000	8.8490655378
2.9750000000	8.5614544866
2.9800000000	8.2914160527
2.9850000000	8.0469564171
2.9900000000	7.8328894319
2.9950000000	7.6514764003
3.0000000000	7.5031967796
