# energy (eV)    P(omega), $W$ = 400 nm, $h$ = 300 nm, $s$ = 20 nm, $d/W = 5$, $E_{\rm e}$ = 200 keV
0.2000000000	0.1507845508
0.2050000000	0.1521564100
0.2100000000	0.1531222977
0.2150000000	0.1536659438
0.2200000000	0.1537646036
0.2250000000	0.1533873747
0.2300000000	0.1524936001
0.2350000000	0.1510303392
0.2400000000	0.1489295108
0.2450000000	0.1461033692
0.2500000000	0.1424397352
0.2550000000	0.1377942651
0.2600000000	0.1319809499
0.2650000000	0.1380719929
0.2700000000	0.1535442467
0.2750000000	0.1756845623
0.2800000000	0.2065322900
0.2850000000	0.2520099060
0.2900000000	0.3083599086
0.2950000000	0.3891423778
0.3000000000	0.4977370727
0.3050000000	0.6641867922
0.3100000000	0.8960460467
0.3150000000	1.3446832104
0.3200000000	2.0453671969
0.3250000000	2.5250851189
0.3300000000	3.1886895754
0.3350000000	4.1294437097
0.3400000000	5.6062374787
0.3450000000	8.1399411005
0.3500000000	13.1923652145
0.3550000000	24.8880962821
0.3600000000	61.1655647491
0.3650000000	0.2764758707
0.3700000000	28.3480020512
0.3750000000	37.2765562842
0.3800000000	17.3695732467
0.3850000000	9.7844257023
0.3900000000	6.2758338137
0.3950000000	4.4224414884
0.4000000000	3.3493289847
0.4050000000	2.6497348163
0.4100000000	2.1942835178
0.4150000000	1.8938880405
0.4200000000	1.7040317630
0.4250000000	1.5549236297
0.4300000000	1.3787318314
0.4350000000	1.2392863950
0.4400000000	1.1290005584
0.4450000000	1.0413102218
0.4500000000	0.9720790568
0.4550000000	0.9171805422
0.4600000000	0.8743550425
0.4650000000	0.8412125308
0.4700000000	0.8161708629
0.4750000000	0.7981229849
0.4800000000	0.7861028730
0.4850000000	0.7792634993
0.4900000000	0.7771039070
0.4950000000	0.7792387158
0.5000000000	0.7853386138
0.5050000000	0.7952568451
0.5100000000	0.8088731300
0.5150000000	0.8261160021
0.5200000000	0.8470211739
0.5250000000	0.8716179692
0.5300000000	0.9002674510
0.5350000000	0.9331301937
0.5400000000	0.9704952002
0.5450000000	1.0127416135
0.5500000000	1.0604057369
0.5550000000	1.1140742812
0.5600000000	1.1744613355
0.5650000000	1.2424851133
0.5700000000	1.3194132441
0.5750000000	1.4061852071
0.5800000000	1.5045589215
0.5850000000	1.6169362438
0.5900000000	1.7449372598
0.5950000000	1.8919710283
0.6000000000	2.0625414647
0.6050000000	2.2600240323
0.6100000000	2.4921566904
0.6150000000	2.7653561835
0.6200000000	3.0906376689
0.6250000000	3.4838041324
0.6300000000	3.9609720607
0.6350000000	4.5524254346
0.6400000000	5.2915757466
0.6450000000	6.2390525868
0.6500000000	7.4723035201
0.6550000000	9.1225183977
0.6600000000	11.4112069262
0.6650000000	14.6883362135
0.6700000000	19.6506856096
0.6750000000	27.6293839120
0.6800000000	41.7332178665
0.6850000000	70.0334348171
0.6900000000	140.3578646750
0.6950000000	394.0045353891
0.7000000000	1910.9505544084
0.7050000000	929.0534653310
0.7100000000	238.6538892059
0.7150000000	101.4888846520
0.7200000000	55.4242776157
0.7250000000	34.8162921226
0.7300000000	23.8791245457
0.7350000000	17.4136268012
0.7400000000	13.2733613805
0.7450000000	10.4631153975
0.7500000000	8.4723920069
0.7550000000	7.0098668460
0.7600000000	5.9075298436
0.7650000000	5.0526839291
0.7700000000	4.3778713603
0.7750000000	3.8361234887
0.7800000000	3.3958811284
0.7850000000	3.0333868000
0.7900000000	2.7297009665
0.7950000000	2.4760675552
0.8000000000	2.2604108028
0.8050000000	2.0756482760
0.8100000000	1.9183598663
0.8150000000	1.7805031832
0.8200000000	1.6604841576
0.8250000000	1.5597669015
0.8300000000	1.4716058039
0.8350000000	1.3949623068
0.8400000000	1.3339264990
0.8450000000	1.2806691618
0.8500000000	1.2355121897
0.8550000000	1.2069672034
0.8600000000	1.1841013894
0.8650000000	1.1677281260
0.8700000000	1.1734214709
0.8750000000	1.1754124558
0.8800000000	1.1690815004
0.8850000000	1.1182464296
0.8900000000	0.8678003151
0.8950000000	-0.3872969776
0.9000000000	-7.1174397792
0.9050000000	-46.7668463807
0.9100000000	8.9052577935
0.9150000000	21.0949127468
0.9200000000	8.7568715929
0.9250000000	4.5555567724
0.9300000000	2.7808054563
0.9350000000	1.9328875480
0.9400000000	1.4754710612
0.9450000000	1.2219258987
0.9500000000	1.0418670640
0.9550000000	0.9213356104
0.9600000000	0.8467889603
0.9650000000	0.7852773571
0.9700000000	0.7413808790
0.9750000000	0.7114584686
0.9800000000	0.6932316744
0.9850000000	0.6898675324
0.9900000000	0.6964685815
0.9950000000	0.7232165236
1.0000000000	0.7872011086
1.0050000000	0.9366149725
1.0100000000	1.3281987630
1.0150000000	2.6702676914
1.0200000000	5.1270759722
1.0250000000	2.3311732582
1.0300000000	1.1943376723
1.0350000000	0.8555197255
1.0400000000	0.7222868528
1.0450000000	0.6597871654
1.0500000000	0.6284619319
1.0550000000	0.6120298796
1.0600000000	0.6046575546
1.0650000000	0.6032828722
1.0700000000	0.6062080816
1.0750000000	0.6128359945
1.0800000000	0.6219799311
1.0850000000	0.6344222053
1.0900000000	0.6524001262
1.0950000000	0.6733583252
1.1000000000	0.6975024634
1.1050000000	0.7248758664
1.1100000000	0.7559119106
1.1150000000	0.7910236146
1.1200000000	0.8307011282
1.1250000000	0.8753502645
1.1300000000	0.9261274851
1.1350000000	0.9838127636
1.1400000000	1.0495737510
1.1450000000	1.1248955062
1.1500000000	1.2109341087
1.1550000000	1.3112875620
1.1600000000	1.4282330750
1.1650000000	1.5647569830
1.1700000000	1.7214980525
1.1750000000	1.8805830168
1.1800000000	2.0313906198
1.1850000000	2.8221598439
1.1900000000	3.5024591717
1.1950000000	4.8019260967
1.2000000000	6.5402938761
1.2050000000	5.7365795551
1.2100000000	5.4896475788
1.2150000000	6.1113785463
1.2200000000	7.3091757760
1.2250000000	9.1486747168
1.2300000000	11.9457892307
1.2350000000	16.3705445740
1.2400000000	23.8240492708
1.2450000000	37.8589446097
1.2500000000	68.2545420724
1.2550000000	147.7494264659
1.2600000000	356.8757865821
1.2650000000	361.4995574575
1.2700000000	150.3760606769
1.2750000000	69.4135153066
1.2800000000	38.4423012298
1.2850000000	24.1746950016
1.2900000000	16.5694514199
1.2950000000	12.0759764994
1.3000000000	9.2138240893
1.3050000000	7.2867362009
1.3100000000	5.9278163899
1.3150000000	4.9459137147
1.3200000000	4.2180082105
1.3250000000	3.6702065506
1.3300000000	3.2576234627
1.3350000000	2.9527114443
1.3400000000	2.7411581512
1.3450000000	2.6190179012
1.3500000000	2.6040296515
1.3550000000	2.7365920623
1.3600000000	3.1195302689
1.3650000000	4.0145294054
1.3700000000	6.1522554678
1.3750000000	11.4714185584
1.3800000000	18.7363597430
1.3850000000	13.0892327934
1.3900000000	6.6710806507
1.3950000000	3.8712900500
1.4000000000	2.5355734727
1.4050000000	1.7144241157
1.4100000000	0.9708610906
1.4150000000	-0.1389065824
1.4200000000	-2.6240814854
1.4250000000	-9.2095932570
1.4300000000	-12.3825046115
1.4350000000	5.6721715253
1.4400000000	7.2557657020
1.4450000000	4.3500283921
1.4500000000	2.7066769771
1.4550000000	1.8657959571
1.4600000000	1.3778216244
1.4650000000	0.9923449599
1.4700000000	0.5802662536
1.4750000000	0.6813980791
1.4800000000	0.9981047617
1.4850000000	0.9063377137
1.4900000000	0.8026125421
1.4950000000	0.7355143538
1.5000000000	0.6914308805
1.5050000000	0.6622820318
1.5100000000	0.6424528880
1.5150000000	0.6316374463
1.5200000000	0.6236667048
1.5250000000	0.6207986919
1.5300000000	0.6233003727
1.5350000000	0.6323132146
1.5400000000	0.6506827658
1.5450000000	0.6847280336
1.5500000000	0.7486511391
1.5550000000	0.8707609913
1.5600000000	1.0540590984
1.5650000000	1.0834256480
1.5700000000	0.9179892154
1.5750000000	0.8018872259
1.5800000000	0.7517847225
1.5850000000	0.7359968029
1.5900000000	0.7380027308
1.5950000000	0.7506275710
1.6000000000	0.7707450495
1.6050000000	0.7972780705
1.6100000000	0.8294226791
1.6150000000	0.8670584641
1.6200000000	0.9107845764
1.6250000000	0.9611178198
1.6300000000	1.0189080514
1.6350000000	1.0852510076
1.6400000000	1.1615479728
1.6450000000	1.2495886766
1.6500000000	1.3516196454
1.6550000000	1.4704879523
1.6600000000	1.6098821768
1.6650000000	1.7745635028
1.6700000000	1.9691607151
1.6750000000	2.2050349844
1.6800000000	2.4922272220
1.6850000000	2.8465339332
1.6900000000	3.2903827169
1.6950000000	3.8566845111
1.7000000000	4.5949811542
1.7050000000	5.6134558706
1.7100000000	7.0343636596
1.7150000000	9.0996003561
1.7200000000	12.2469412317
1.7250000000	17.2398596675
1.7300000000	24.9127206135
1.7350000000	34.7618033563
1.7400000000	47.2173701248
1.7450000000	69.0740702871
1.7500000000	97.4438591567
1.7550000000	99.0123775577
1.7600000000	69.4632168358
1.7650000000	43.2686534542
1.7700000000	27.7364962543
1.7750000000	18.9043186834
1.7800000000	13.6848082822
1.7850000000	10.4740222942
1.7900000000	8.4825906425
1.7950000000	7.3426446841
1.8000000000	6.8816806932
1.8050000000	6.7348861030
1.8100000000	5.9917724753
1.8150000000	4.6432299712
1.8200000000	3.5658540412
1.8250000000	3.0101878581
1.8300000000	2.6207504824
1.8350000000	2.2746685515
1.8400000000	1.9924549275
1.8450000000	1.7684838817
1.8500000000	1.5879730717
1.8550000000	1.4388405215
1.8600000000	1.3016464154
1.8650000000	1.1856561730
1.8700000000	1.0684202171
1.8750000000	0.8993974732
1.8800000000	0.5140906268
1.8850000000	-0.3303950657
1.8900000000	-1.4662771048
1.8950000000	-1.6611461919
1.9000000000	0.1775807132
1.9050000000	1.8919043565
1.9100000000	2.0919386759
1.9150000000	1.7672749588
1.9200000000	1.4490770461
1.9250000000	1.2232841149
1.9300000000	1.0865444945
1.9350000000	0.9821506168
1.9400000000	0.9127067624
1.9450000000	0.8667399901
1.9500000000	0.8346093119
1.9550000000	0.8077182305
1.9600000000	0.7844950684
1.9650000000	0.7680033530
1.9700000000	0.7591962829
1.9750000000	0.7574885116
1.9800000000	0.7624060939
1.9850000000	0.7740934215
1.9900000000	0.7933200903
1.9950000000	0.8210480754
2.0000000000	0.8565544213
2.0050000000	0.8968152691
2.0100000000	0.9256499589
2.0150000000	0.9448187380
2.0200000000	0.9679329301
2.0250000000	1.0036691519
2.0300000000	1.0545750828
2.0350000000	1.1219194629
2.0400000000	1.2080104775
2.0450000000	1.3168579907
2.0500000000	1.4542229091
2.0550000000	1.6265061780
2.0600000000	1.8368067129
2.0650000000	2.0818070762
2.0700000000	2.3651762629
2.0750000000	2.7185237022
2.0800000000	3.1940411043
2.0850000000	3.8426100629
2.0900000000	4.6938227905
2.0950000000	5.6865387107
2.1000000000	6.5713942507
2.1050000000	7.0003462876
2.1100000000	6.7971666072
2.1150000000	6.3292299820
2.1200000000	5.9987667370
2.1250000000	5.9854485268
2.1300000000	6.3426379570
2.1350000000	7.1126803766
2.1400000000	8.3803332096
2.1450000000	10.2954876102
2.1500000000	13.0679960111
2.1550000000	16.8554562611
2.1600000000	21.3524301786
2.1650000000	25.1319983923
2.1700000000	26.0250204421
2.1750000000	23.2965515954
2.1800000000	18.8078777710
2.1850000000	14.5111465739
2.1900000000	11.1517765431
2.1950000000	8.7247769680
2.2000000000	7.0220914699
2.2050000000	5.8474446749
2.2100000000	5.0320468591
2.2150000000	4.4066129046
2.2200000000	3.8460947710
2.2250000000	3.3128632030
2.2300000000	2.8300184321
2.2350000000	2.4154225065
2.2400000000	2.0642810005
2.2450000000	1.7610940330
2.2500000000	1.4904285156
2.2550000000	1.2436488283
2.2600000000	0.9968647387
2.2650000000	0.8173196482
2.2700000000	0.7197702707
2.2750000000	0.7442802879
2.2800000000	0.8858732398
2.2850000000	1.0661858211
2.2900000000	1.1981605054
2.2950000000	1.2566313381
2.3000000000	1.2632831404
2.3050000000	1.2430518798
2.3100000000	1.2164179283
2.3150000000	1.1928208449
2.3200000000	1.1759922066
2.3250000000	1.1679767032
2.3300000000	1.1704252898
2.3350000000	1.1847050601
2.3400000000	1.2119849535
2.3450000000	1.2534489052
2.3500000000	1.3103521459
2.3550000000	1.3845777178
2.3600000000	1.4749053056
2.3650000000	1.5818980297
2.3700000000	1.7052586935
2.3750000000	1.8463267394
2.3800000000	2.0101940128
2.3850000000	2.2029024986
2.3900000000	2.4257886678
2.3950000000	2.6689303239
2.4000000000	2.9068183497
2.4050000000	3.1118463774
2.4100000000	3.2255293696
2.4150000000	3.2364777137
2.4200000000	3.1724668587
2.4250000000	3.0808617262
2.4300000000	3.0037018609
2.4350000000	2.9663672610
2.4400000000	2.9789893887
2.4450000000	3.0432115162
2.4500000000	3.1592464216
2.4550000000	3.3296848963
2.4600000000	3.5654456175
2.4650000000	3.8777209352
2.4700000000	4.2789706979
2.4750000000	4.7769739375
2.4800000000	5.3677965813
2.4850000000	6.0262288341
2.4900000000	6.6946119504
2.4950000000	7.2772694175
2.5000000000	7.6544795128
2.5050000000	7.7029513076
2.5100000000	7.3734615440
2.5150000000	6.7559440211
2.5200000000	5.9940890746
2.5250000000	5.2141305217
2.5300000000	4.4930137869
2.5350000000	3.8630682321
2.5400000000	3.3290520591
2.5450000000	2.8830413069
2.5500000000	2.5135535970
2.5550000000	2.2102719728
2.5600000000	1.9566726798
2.5650000000	1.7668772701
2.5700000000	1.6304948743
2.5750000000	1.5426619744
2.5800000000	1.4936323147
2.5850000000	1.4700768016
2.5900000000	1.4594868688
2.5950000000	1.4540736376
2.6000000000	1.4513255452
2.6050000000	1.4628516348
2.6100000000	1.4811376152
2.6150000000	1.5089898667
2.6200000000	1.5478993489
2.6250000000	1.5979581797
2.6300000000	1.6577531341
2.6350000000	1.7242844724
2.6400000000	1.7929689618
2.6450000000	1.8579946437
2.6500000000	1.9132063284
2.6550000000	1.9535574297
2.6600000000	1.9767038272
2.6650000000	1.9840226831
2.6700000000	1.9803214312
2.6750000000	1.9726275406
2.6800000000	1.9677505707
2.6850000000	1.9720531586
2.6900000000	1.9899665832
2.6950000000	2.0242145180
2.7000000000	2.0761032080
2.7050000000	2.1537444813
2.7100000000	2.2536414412
2.7150000000	2.3741805011
2.7200000000	2.5120254292
2.7250000000	2.6615123159
2.7300000000	2.8140900588
2.7350000000	2.9582297075
2.7400000000	3.0802177599
2.7450000000	3.1661305786
2.7500000000	3.2047452056
2.7550000000	3.1904081839
2.7600000000	3.1245647618
2.7650000000	3.0152379544
2.7700000000	2.8747039943
2.7750000000	2.7165643413
2.7800000000	2.5532902451
2.7850000000	2.3948586774
2.7900000000	2.2470536033
2.7950000000	2.1162042889
2.8000000000	2.0036202960
2.8050000000	1.8993402784
2.8100000000	1.8171155047
2.8150000000	1.7537109847
2.8200000000	1.7056123448
2.8250000000	1.6695947673
2.8300000000	1.6429175998
2.8350000000	1.6233076586
2.8400000000	1.6088442451
2.8450000000	1.5978967898
2.8500000000	1.5891558977
2.8550000000	1.5817523120
2.8600000000	1.5753913796
2.8650000000	1.5703966892
2.8700000000	1.5676275513
2.8750000000	1.5682660779
2.8800000000	1.5735552108
2.8850000000	1.5845626659
2.8900000000	1.6020162968
2.8950000000	1.6262049642
2.9000000000	1.6569295127
2.9050000000	1.7028786458
2.9100000000	1.7532614798
2.9150000000	1.8047150922
2.9200000000	1.8529894338
2.9250000000	1.8935190552
2.9300000000	1.9220651527
2.9350000000	1.9354586296
2.9400000000	1.9322133580
2.9450000000	1.9128101046
2.9500000000	1.8795168946
2.9550000000	1.8358111369
2.9600000000	1.7856467296
2.9650000000	1.7327689362
2.9700000000	1.6802577963
2.9750000000	1.6303285401
2.9800000000	1.5843450756
2.9850000000	1.5429671657
2.9900000000	1.5063484569
2.9950000000	1.4743285152
3.0000000000	1.4465898892
