# energy (eV)    P(omega), $W$ = 400 nm, $h$ = 300 nm, $s$ = 20 nm, $d/W = 5$, $E_{\rm e}$ = 200 keV
0.2000000000	0.1023494961
0.2050000000	0.1032806310
0.2100000000	0.1039363791
0.2150000000	0.1043056958
0.2200000000	0.1043731407
0.2250000000	0.1041177381
0.2300000000	0.1035118928
0.2350000000	0.1025196750
0.2400000000	0.1010948821
0.2450000000	0.0991779655
0.2500000000	0.0966927977
0.2550000000	0.0935414229
0.2600000000	0.0895976148
0.2650000000	0.0937307718
0.2700000000	0.1042292294
0.2750000000	0.1192523135
0.2800000000	0.1401839350
0.2850000000	0.1710428774
0.2900000000	0.2092798871
0.2950000000	0.2640963513
0.3000000000	0.3377861990
0.3050000000	0.4507359721
0.3100000000	0.6080732699
0.3150000000	0.9125147879
0.3200000000	1.3879981712
0.3250000000	1.7135461612
0.3300000000	2.1638871457
0.3350000000	2.8023144958
0.3400000000	3.8045211960
0.3450000000	5.5239940843
0.3500000000	8.9527871253
0.3550000000	16.8900592314
0.3600000000	41.5097922955
0.3650000000	0.1871788586
0.3700000000	19.2388044131
0.3750000000	25.2984896371
0.3800000000	11.7883587667
0.3850000000	6.6405688109
0.3900000000	4.2593899567
0.3950000000	3.0015412570
0.4000000000	2.2732457208
0.4050000000	1.7984463456
0.4100000000	1.4893414855
0.4150000000	1.2854706992
0.4200000000	1.1566224134
0.4250000000	1.0554288698
0.4300000000	0.9358499233
0.4350000000	0.8412102254
0.4400000000	0.7663609523
0.4450000000	0.7068472427
0.4500000000	0.6598619272
0.4550000000	0.6226044053
0.4600000000	0.5935411408
0.4650000000	0.5710500796
0.4700000000	0.5540574237
0.4750000000	0.5418118839
0.4800000000	0.5336578514
0.4850000000	0.5290204544
0.4900000000	0.5275597510
0.4950000000	0.5290142011
0.5000000000	0.5331603721
0.5050000000	0.5398986898
0.5100000000	0.5491475848
0.5150000000	0.5608586217
0.5200000000	0.5750561071
0.5250000000	0.5917600124
0.5300000000	0.6112155400
0.5350000000	0.6335317627
0.5400000000	0.6589049925
0.5450000000	0.6875926663
0.5500000000	0.7199590199
0.5550000000	0.7564024435
0.5600000000	0.7974078721
0.5650000000	0.8435988237
0.5700000000	0.8958360833
0.5750000000	0.9547576360
0.5800000000	1.0215571863
0.5850000000	1.0978656944
0.5900000000	1.1847833583
0.5950000000	1.2846250856
0.6000000000	1.4004492042
0.6050000000	1.5345479865
0.6100000000	1.6921758026
0.6150000000	1.8776900905
0.6200000000	2.0985707550
0.6250000000	2.3655488549
0.6300000000	2.6895686419
0.6350000000	3.0911945465
0.6400000000	3.5931152195
0.6450000000	4.2365017061
0.6500000000	5.0739462800
0.6550000000	6.1945349722
0.6600000000	7.7486873669
0.6650000000	9.9740549236
0.6700000000	13.3437974883
0.6750000000	18.7618439518
0.6800000000	28.3392772732
0.6850000000	47.5570491791
0.6900000000	95.3122671968
0.6950000000	267.5567067503
0.7000000000	1297.6771054957
0.7050000000	630.8999255057
0.7100000000	162.0656048143
0.7150000000	68.9197018091
0.7200000000	37.6380862372
0.7250000000	23.6435450194
0.7300000000	16.2162729987
0.7350000000	11.8256348097
0.7400000000	9.0140244670
0.7450000000	7.1056108825
0.7500000000	5.7537241103
0.7550000000	4.7605305472
0.7600000000	4.0119369739
0.7650000000	3.4314123818
0.7700000000	2.9731469153
0.7750000000	2.6052449236
0.7800000000	2.3062749131
0.7850000000	2.0601032664
0.7900000000	1.8538682928
0.7950000000	1.6816239941
0.8000000000	1.5351697055
0.8050000000	1.4096957301
0.8100000000	1.3028796580
0.8150000000	1.2092597063
0.8200000000	1.1277534340
0.8250000000	1.0593554817
0.8300000000	0.9994845977
0.8350000000	0.9474355509
0.8400000000	0.9059864592
0.8450000000	0.8698199475
0.8500000000	0.8391546903
0.8550000000	0.8197720587
0.8600000000	0.8042464790
0.8650000000	0.7931304381
0.8700000000	0.7970023847
0.8750000000	0.7983593562
0.8800000000	0.7940632327
0.8850000000	0.7595368543
0.8900000000	0.5894213873
0.8950000000	-0.2631195651
0.9000000000	-4.8346903100
0.9050000000	-31.7674085695
0.9100000000	6.0491338396
0.9150000000	14.3293266719
0.9200000000	5.9483761249
0.9250000000	3.0945057505
0.9300000000	1.8889459306
0.9350000000	1.3129656601
0.9400000000	1.0022456989
0.9450000000	0.8300121023
0.9500000000	0.7076950747
0.9550000000	0.6258128630
0.9600000000	0.5751660977
0.9650000000	0.5333708778
0.9700000000	0.5035377441
0.9750000000	0.4831917064
0.9800000000	0.4707822823
0.9850000000	0.4684563058
0.9900000000	0.4728775264
0.9950000000	0.4909446245
1.0000000000	0.5342248422
1.0050000000	0.6353433288
1.0100000000	0.9003906694
1.0150000000	1.8088637613
1.0200000000	3.4720797777
1.0250000000	1.5794805434
1.0300000000	0.8098826059
1.0350000000	0.5805090036
1.0400000000	0.4903150742
1.0450000000	0.4480104243
1.0500000000	0.4268159099
1.0550000000	0.4157061016
1.0600000000	0.4107334043
1.0650000000	0.4098248666
1.0700000000	0.4118311857
1.0750000000	0.4163489007
1.0800000000	0.4225733182
1.0850000000	0.4310368701
1.0900000000	0.4432603586
1.0950000000	0.4575078249
1.1000000000	0.4739192026
1.1050000000	0.4925243854
1.1100000000	0.5136178855
1.1150000000	0.5374805047
1.1200000000	0.5644453751
1.1250000000	0.5947881594
1.1300000000	0.6292950066
1.1350000000	0.6684956869
1.1400000000	0.7131837678
1.1450000000	0.7643681992
1.1500000000	0.8228340633
1.1550000000	0.8910261761
1.1600000000	0.9704905965
1.1650000000	1.0632529489
1.1700000000	1.1697374333
1.1750000000	1.2777565689
1.1800000000	1.3800504708
1.1850000000	1.9178896446
1.1900000000	2.3800665178
1.1950000000	3.2626775164
1.2000000000	4.4435007189
1.2050000000	3.8978045489
1.2100000000	3.7303511645
1.2150000000	4.1529986288
1.2200000000	4.9670563486
1.2250000000	6.2171764517
1.2300000000	8.1180676848
1.2350000000	11.1250780119
1.2400000000	16.1903905437
1.2450000000	25.7283488951
1.2500000000	46.3848992771
1.2550000000	100.4089702598
1.2600000000	242.5300232203
1.2650000000	245.6733431119
1.2700000000	102.1953068390
1.2750000000	47.1735424624
1.2800000000	26.1256027692
1.2850000000	16.4293645998
1.2900000000	11.2608505459
1.2950000000	8.2070903198
1.3000000000	6.2619779635
1.3050000000	4.9523386790
1.3100000000	4.0288310028
1.3150000000	3.3615500720
1.3200000000	2.8668933031
1.3250000000	2.4946454106
1.3300000000	2.2143061628
1.3350000000	2.0071601790
1.3400000000	1.8634905491
1.3450000000	1.7806326926
1.3500000000	1.7706726554
1.3550000000	1.8611255621
1.3600000000	2.1220025852
1.3650000000	2.7314629107
1.3700000000	4.1869428683
1.3750000000	7.8083026532
1.3800000000	12.7543057958
1.3850000000	8.9098705945
1.3900000000	4.5405469979
1.3950000000	2.6345901489
1.4000000000	1.7253982057
1.4050000000	1.1666039380
1.4100000000	0.6608405343
1.4150000000	-0.0936681793
1.4200000000	-1.7829093748
1.4250000000	-6.2589655100
1.4300000000	-8.4155966044
1.4350000000	3.8555224443
1.4400000000	4.9318176363
1.4450000000	2.9568410343
1.4500000000	1.8398670303
1.4550000000	1.2683025500
1.4600000000	0.9365714397
1.4650000000	0.6744119511
1.4700000000	0.3940091604
1.4750000000	0.4629928587
1.4800000000	0.6787149025
1.4850000000	0.6162972810
1.4900000000	0.5457211193
1.4950000000	0.5000710673
1.5000000000	0.4700819257
1.5050000000	0.4502524471
1.5100000000	0.4367620220
1.5150000000	0.4294001315
1.5200000000	0.4239719784
1.5250000000	0.4220108757
1.5300000000	0.4236963956
1.5350000000	0.4298012990
1.5400000000	0.4422541270
1.5450000000	0.4653382254
1.5500000000	0.5086810024
1.5550000000	0.5914724749
1.5600000000	0.7157454996
1.5650000000	0.7356646893
1.5700000000	0.6235342118
1.5750000000	0.5448567992
1.5800000000	0.5109263831
1.5850000000	0.5002630347
1.5900000000	0.5016675932
1.5950000000	0.5102767115
1.6000000000	0.5239717926
1.6050000000	0.5420238982
1.6100000000	0.5638885475
1.6150000000	0.5894850090
1.6200000000	0.6192212209
1.6250000000	0.6534491073
1.6300000000	0.6927468214
1.6350000000	0.7378596559
1.6400000000	0.7897405972
1.6450000000	0.8496067587
1.6500000000	0.9189858989
1.6550000000	0.9998140943
1.6600000000	1.0945997117
1.6650000000	1.2065805114
1.6700000000	1.3389046254
1.6750000000	1.4992975168
1.6800000000	1.6945879177
1.6850000000	1.9355186455
1.6900000000	2.2373423483
1.6950000000	2.6224419819
1.7000000000	3.1245122396
1.7050000000	3.8171312984
1.7100000000	4.7834575075
1.7150000000	6.1880322380
1.7200000000	8.3286495921
1.7250000000	11.7246511100
1.7300000000	16.9433822002
1.7350000000	23.6407693745
1.7400000000	32.1074510495
1.7450000000	46.9650704020
1.7500000000	66.2516125414
1.7550000000	67.3174670473
1.7600000000	47.2275343455
1.7650000000	29.4183524825
1.7700000000	18.8583069399
1.7750000000	12.8534607121
1.7800000000	9.3048353919
1.7850000000	7.1219651693
1.7900000000	5.7682115156
1.7950000000	4.9935340916
1.8000000000	4.6807182298
1.8050000000	4.5815433335
1.8100000000	4.0761994663
1.8150000000	3.1585393013
1.8200000000	2.4254007967
1.8250000000	2.0473838204
1.8300000000	1.7824821282
1.8350000000	1.5470544329
1.8400000000	1.3550776354
1.8450000000	1.2027294542
1.8500000000	1.0799512377
1.8550000000	0.9785218111
1.8600000000	0.8852198729
1.8650000000	0.8063430978
1.8700000000	0.7266271077
1.8750000000	0.6117062577
1.8800000000	0.3497259377
1.8850000000	-0.2244799476
1.8900000000	-0.9968312841
1.8950000000	-1.1293587066
1.9000000000	0.1208428043
1.9050000000	1.2864761882
1.9100000000	1.4224872762
1.9150000000	1.2017316228
1.9200000000	0.9853701487
1.9250000000	0.8318369858
1.9300000000	0.7388526981
1.9350000000	0.6678579477
1.9400000000	0.6206218989
1.9450000000	0.5893443809
1.9500000000	0.5674800282
1.9550000000	0.5491998548
1.9600000000	0.5334314792
1.9650000000	0.5222404606
1.9700000000	0.5162674326
1.9750000000	0.5151144507
1.9800000000	0.5184601294
1.9850000000	0.5264024821
1.9900000000	0.5394633330
1.9950000000	0.5582949210
2.0000000000	0.5824075319
2.0050000000	0.6097610504
2.0100000000	0.6293817397
2.0150000000	0.6424681042
2.0200000000	0.6582486060
2.0250000000	0.6826070471
2.0300000000	0.7172747892
2.0350000000	0.7631185165
2.0400000000	0.8217122303
2.0450000000	0.8957869525
2.0500000000	0.9892647196
2.0550000000	1.1065034322
2.0600000000	1.2496154293
2.0650000000	1.4163490654
2.0700000000	1.6092075061
2.0750000000	1.8497047875
2.0800000000	2.1733609291
2.0850000000	2.6148073444
2.0900000000	3.1941844665
2.0950000000	3.8698688639
2.1000000000	4.4721028512
2.1050000000	4.7639516868
2.1100000000	4.6254374045
2.1150000000	4.3066367983
2.1200000000	4.0813496464
2.1250000000	4.0718613650
2.1300000000	4.3144604407
2.1350000000	4.8379170876
2.1400000000	5.6998475484
2.1450000000	7.0021745355
2.1500000000	8.8876163634
2.1550000000	11.4633718386
2.1600000000	14.5217250479
2.1650000000	17.0922158668
2.1700000000	17.6995955881
2.1750000000	15.8440110033
2.1800000000	12.7912984338
2.1850000000	9.8691023475
2.1900000000	7.5843838925
2.1950000000	5.9337530128
2.2000000000	4.7757129808
2.2050000000	3.9767789311
2.2100000000	3.4221686120
2.2150000000	2.9967726595
2.2200000000	2.6155656587
2.2250000000	2.2529512574
2.2300000000	1.9246172500
2.2350000000	1.6426946490
2.2400000000	1.4039175420
2.2450000000	1.1977449571
2.2500000000	1.0136833334
2.2550000000	0.8458626672
2.2600000000	0.6780380390
2.2650000000	0.5559444292
2.2700000000	0.4896162603
2.2750000000	0.5062982199
2.2800000000	0.6026054512
2.2850000000	0.7252450984
2.2900000000	0.8150108858
2.2950000000	0.8547878271
2.3000000000	0.8593235799
2.3050000000	0.8455770898
2.3100000000	0.8274770234
2.3150000000	0.8114432142
2.3200000000	0.8000135422
2.3250000000	0.7945791187
2.3300000000	0.7962636709
2.3350000000	0.8059981335
2.3400000000	0.8245786460
2.3450000000	0.8528116030
2.3500000000	0.8915518146
2.3550000000	0.9420810798
2.3600000000	1.0035697467
2.3650000000	1.0764009649
2.3700000000	1.1603726410
2.3750000000	1.2563966537
2.3800000000	1.3679391209
2.3850000000	1.4991126668
2.3900000000	1.6508265190
2.3950000000	1.8163254340
2.4000000000	1.9782434186
2.4050000000	2.1177839916
2.4100000000	2.1951346343
2.4150000000	2.2025418241
2.4200000000	2.1589139464
2.4250000000	2.0964940391
2.4300000000	2.0438989789
2.4350000000	2.0184041516
2.4400000000	2.0269045381
2.4450000000	2.0705162717
2.4500000000	2.1493811886
2.4550000000	2.2652575488
2.4600000000	2.4255715901
2.4650000000	2.6379356025
2.4700000000	2.9108261263
2.4750000000	3.2495367294
2.4800000000	3.6513941243
2.4850000000	4.0992523050
2.4900000000	4.5538917597
2.4950000000	4.9502307151
2.5000000000	5.2068288544
2.5050000000	5.2398175390
2.5100000000	5.0157092816
2.5150000000	4.5956754810
2.5200000000	4.0774563491
2.5250000000	3.5469189214
2.5300000000	3.0564043661
2.5350000000	2.6279046075
2.5400000000	2.2646571107
2.5450000000	1.9612726189
2.5500000000	1.7099408994
2.5550000000	1.5036446311
2.5600000000	1.3311441955
2.5650000000	1.2020461992
2.5700000000	1.1092828177
2.5750000000	1.0495461085
2.5800000000	1.0162065551
2.5850000000	1.0001972071
2.5900000000	0.9930090933
2.5950000000	0.9893437727
2.6000000000	0.9874928365
2.6050000000	0.9953564338
2.6100000000	1.0078212095
2.6150000000	1.0267968879
2.6200000000	1.0532980569
2.6250000000	1.0873872261
2.6300000000	1.1281021498
2.6350000000	1.1734005577
2.6400000000	1.2201620716
2.6450000000	1.2644297218
2.6500000000	1.3020128366
2.6550000000	1.3294754126
2.6600000000	1.3452213549
2.6650000000	1.3501880662
2.6700000000	1.3476483320
2.6750000000	1.3423862812
2.6800000000	1.3390377381
2.6850000000	1.3419341497
2.6900000000	1.3540920284
2.6950000000	1.3773653414
2.7000000000	1.4126431195
2.7050000000	1.4654414085
2.7100000000	1.5333840564
2.7150000000	1.6153730675
2.7200000000	1.7091385534
2.7250000000	1.8108270503
2.7300000000	1.9146210200
2.7350000000	2.0126771812
2.7400000000	2.0956657087
2.7450000000	2.1541139523
2.7500000000	2.1803866462
2.7550000000	2.1706372328
2.7600000000	2.1258484601
2.7650000000	2.0514781577
2.7700000000	1.9558777852
2.7750000000	1.8483003740
2.7800000000	1.7372301335
2.7850000000	1.6294546897
2.7900000000	1.5289090012
2.7950000000	1.4398990395
2.8000000000	1.3633157717
2.8050000000	1.2923834595
2.8100000000	1.2364562449
2.8150000000	1.1933330466
2.8200000000	1.1606226675
2.8250000000	1.1361308876
2.8300000000	1.1179927831
2.8350000000	1.1046614543
2.8400000000	1.0948297844
2.8450000000	1.0873880178
2.8500000000	1.0814449925
2.8550000000	1.0764090964
2.8600000000	1.0720799172
2.8650000000	1.0686778614
2.8700000000	1.0667880748
2.8750000000	1.0672154540
2.8800000000	1.0708062942
2.8850000000	1.0782876272
2.8900000000	1.0901551162
2.8950000000	1.1066056545
2.9000000000	1.1275039657
2.9050000000	1.1587607949
2.9100000000	1.1930358806
2.9150000000	1.2280411032
2.9200000000	1.2608847791
2.9250000000	1.2884605562
2.9300000000	1.3078842883
2.9350000000	1.3169995953
2.9400000000	1.3147951468
2.9450000000	1.3015978243
2.9500000000	1.2789505396
2.9550000000	1.2492190404
2.9600000000	1.2150933252
2.9650000000	1.1791214283
2.9700000000	1.1433988261
2.9750000000	1.1094326008
2.9800000000	1.0781506106
2.9850000000	1.0500016860
2.9900000000	1.0250902593
2.9950000000	1.0033071149
3.0000000000	0.9844361897
