# energy (eV)    P(omega), $W$ = 300 nm, $h$ = 300 nm, $s$ = 20 nm, $d/W = 5$, $E_{\rm e}$ = 200 keV
0.2000000000	0.1483604000
0.2050000000	0.1505829964
0.2100000000	0.1526606190
0.2150000000	0.1545979973
0.2200000000	0.1563991802
0.2250000000	0.1580676005
0.2300000000	0.1596058883
0.2350000000	0.1610157869
0.2400000000	0.1622979694
0.2450000000	0.1634519569
0.2500000000	0.1644758581
0.2550000000	0.1653660425
0.2600000000	0.1661170532
0.2650000000	0.1667209613
0.2700000000	0.1671670224
0.2750000000	0.1674409926
0.2800000000	0.1675243797
0.2850000000	0.1673933999
0.2900000000	0.1670175940
0.2950000000	0.1663583048
0.3000000000	0.1653661549
0.3050000000	0.1639782216
0.3100000000	0.1621139484
0.3150000000	0.1713363673
0.3200000000	0.1822892138
0.3250000000	0.1961427865
0.3300000000	0.2146964280
0.3350000000	0.2377907632
0.3400000000	0.2680332030
0.3450000000	0.3047131501
0.3500000000	0.3526955989
0.3550000000	0.4161829495
0.3600000000	0.4990742668
0.3650000000	0.6146295563
0.3700000000	0.7669886517
0.3750000000	0.9789156964
0.3800000000	1.2854085567
0.3850000000	1.7629643390
0.3900000000	2.5173633802
0.3950000000	3.7987451581
0.4000000000	6.2414210479
0.4050000000	11.7176429787
0.4100000000	26.6596240404
0.4150000000	85.5531790513
0.4200000000	54.5104572170
0.4250000000	-102.5927265470
0.4300000000	28.5261073166
0.4350000000	17.7752267459
0.4400000000	10.8652791893
0.4450000000	7.1458682710
0.4500000000	5.0047672717
0.4550000000	3.6871886952
0.4600000000	2.8290818134
0.4650000000	2.2443467388
0.4700000000	1.8310743940
0.4750000000	1.5321908374
0.4800000000	1.3105948858
0.4850000000	1.1438490260
0.4900000000	1.0165653677
0.4950000000	0.9184141811
0.5000000000	0.8423347219
0.5050000000	0.7831467800
0.5100000000	0.7375144973
0.5150000000	0.7029817995
0.5200000000	0.6769824030
0.5250000000	0.6583592853
0.5300000000	0.6458712092
0.5350000000	0.6386101920
0.5400000000	0.6359068006
0.5450000000	0.6372018500
0.5500000000	0.6423178680
0.5550000000	0.6509394961
0.5600000000	0.6629052833
0.5650000000	0.6781424942
0.5700000000	0.6965847014
0.5750000000	0.7183606241
0.5800000000	0.7436795894
0.5850000000	0.7726779640
0.5900000000	0.8056205653
0.5950000000	0.8428406784
0.6000000000	0.8847628406
0.6050000000	0.9320027720
0.6100000000	0.9851476220
0.6150000000	1.0449998148
0.6200000000	1.1126297951
0.6250000000	1.1890637938
0.6300000000	1.2758187993
0.6350000000	1.3747855247
0.6400000000	1.4879311353
0.6450000000	1.6180953621
0.6500000000	1.7690118333
0.6550000000	1.9445669807
0.6600000000	2.1507345045
0.6650000000	2.3951787107
0.6700000000	2.6869104937
0.6750000000	3.0396702413
0.6800000000	3.4719367910
0.6850000000	4.0079159319
0.6900000000	4.6850986490
0.6950000000	5.5559181318
0.7000000000	6.7036651154
0.7050000000	8.2556675684
0.7100000000	10.4276665338
0.7150000000	13.6037038580
0.7200000000	18.4987421113
0.7250000000	26.6240966145
0.7300000000	41.5381168537
0.7350000000	73.4494590068
0.7400000000	160.9662469417
0.7450000000	533.9915651277
0.7500000000	1654.2748889665
0.7550000000	416.1602930704
0.7600000000	137.8199044319
0.7650000000	66.0341362863
0.7700000000	38.4023328891
0.7750000000	25.0636281094
0.7800000000	17.6379864518
0.7850000000	13.0994871545
0.7900000000	10.1202272339
0.7950000000	8.0655179712
0.8000000000	6.5884766141
0.8050000000	5.4884204477
0.8100000000	4.6495741115
0.8150000000	3.9846147783
0.8200000000	3.4598144242
0.8250000000	3.0372552253
0.8300000000	2.6911157872
0.8350000000	2.4065271780
0.8400000000	2.1679609114
0.8450000000	1.9677740215
0.8500000000	1.7985591026
0.8550000000	1.6525348469
0.8600000000	1.5278791017
0.8650000000	1.4214019857
0.8700000000	1.3273213355
0.8750000000	1.2472917482
0.8800000000	1.1793841391
0.8850000000	1.1185013374
0.8900000000	1.0696610958
0.8950000000	1.0252315455
0.9000000000	0.9900173979
0.9050000000	0.9657622781
0.9100000000	0.9435344914
0.9150000000	0.9300478821
0.9200000000	0.9284159479
0.9250000000	0.9272036472
0.9300000000	0.9135953823
0.9350000000	0.8727804804
0.9400000000	0.6454423900
0.9450000000	-0.3878351822
0.9500000000	-5.8407735018
0.9550000000	-33.4985966179
0.9600000000	7.9044607967
0.9650000000	13.8851134150
0.9700000000	6.1585323824
0.9750000000	3.2330799191
0.9800000000	2.0262237247
0.9850000000	1.4617761780
0.9900000000	1.1365557032
0.9950000000	0.9393504508
1.0000000000	0.8134343765
1.0050000000	0.7336060120
1.0100000000	0.6717198116
1.0150000000	0.6265080068
1.0200000000	0.5960549422
1.0250000000	0.5704944997
1.0300000000	0.5510767599
1.0350000000	0.5363875764
1.0400000000	0.5270487468
1.0450000000	0.5192839832
1.0500000000	0.5141624162
1.0550000000	0.5113807176
1.0600000000	0.5116241299
1.0650000000	0.5129853667
1.0700000000	0.5162420517
1.0750000000	0.5214076694
1.0800000000	0.5289925459
1.0850000000	0.5386182402
1.0900000000	0.5528170847
1.0950000000	0.5696788761
1.1000000000	0.5897692137
1.1050000000	0.6129243125
1.1100000000	0.6398753310
1.1150000000	0.6712283392
1.1200000000	0.7077015534
1.1250000000	0.7502346419
1.1300000000	0.8000852761
1.1350000000	0.8588194847
1.1400000000	0.9282203477
1.1450000000	1.0115443588
1.1500000000	1.1123314210
1.1550000000	1.2356996825
1.1600000000	1.3888698688
1.1650000000	1.5812109118
1.1700000000	1.8302751530
1.1750000000	2.1593619813
1.1800000000	2.6069902160
1.1850000000	3.2364740128
1.1900000000	4.1671382992
1.1950000000	5.6280987575
1.2000000000	8.1060969107
1.2050000000	12.7888517308
1.2100000000	23.0899446110
1.2150000000	50.9335430928
1.2200000000	125.0006948006
1.2250000000	112.3039883739
1.2300000000	44.7963557634
1.2350000000	21.0094373582
1.2400000000	11.9995503390
1.2450000000	7.8626378869
1.2500000000	5.6802057848
1.2550000000	4.4206273838
1.2600000000	3.6541063531
1.2650000000	3.1739042957
1.2700000000	2.8874808646
1.2750000000	2.7348355602
1.2800000000	2.6873989475
1.2850000000	2.7326854757
1.2900000000	2.8696697591
1.2950000000	3.1054716617
1.3000000000	3.4692173081
1.3050000000	3.9982573130
1.3100000000	4.7622405738
1.3150000000	5.8816793112
1.3200000000	7.5732285588
1.3250000000	10.2498264975
1.3300000000	14.8158697010
1.3350000000	23.3681816794
1.3400000000	41.6469778911
1.3450000000	87.0243552386
1.3500000000	184.6854584423
1.3550000000	172.2451812594
1.3600000000	79.4303815044
1.3650000000	39.0270539273
1.3700000000	22.3816015305
1.3750000000	14.3934445440
1.3800000000	10.0378709875
1.3850000000	7.4141196991
1.3900000000	5.7230773840
1.3950000000	4.5693304620
1.4000000000	3.7486443966
1.4050000000	3.1458681604
1.4100000000	2.6912574642
1.4150000000	2.3431454199
1.4200000000	2.0721335315
1.4250000000	1.8703977300
1.4300000000	1.7418922099
1.4350000000	1.6566664781
1.4400000000	1.1381696619
1.4450000000	-0.2976709037
1.4500000000	-2.7967870548
1.4550000000	-0.9350889325
1.4600000000	2.8425784226
1.4650000000	1.6473159132
1.4700000000	-1.0483693778
1.4750000000	-5.3118550590
1.4800000000	-2.3432567517
1.4850000000	4.0164952178
1.4900000000	3.2514758558
1.4950000000	2.1096516361
1.5000000000	1.4853944740
1.5050000000	1.1474484296
1.5100000000	0.9540003197
1.5150000000	0.8353948465
1.5200000000	0.7577129679
1.5250000000	0.7084125083
1.5300000000	0.6695662757
1.5350000000	0.6413542089
1.5400000000	0.6209264237
1.5450000000	0.6065841883
1.5500000000	0.5971545460
1.5550000000	0.5921503804
1.5600000000	0.5925887403
1.5650000000	0.5964315905
1.5700000000	0.6058720598
1.5750000000	0.6226432594
1.5800000000	0.6501936110
1.5850000000	0.6953120150
1.5900000000	0.7723589238
1.5950000000	0.9130788811
1.6000000000	1.1843643837
1.6050000000	1.6295825452
1.6100000000	1.8370099574
1.6150000000	1.4614323181
1.6200000000	1.1132387341
1.6250000000	0.9361891409
1.6300000000	0.8548436587
1.6350000000	0.8212056681
1.6400000000	0.8135350944
1.6450000000	0.8218864716
1.6500000000	0.8414181614
1.6550000000	0.8701360393
1.6600000000	0.9070232225
1.6650000000	0.9519367079
1.6700000000	1.0052448020
1.6750000000	1.0677133771
1.6800000000	1.1404653685
1.6850000000	1.2250003430
1.6900000000	1.3230624701
1.6950000000	1.4356634907
1.7000000000	1.5652837923
1.7050000000	1.7152539540
1.7100000000	1.8970126645
1.7150000000	2.2025111041
1.7200000000	2.6639829272
1.7250000000	3.1628841241
1.7300000000	3.7561325297
1.7350000000	4.3979495399
1.7400000000	4.9903588552
1.7450000000	5.7369420244
1.7500000000	6.8814889080
1.7550000000	8.5982365001
1.7600000000	11.1739400592
1.7650000000	15.1476087614
1.7700000000	21.5487426531
1.7750000000	32.3300994621
1.7800000000	50.6925583410
1.7850000000	77.7515370645
1.7900000000	96.5598224222
1.7950000000	82.1566666474
1.8000000000	54.6246584147
1.8050000000	34.4564826873
1.8100000000	22.6863341880
1.8150000000	15.7892887613
1.8200000000	11.5450827430
1.8250000000	8.7930691849
1.8300000000	6.9235318540
1.8350000000	5.6025136155
1.8400000000	4.6383347114
1.8450000000	3.9145727458
1.8500000000	3.3577797811
1.8550000000	2.9219055003
1.8600000000	2.5745593234
1.8650000000	2.2934775921
1.8700000000	2.0624379411
1.8750000000	1.8689970764
1.8800000000	1.7025638833
1.8850000000	1.5528129115
1.8900000000	1.4069653527
1.8950000000	1.2456636740
1.9000000000	1.0361079379
1.9050000000	0.6712621180
1.9100000000	0.1473391668
1.9150000000	-0.3570046096
1.9200000000	0.2526449050
1.9250000000	2.6906960146
1.9300000000	4.6382838486
1.9350000000	4.6818623798
1.9400000000	3.7583701214
1.9450000000	2.8484779655
1.9500000000	2.2035717100
1.9550000000	1.7769928275
1.9600000000	1.4927241035
1.9650000000	1.3033058570
1.9700000000	1.1638672436
1.9750000000	1.0616190420
1.9800000000	0.9840139543
1.9850000000	0.9220539098
1.9900000000	0.8690410824
1.9950000000	0.8192979251
2.0000000000	0.7718037439
2.0050000000	0.7435641336
2.0100000000	0.7625484393
2.0150000000	0.8120566645
2.0200000000	0.8455118897
2.0250000000	0.8600617953
2.0300000000	0.8711636019
2.0350000000	0.8859694907
2.0400000000	0.9079594486
2.0450000000	0.9386118616
2.0500000000	0.9794302795
2.0550000000	1.0319098565
2.0600000000	1.0961355578
2.0650000000	1.1669760083
2.0700000000	1.2316590959
2.0750000000	1.2802097921
2.0800000000	1.3200407901
2.0850000000	1.3672631768
2.0900000000	1.4321230943
2.0950000000	1.5181696754
2.1000000000	1.6281169336
2.1050000000	1.7603037593
2.1100000000	1.9239404590
2.1150000000	2.1256273522
2.1200000000	2.3748591453
2.1250000000	2.6851082199
2.1300000000	3.0754647757
2.1350000000	3.5732425980
2.1400000000	4.2178910399
2.1450000000	5.0670731265
2.1500000000	6.2047593765
2.1550000000	7.7497173708
2.1600000000	9.8539014017
2.1650000000	12.6460822681
2.1700000000	16.0771610082
2.1750000000	19.4984540690
2.1800000000	21.6469968093
2.1850000000	21.8482085979
2.1900000000	21.0322459314
2.1950000000	20.4533221281
2.2000000000	20.2509625074
2.2050000000	19.2992445327
2.2100000000	17.1164064139
2.2150000000	14.3699382938
2.2200000000	11.8718736464
2.2250000000	9.8477338340
2.2300000000	8.1860988727
2.2350000000	6.7955440093
2.2400000000	5.6538433925
2.2450000000	4.7523495061
2.2500000000	4.0537412416
2.2550000000	3.5130551380
2.2600000000	3.0886735863
2.2650000000	2.7430860665
2.2700000000	2.4407870561
2.2750000000	2.1517733270
2.2800000000	1.8690810313
2.2850000000	1.6272282729
2.2900000000	1.4850031281
2.2950000000	1.4687527041
2.3000000000	1.5330878915
2.3050000000	1.6008798547
2.3100000000	1.6248454762
2.3150000000	1.6064747423
2.3200000000	1.5662134209
2.3250000000	1.5250746139
2.3300000000	1.4942135348
2.3350000000	1.4768871595
2.3400000000	1.4706449800
2.3450000000	1.4683578977
2.3500000000	1.4608428956
2.3550000000	1.4422336537
2.3600000000	1.4141531402
2.3650000000	1.3837568869
2.3700000000	1.3583176157
2.3750000000	1.3418773672
2.3800000000	1.3350845994
2.3850000000	1.3363146047
2.3900000000	1.3434920186
2.3950000000	1.3546284105
2.4000000000	1.3707142441
2.4050000000	1.3959525127
2.4100000000	1.4321315037
2.4150000000	1.4817183089
2.4200000000	1.5464132092
2.4250000000	1.6280394350
2.4300000000	1.7288339463
2.4350000000	1.8516646041
2.4400000000	2.0002225004
2.4450000000	2.1792407844
2.4500000000	2.3947184757
2.4550000000	2.6542239217
2.4600000000	2.9670650414
2.4650000000	3.3444612321
2.4700000000	3.7993249927
2.4750000000	4.3446752181
2.4800000000	4.9942529821
2.4850000000	5.7537671220
2.4900000000	6.6161055087
2.4950000000	7.5498150859
2.5000000000	8.4869844319
2.5050000000	9.3555924491
2.5100000000	9.9251362507
2.5150000000	10.0663153762
2.5200000000	9.7575153864
2.5250000000	9.0945096716
2.5300000000	8.2294788423
2.5350000000	7.3004806354
2.5400000000	6.3986251982
2.5450000000	5.5714564497
2.5500000000	4.8381190836
2.5550000000	4.2019011792
2.5600000000	3.6537272773
2.5650000000	3.1916013735
2.5700000000	2.8057112885
2.5750000000	2.4901280076
2.5800000000	2.2403185813
2.5850000000	2.0509346135
2.5900000000	1.9126242555
2.5950000000	1.8119653983
2.6000000000	1.7349281835
2.6050000000	1.6799592927
2.6100000000	1.6312245323
2.6150000000	1.5880699548
2.6200000000	1.5515083890
2.6250000000	1.5225779380
2.6300000000	1.5019442346
2.6350000000	1.4899258646
2.6400000000	1.4866911066
2.6450000000	1.4924107665
2.6500000000	1.5074357452
2.6550000000	1.5318447579
2.6600000000	1.5661736341
2.6650000000	1.6109319902
2.6700000000	1.6667204578
2.6750000000	1.7342409296
2.6800000000	1.8142436457
2.6850000000	1.9074974422
2.6900000000	2.0146822101
2.6950000000	2.1363183028
2.7000000000	2.2725976109
2.7050000000	2.4394661331
2.7100000000	2.6242377472
2.7150000000	2.8246574818
2.7200000000	3.0369365573
2.7250000000	3.2556868373
2.7300000000	3.4739335486
2.7350000000	3.6831391226
2.7400000000	3.8731472595
2.7450000000	4.0338231104
2.7500000000	4.1501175254
2.7550000000	4.2120692434
2.7600000000	4.2121555495
2.7650000000	4.1487201592
2.7700000000	4.0268157178
2.7750000000	3.8573515124
2.7800000000	3.6547254055
2.7850000000	3.4342510089
2.7900000000	3.2096473482
2.7950000000	2.9919105314
2.8000000000	2.7888209442
2.8050000000	2.5825365270
2.8100000000	2.4049611530
2.8150000000	2.2556970409
2.8200000000	2.1324119148
2.8250000000	2.0320054562
2.8300000000	1.9513507476
2.8350000000	1.8877856985
2.8400000000	1.8384790597
2.8450000000	1.8036024629
2.8500000000	1.7810763641
2.8550000000	1.7701141372
2.8600000000	1.7701357920
2.8650000000	1.7806498811
2.8700000000	1.8011764894
2.8750000000	1.8311677287
2.8800000000	1.8699550439
2.8850000000	1.9166904754
2.8900000000	1.9703613834
2.8950000000	2.0297691321
2.9000000000	2.0935936853
2.9050000000	2.1743043864
2.9100000000	2.2549684272
2.9150000000	2.3327057017
2.9200000000	2.4042089874
2.9250000000	2.4656625753
2.9300000000	2.5135112867
2.9350000000	2.5427705892
2.9400000000	2.5510641980
2.9450000000	2.5372316114
2.9500000000	2.5022217283
2.9550000000	2.4490113642
2.9600000000	2.3820285478
2.9650000000	2.3063715630
2.9700000000	2.2270261788
2.9750000000	2.1482920429
2.9800000000	2.0734938163
2.9850000000	2.0049290719
2.9900000000	1.9440131285
2.9950000000	1.8914328383
3.0000000000	1.8473870712
