# energy (eV)    P(omega), $W$ = 300 nm, $h$ = 300 nm, $s$ = 20 nm, $d/W = 5$, $E_{\rm e}$ = 200 keV
0.2000000000	0.1752533317
0.2050000000	0.1779265545
0.2100000000	0.1804125096
0.2150000000	0.1827173869
0.2200000000	0.1848467876
0.2250000000	0.1868053090
0.2300000000	0.1885966078
0.2350000000	0.1902232208
0.2400000000	0.1916864149
0.2450000000	0.1929859378
0.2500000000	0.1941198635
0.2550000000	0.1950840913
0.2600000000	0.1958722997
0.2650000000	0.1964751061
0.2700000000	0.1968797652
0.2750000000	0.1970692550
0.2800000000	0.1970213512
0.2850000000	0.1967074137
0.2900000000	0.1960908048
0.2950000000	0.1951248552
0.3000000000	0.1937500131
0.3050000000	0.1918903742
0.3100000000	0.1894487219
0.3150000000	0.2005907900
0.3200000000	0.2138225638
0.3250000000	0.2305683114
0.3300000000	0.2530129947
0.3350000000	0.2809430682
0.3400000000	0.3175163819
0.3450000000	0.3618402084
0.3500000000	0.4198009470
0.3550000000	0.4964565681
0.3600000000	0.5964745059
0.3650000000	0.7358441348
0.3700000000	0.9194424963
0.3750000000	1.1746481623
0.3800000000	1.5434919321
0.3850000000	2.1178771453
0.3900000000	3.0246179617
0.3950000000	4.5637283351
0.4000000000	7.4959038673
0.4050000000	14.0655282781
0.4100000000	31.9790475757
0.4150000000	102.5384236485
0.4200000000	65.3755558452
0.4250000000	-122.7365296537
0.4300000000	34.0677344662
0.4350000000	21.2041568175
0.4400000000	12.9443462560
0.4450000000	8.5012385950
0.4500000000	5.9450772253
0.4550000000	4.3729575563
0.4600000000	3.3496057318
0.4650000000	2.6526002389
0.4700000000	2.1601786836
0.4750000000	1.8041588254
0.4800000000	1.5402476111
0.4850000000	1.3416596816
0.4900000000	1.1900347581
0.4950000000	1.0730525065
0.5000000000	0.9822902242
0.5050000000	0.9115741363
0.5100000000	0.8569226247
0.5150000000	0.8154016695
0.5200000000	0.7839623460
0.5250000000	0.7612153275
0.5300000000	0.7456827008
0.5350000000	0.7362790157
0.5400000000	0.7322031487
0.5450000000	0.7327862216
0.5500000000	0.7378040777
0.5550000000	0.7468758695
0.5600000000	0.7597989466
0.5650000000	0.7764772082
0.5700000000	0.7968177602
0.5750000000	0.8209601522
0.5800000000	0.8491294688
0.5850000000	0.8814702639
0.5900000000	0.9182710399
0.5950000000	0.9599014561
0.6000000000	1.0068300204
0.6050000000	1.0597477969
0.6100000000	1.1193055607
0.6150000000	1.1863994073
0.6200000000	1.2622254507
0.6250000000	1.3479291400
0.6300000000	1.4452072858
0.6350000000	1.5561735429
0.6400000000	1.6830248314
0.6450000000	1.8289372182
0.6500000000	1.9980833884
0.6550000000	2.1948049685
0.6600000000	2.4257802389
0.6650000000	2.6995693896
0.6700000000	3.0262349926
0.6750000000	3.4211293917
0.6800000000	3.9048871609
0.6850000000	4.5045311182
0.6900000000	5.2619127243
0.6950000000	6.2355515365
0.7000000000	7.5183907157
0.7050000000	9.2524822927
0.7100000000	11.6784723808
0.7150000000	15.2246832669
0.7200000000	20.6883124729
0.7250000000	29.7542146448
0.7300000000	46.3885492062
0.7350000000	81.9674616322
0.7400000000	179.5047245975
0.7450000000	595.0623672391
0.7500000000	1842.1372531627
0.7550000000	463.0844455345
0.7600000000	153.2481160778
0.7650000000	73.3726946075
0.7700000000	42.6388076960
0.7750000000	27.8081457596
0.7800000000	19.5549419794
0.7850000000	14.5124307862
0.7900000000	11.2034823789
0.7950000000	8.9221866745
0.8000000000	7.2828170966
0.8050000000	6.0622750992
0.8100000000	5.1318615946
0.8150000000	4.3946071304
0.8200000000	3.8129231028
0.8250000000	3.3446991051
0.8300000000	2.9612761452
0.8350000000	2.6461036031
0.8400000000	2.3819697002
0.8450000000	2.1603743010
0.8500000000	1.9730834017
0.8550000000	1.8115040852
0.8600000000	1.6735748553
0.8650000000	1.5557438141
0.8700000000	1.4516579929
0.8750000000	1.3630788055
0.8800000000	1.2878616623
0.8850000000	1.2204313613
0.8900000000	1.1662153298
0.8950000000	1.1168988644
0.9000000000	1.0776742685
0.9050000000	1.0504000567
0.9100000000	1.0253884445
0.9150000000	1.0098918566
0.9200000000	1.0072494889
0.9250000000	1.0051154751
0.9300000000	0.9897296896
0.9350000000	0.9452983331
0.9400000000	0.7009672918
0.9450000000	-0.4066854912
0.9500000000	-6.2461704668
0.9550000000	-35.8432313950
0.9600000000	8.4537695626
0.9650000000	14.8387356647
0.9700000000	6.5785473226
0.9750000000	3.4531493220
0.9800000000	2.1644544959
0.9850000000	1.5618831304
0.9900000000	1.2148535172
0.9950000000	1.0044845796
1.0000000000	0.8701814513
1.0050000000	0.7850001959
1.0100000000	0.7190266079
1.0150000000	0.6708493613
1.0200000000	0.6383814100
1.0250000000	0.6111888695
1.0300000000	0.5905666909
1.0350000000	0.5750098408
1.0400000000	0.5651527009
1.0450000000	0.5570321180
1.0500000000	0.5517640470
1.0550000000	0.5490275570
1.0600000000	0.5495323303
1.0650000000	0.5513008094
1.0700000000	0.5551446138
1.0750000000	0.5610808612
1.0800000000	0.5696451404
1.0850000000	0.5805042568
1.0900000000	0.5964195627
1.0950000000	0.6152960006
1.1000000000	0.6377476195
1.1050000000	0.6636660844
1.1100000000	0.6938469251
1.1150000000	0.7289757826
1.1200000000	0.7698405375
1.1250000000	0.8175779353
1.1300000000	0.8735851786
1.1350000000	0.9396447530
1.1400000000	1.0177584393
1.1450000000	1.1116958629
1.1500000000	1.2254618198
1.1550000000	1.3648888761
1.1600000000	1.5382064435
1.1650000000	1.7560654051
1.1700000000	2.0385444912
1.1750000000	2.4121874700
1.1800000000	2.9209140542
1.1850000000	3.6369460850
1.1900000000	4.6962453739
1.1950000000	6.3601924026
1.2000000000	9.1836091152
1.2050000000	14.5202134942
1.2100000000	26.2598559377
1.2150000000	57.9842502907
1.2200000000	142.3287557264
1.2250000000	127.7582259824
1.2300000000	50.8501404534
1.2350000000	23.7609604955
1.2400000000	13.4984339962
1.2450000000	8.7811846644
1.2500000000	6.2862833772
1.2550000000	4.8390656182
1.2600000000	3.9499692619
1.2650000000	3.3832996805
1.2700000000	3.0326457168
1.2750000000	2.8288419314
1.2800000000	2.7379052565
1.2850000000	2.7435991084
1.2900000000	2.8418233047
1.2950000000	3.0369325461
1.3000000000	3.3550677697
1.3050000000	3.8293093497
1.3100000000	4.5233649898
1.3150000000	5.5479806112
1.3200000000	7.1030461844
1.3250000000	9.5689617285
1.3300000000	13.7814949990
1.3350000000	21.6757832825
1.3400000000	38.5494781157
1.3450000000	80.4293225825
1.3500000000	170.5144224061
1.3550000000	158.9249092752
1.3600000000	73.2616378611
1.3650000000	35.9925197908
1.3700000000	20.6430036240
1.3750000000	13.2780618171
1.3800000000	9.2625357684
1.3850000000	6.8433472225
1.3900000000	5.2834658116
1.3950000000	4.2186594935
1.4000000000	3.4601630638
1.4050000000	2.9016741135
1.4100000000	2.4782463904
1.4150000000	2.1501171204
1.4200000000	1.8877134461
1.4250000000	1.6777224554
1.4300000000	1.5082571557
1.4350000000	1.3365341892
1.4400000000	0.7903764959
1.4450000000	-0.6248212040
1.4500000000	-3.2121818187
1.4550000000	-1.1651718697
1.4600000000	2.9359882593
1.4650000000	1.7848575459
1.4700000000	-0.7692628811
1.4750000000	-4.6767809846
1.4800000000	-2.0393099599
1.4850000000	3.6675181194
1.4900000000	2.9670315995
1.4950000000	1.9329064548
1.5000000000	1.3668693977
1.5050000000	1.0593834373
1.5100000000	0.8830940424
1.5150000000	0.7745755711
1.5200000000	0.7031790624
1.5250000000	0.6577103534
1.5300000000	0.6215674036
1.5350000000	0.5950834692
1.5400000000	0.5756485035
1.5450000000	0.5616651867
1.5500000000	0.5520805925
1.5550000000	0.5463552398
1.5600000000	0.5453577655
1.5650000000	0.5470236262
1.5700000000	0.5531604770
1.5750000000	0.5649512876
1.5800000000	0.5848138941
1.5850000000	0.6175168751
1.5900000000	0.6731230190
1.5950000000	0.7737461809
1.6000000000	0.9654675791
1.6050000000	1.2756727390
1.6100000000	1.4135823116
1.6150000000	1.1481613274
1.6200000000	0.9083986164
1.6250000000	0.7900426864
1.6300000000	0.7389759378
1.6350000000	0.7215491898
1.6400000000	0.7227061795
1.6450000000	0.7356490169
1.6500000000	0.7571792760
1.6550000000	0.7859845106
1.6600000000	0.8215765048
1.6650000000	0.8640571421
1.6700000000	0.9139300157
1.6750000000	0.9720459913
1.6800000000	1.0396003848
1.6850000000	1.1181810278
1.6900000000	1.2098198267
1.6950000000	1.3164538793
1.7000000000	1.4421675401
1.7050000000	1.5944174257
1.7100000000	1.7820068387
1.7150000000	2.0479922179
1.7200000000	2.4160745021
1.7250000000	2.8624737458
1.7300000000	3.4232846274
1.7350000000	4.0226692411
1.7400000000	4.5520083833
1.7450000000	5.2102873696
1.7500000000	6.2314314116
1.7550000000	7.7728131568
1.7600000000	10.0905537366
1.7650000000	13.6683926937
1.7700000000	19.4317373534
1.7750000000	29.1358526317
1.7800000000	45.6555243755
1.7850000000	69.9795447072
1.7900000000	86.8462817457
1.7950000000	73.8352758410
1.8000000000	49.0501092942
1.8050000000	30.9106088085
1.8100000000	20.3298628630
1.8150000000	14.1320018793
1.8200000000	10.3189039252
1.8250000000	7.8465932219
1.8300000000	6.1668134497
1.8350000000	4.9793286322
1.8400000000	4.1118501847
1.8450000000	3.4596520536
1.8500000000	2.9566388019
1.8550000000	2.5613465736
1.8600000000	2.2444513627
1.8650000000	1.9856903744
1.8700000000	1.7701031573
1.8750000000	1.5859592131
1.8800000000	1.4229427478
1.8850000000	1.2705903217
1.8900000000	1.1156031161
1.8950000000	0.9377588800
1.9000000000	0.7030238545
1.9050000000	0.3035017060
1.9100000000	-0.2766638596
1.9150000000	-0.9016755095
1.9200000000	-0.6232467694
1.9250000000	1.2002039536
1.9300000000	2.6649867516
1.9350000000	2.7842572913
1.9400000000	2.2954753125
1.9450000000	1.8015060771
1.9500000000	1.4462918306
1.9550000000	1.2079465817
1.9600000000	1.0471266882
1.9650000000	0.9406587329
1.9700000000	0.8600221255
1.9750000000	0.8008415254
1.9800000000	0.7562683018
1.9850000000	0.7214648566
1.9900000000	0.6929843915
1.9950000000	0.6680355498
2.0000000000	0.6459450812
2.0050000000	0.6347055578
2.0100000000	0.6450570547
2.0150000000	0.6697749524
2.0200000000	0.6892378821
2.0250000000	0.7025199660
2.0300000000	0.7167060916
2.0350000000	0.7348498135
2.0400000000	0.7592838515
2.0450000000	0.7915257305
2.0500000000	0.8333994429
2.0550000000	0.8867553504
2.0600000000	0.9516832587
2.0650000000	1.0220298343
2.0700000000	1.0825256619
2.0750000000	1.1210443473
2.0800000000	1.1458702379
2.0850000000	1.1755026038
2.0900000000	1.2213972688
2.0950000000	1.2870608435
2.1000000000	1.3743881634
2.1050000000	1.4813931884
2.1100000000	1.6155395230
2.1150000000	1.7820116080
2.1200000000	1.9885009013
2.1250000000	2.2460614204
2.1300000000	2.5704532179
2.1350000000	2.9842811882
2.1400000000	3.5202164150
2.1450000000	4.2260166901
2.1500000000	5.1712023141
2.1550000000	6.4540345605
2.1600000000	8.2001521873
2.1650000000	10.5158119419
2.1700000000	13.3608101176
2.1750000000	16.2002736408
2.1800000000	17.9958499231
2.1850000000	18.1985471651
2.1900000000	17.5813094369
2.1950000000	17.1718487469
2.2000000000	17.0544431107
2.2050000000	16.2347224968
2.2100000000	14.2957937417
2.2150000000	11.8326370322
2.2200000000	9.5788259003
2.2250000000	7.7736449891
2.2300000000	6.3528621088
2.2350000000	5.2244279898
2.2400000000	4.3291655765
2.2450000000	3.6303945147
2.2500000000	3.0854213414
2.2550000000	2.6554209909
2.2600000000	2.3079916674
2.2650000000	2.0161772111
2.2700000000	1.7573382895
2.2750000000	1.5155947964
2.2800000000	1.2920867007
2.2850000000	1.1148707335
2.2900000000	1.0254943369
2.2950000000	1.0382707150
2.3000000000	1.1121944368
2.3050000000	1.1844350668
2.3100000000	1.2156283570
2.3150000000	1.2077686743
2.3200000000	1.1780868467
2.3250000000	1.1441750910
2.3300000000	1.1155413345
2.3350000000	1.0954829181
2.3400000000	1.0833231664
2.3450000000	1.0755459285
2.3500000000	1.0674554313
2.3550000000	1.0560494616
2.3600000000	1.0421615770
2.3650000000	1.0294356561
2.3700000000	1.0214837412
2.3750000000	1.0200700654
2.3800000000	1.0248913674
2.3850000000	1.0341307235
2.3900000000	1.0457652452
2.3950000000	1.0580651025
2.4000000000	1.0720622153
2.4050000000	1.0916040499
2.4100000000	1.1186436232
2.4150000000	1.1556607845
2.4200000000	1.2043435908
2.4250000000	1.2662274395
2.4300000000	1.3430342150
2.4350000000	1.4369219204
2.4400000000	1.5506670187
2.4450000000	1.6878512902
2.4500000000	1.8530331466
2.4550000000	2.0519795186
2.4600000000	2.2918113626
2.4650000000	2.5811460401
2.4700000000	2.9299623026
2.4750000000	3.3484219466
2.4800000000	3.8475143001
2.4850000000	4.4321802606
2.4900000000	5.0975816596
2.4950000000	5.8196525954
2.5000000000	6.5449215246
2.5050000000	7.2152376687
2.5100000000	7.6482716817
2.5150000000	7.7430625898
2.5200000000	7.4865666806
2.5250000000	6.9590464471
2.5300000000	6.2825976605
2.5350000000	5.5643047468
2.5400000000	4.8719840147
2.5450000000	4.2391454790
2.5500000000	3.6783096646
2.5550000000	3.1910655954
2.5600000000	2.7703462526
2.5650000000	2.4152323065
2.5700000000	2.1186422936
2.5750000000	1.8763854140
2.5800000000	1.6851880140
2.5850000000	1.5409934375
2.5900000000	1.4364763423
2.5950000000	1.3610304162
2.6000000000	1.3035617317
2.6050000000	1.2625725748
2.6100000000	1.2257651306
2.6150000000	1.1926876937
2.6200000000	1.1641681857
2.6250000000	1.1410208248
2.6300000000	1.1237378782
2.6350000000	1.1125328933
2.6400000000	1.1075177976
2.6450000000	1.1088179666
2.6500000000	1.1167030924
2.6550000000	1.1312171429
2.6600000000	1.1527397538
2.6650000000	1.1816061516
2.6700000000	1.2182119042
2.6750000000	1.2630267534
2.6800000000	1.3165737600
2.6850000000	1.3794246091
2.6900000000	1.4521321149
2.6950000000	1.5351974978
2.7000000000	1.6289688854
2.7050000000	1.7447377992
2.7100000000	1.8744978942
2.7150000000	2.0173621326
2.7200000000	2.1714091643
2.7250000000	2.3334355882
2.7300000000	2.4987247330
2.7350000000	2.6608500420
2.7400000000	2.8115674781
2.7450000000	2.9421698473
2.7500000000	3.0400218963
2.7550000000	3.0964401068
2.7600000000	3.1049029779
2.7650000000	3.0637305760
2.7700000000	2.9766770667
2.7750000000	2.8521667042
2.7800000000	2.7013756324
2.7850000000	2.5361936759
2.7900000000	2.3672422946
2.7950000000	2.2030267195
2.8000000000	2.0495451111
2.8050000000	1.8934723285
2.8100000000	1.7587407163
2.8150000000	1.6450438110
2.8200000000	1.5505948502
2.8250000000	1.4730191389
2.8300000000	1.4099344778
2.8350000000	1.3593106357
2.8400000000	1.3189891943
2.8450000000	1.2891160922
2.8500000000	1.2681094359
2.8550000000	1.2553799169
2.8600000000	1.2505105824
2.8650000000	1.2531721391
2.8700000000	1.2630714389
2.8750000000	1.2799088432
2.8800000000	1.3033380118
2.8850000000	1.3329279115
2.8900000000	1.3681482259
2.8950000000	1.4083509717
2.9000000000	1.4527671772
2.9050000000	1.5111212361
2.9100000000	1.5710406056
2.9150000000	1.6302143851
2.9200000000	1.6858629338
2.9250000000	1.7347630470
2.9300000000	1.7738851970
2.9350000000	1.7991970503
2.9400000000	1.8086778459
2.9450000000	1.8012921896
2.9500000000	1.7776478870
2.9550000000	1.7399032448
2.9600000000	1.6913472969
2.9650000000	1.6357956672
2.9700000000	1.5769929573
2.9750000000	1.5181883825
2.9800000000	1.4619022184
2.9850000000	1.4098928291
2.9900000000	1.3632421757
2.9950000000	1.3225019501
3.0000000000	1.2878500874
