# energy (eV)    P(omega), $W$ = 300 nm, $h$ = 300 nm, $s$ = 20 nm, $d/W = 5$, $E_{\rm e}$ = 200 keV
0.2000000000	0.0639529517
0.2050000000	0.0649268244
0.2100000000	0.0658318346
0.2150000000	0.0666702820
0.2200000000	0.0674442367
0.2250000000	0.0681554079
0.2300000000	0.0688051605
0.2350000000	0.0693944449
0.2400000000	0.0699237449
0.2450000000	0.0703929929
0.2500000000	0.0708015038
0.2550000000	0.0711478037
0.2600000000	0.0714295990
0.2650000000	0.0716434801
0.2700000000	0.0717848139
0.2750000000	0.0718473946
0.2800000000	0.0718231307
0.2850000000	0.0717015782
0.2900000000	0.0714693790
0.2950000000	0.0711095124
0.3000000000	0.0706002553
0.3050000000	0.0699139235
0.3100000000	0.0690150588
0.3150000000	0.0730795885
0.3200000000	0.0779065021
0.3250000000	0.0840158289
0.3300000000	0.0922051497
0.3350000000	0.1023957335
0.3400000000	0.1157399844
0.3450000000	0.1319108798
0.3500000000	0.1530563294
0.3550000000	0.1810210368
0.3600000000	0.2175061550
0.3650000000	0.2683440595
0.3700000000	0.3353096353
0.3750000000	0.4283869660
0.3800000000	0.5629011816
0.3850000000	0.7723630671
0.3900000000	1.1030030297
0.3950000000	1.6641968849
0.4000000000	2.7332674464
0.4050000000	5.1284047538
0.4100000000	11.6588365664
0.4150000000	37.3797563700
0.4200000000	23.8321615777
0.4250000000	-44.7341585202
0.4300000000	12.4150216367
0.4350000000	7.7264128574
0.4400000000	4.7161298953
0.4450000000	3.0969489602
0.4500000000	2.1654749266
0.4550000000	1.5926210426
0.4600000000	1.2197482378
0.4650000000	0.9657960463
0.4700000000	0.7863909954
0.4750000000	0.6566853542
0.4800000000	0.5605387634
0.4850000000	0.4881905663
0.4900000000	0.4329506568
0.4950000000	0.3903299077
0.5000000000	0.3572593181
0.5050000000	0.3314895539
0.5100000000	0.3115697566
0.5150000000	0.2964307199
0.5200000000	0.2849619497
0.5250000000	0.2766569690
0.5300000000	0.2709773170
0.5350000000	0.2675274835
0.5400000000	0.2660154854
0.5450000000	0.2661975237
0.5500000000	0.2679916061
0.5550000000	0.2712587689
0.5600000000	0.2759249527
0.5650000000	0.2819547586
0.5700000000	0.2893140458
0.5750000000	0.2980530988
0.5800000000	0.3082532923
0.5850000000	0.3199666482
0.5900000000	0.3332975761
0.5950000000	0.3483797715
0.6000000000	0.3653829088
0.6050000000	0.3845573455
0.6100000000	0.4061387578
0.6150000000	0.4304517546
0.6200000000	0.4579296904
0.6250000000	0.4889875808
0.6300000000	0.5242401262
0.6350000000	0.5644532195
0.6400000000	0.6104227573
0.6450000000	0.6632995197
0.6500000000	0.7245953674
0.6550000000	0.7958832100
0.6600000000	0.8795827492
0.6650000000	0.9787954040
0.6700000000	1.0971666956
0.6750000000	1.2402586880
0.6800000000	1.4155474948
0.6850000000	1.6328229783
0.6900000000	1.9072470467
0.6950000000	2.2600200543
0.7000000000	2.7248129653
0.7050000000	3.3530864670
0.7100000000	4.2320178580
0.7150000000	5.5167710092
0.7200000000	7.4961324937
0.7250000000	10.7804393702
0.7300000000	16.8064021760
0.7350000000	29.6948904644
0.7400000000	65.0268446075
0.7450000000	215.5539906619
0.7500000000	667.2561056342
0.7550000000	167.7289319539
0.7600000000	55.5035092913
0.7650000000	26.5728113186
0.7700000000	15.4413774597
0.7750000000	10.0700383492
0.7800000000	7.0809902987
0.7850000000	5.2548000478
0.7900000000	4.0564662378
0.7950000000	3.2303169783
0.8000000000	2.6366495976
0.8050000000	2.1946640552
0.8100000000	1.8577485004
0.8150000000	1.5907862952
0.8200000000	1.3801612989
0.8250000000	1.2106234572
0.8300000000	1.0717938152
0.8350000000	0.9576786015
0.8400000000	0.8620447805
0.8450000000	0.7818140089
0.8500000000	0.7140043301
0.8550000000	0.6555047664
0.8600000000	0.6055679758
0.8650000000	0.5629075857
0.8700000000	0.5252242609
0.8750000000	0.4931542872
0.8800000000	0.4659210838
0.8850000000	0.4415073743
0.8900000000	0.4218755840
0.8950000000	0.4040179957
0.9000000000	0.3898119572
0.9050000000	0.3799289462
0.9100000000	0.3708653961
0.9150000000	0.3652433875
0.9200000000	0.3642697667
0.9250000000	0.3634807285
0.9300000000	0.3579025894
0.9350000000	0.3418284590
0.9400000000	0.2535074797
0.9450000000	-0.1468196616
0.9500000000	-2.2571811916
0.9550000000	-12.9529271622
0.9600000000	3.0549825415
0.9650000000	5.3620485208
0.9700000000	2.3771406956
0.9750000000	1.2477844355
0.9800000000	0.7821286904
0.9850000000	0.5643984933
0.9900000000	0.4390067959
0.9950000000	0.3629949816
1.0000000000	0.3144675605
1.0050000000	0.2836880243
1.0100000000	0.2598496457
1.0150000000	0.2424414301
1.0200000000	0.2307086225
1.0250000000	0.2208826859
1.0300000000	0.2134308872
1.0350000000	0.2078094453
1.0400000000	0.2042471041
1.0450000000	0.2013129232
1.0500000000	0.1994096710
1.0550000000	0.1984213911
1.0600000000	0.1986041636
1.0650000000	0.1992442897
1.0700000000	0.2006347098
1.0750000000	0.2027815273
1.0800000000	0.2058781331
1.0850000000	0.2098050489
1.0900000000	0.2155604404
1.0950000000	0.2223866404
1.1000000000	0.2305054946
1.1050000000	0.2398785515
1.1100000000	0.2507932828
1.1150000000	0.2634976487
1.1200000000	0.2782763968
1.1250000000	0.2955414431
1.1300000000	0.3157979721
1.1350000000	0.3396907232
1.1400000000	0.3679436100
1.1450000000	0.4019211178
1.1500000000	0.4430716843
1.1550000000	0.4935053820
1.1600000000	0.5561993658
1.1650000000	0.6350063397
1.1700000000	0.7371912106
1.1750000000	0.8723561357
1.1800000000	1.0563898206
1.1850000000	1.3154195999
1.1900000000	1.6986294168
1.1950000000	2.3005775244
1.2000000000	3.3219699364
1.2050000000	5.2525075987
1.2100000000	9.4993034533
1.2150000000	20.9752701469
1.2200000000	51.4847984004
1.2250000000	46.2117564294
1.2300000000	18.3915800472
1.2350000000	8.5928619923
1.2400000000	4.8807438153
1.2450000000	3.1744201630
1.2500000000	2.2719204372
1.2550000000	1.7483486906
1.2600000000	1.4266219193
1.2650000000	1.2214842843
1.2700000000	1.0944357207
1.2750000000	1.0204517762
1.2800000000	0.9872268091
1.2850000000	0.9888695930
1.2900000000	1.0238696491
1.2950000000	1.0937688657
1.3000000000	1.2079554187
1.3050000000	1.3783084920
1.3100000000	1.6277267203
1.3150000000	1.9960215778
1.3200000000	2.5550601491
1.3250000000	3.4416052957
1.3300000000	4.9561569902
1.3350000000	7.7944712484
1.3400000000	13.8612567286
1.3450000000	28.9186747850
1.3500000000	61.3071962640
1.3550000000	57.1391456503
1.3600000000	26.3398859429
1.3650000000	12.9404293136
1.3700000000	7.4218300973
1.3750000000	4.7739362014
1.3800000000	3.3302521562
1.3850000000	2.4604925523
1.3900000000	1.8996722759
1.3950000000	1.5168432696
1.4000000000	1.2441362285
1.4050000000	1.0433326161
1.4100000000	0.8910792738
1.4150000000	0.7730736403
1.4200000000	0.6786726218
1.4250000000	0.6030625025
1.4300000000	0.5418961156
1.4350000000	0.4797048728
1.4400000000	0.2828024062
1.4450000000	-0.2271165110
1.4500000000	-1.1599470177
1.4550000000	-0.4212696330
1.4600000000	1.0583614315
1.4650000000	0.6440387907
1.4700000000	-0.2748372392
1.4750000000	-1.6795249631
1.4800000000	-0.7320705681
1.4850000000	1.3184279475
1.4900000000	1.0666209353
1.4950000000	0.6949768693
1.5000000000	0.4915537607
1.5050000000	0.3810476932
1.5100000000	0.3176955913
1.5150000000	0.2787020303
1.5200000000	0.2530531918
1.5250000000	0.2367277317
1.5300000000	0.2237577144
1.5350000000	0.2142651503
1.5400000000	0.2073134731
1.5450000000	0.2023305954
1.5500000000	0.1989413716
1.5550000000	0.1969561785
1.5600000000	0.1966941509
1.5650000000	0.1974234794
1.5700000000	0.1998113316
1.5750000000	0.2043122796
1.5800000000	0.2118484283
1.5850000000	0.2242358317
1.5900000000	0.2453045710
1.5950000000	0.2834711270
1.6000000000	0.3562745862
1.6050000000	0.4741357477
1.6100000000	0.5264173685
1.6150000000	0.4251488845
1.6200000000	0.3335814208
1.6250000000	0.2881676914
1.6300000000	0.2683126867
1.6350000000	0.2612056962
1.6400000000	0.2611100969
1.6450000000	0.2654310419
1.6500000000	0.2729432820
1.6550000000	0.2831347920
1.6600000000	0.2958070313
1.6650000000	0.3109827706
1.6700000000	0.3288342101
1.6750000000	0.3496611444
1.6800000000	0.3738892096
1.6850000000	0.4020850412
1.6900000000	0.4349756596
1.6950000000	0.4732519338
1.7000000000	0.5183718737
1.7050000000	0.5729937122
1.7100000000	0.6402696465
1.7150000000	0.7357915256
1.7200000000	0.8681598536
1.7250000000	1.0286136642
1.7300000000	1.2301235250
1.7350000000	1.4454604009
1.7400000000	1.6355709932
1.7450000000	1.8719783355
1.7500000000	2.2387495282
1.7550000000	2.7924109695
1.7600000000	3.6249543208
1.7650000000	4.9101324022
1.7700000000	6.9803430675
1.7750000000	10.4660580030
1.7800000000	16.3998395522
1.7850000000	25.1367310039
1.7900000000	31.1947015384
1.7950000000	26.5207584365
1.8000000000	17.6179256992
1.8050000000	11.1023688861
1.8100000000	7.3019045493
1.8150000000	5.0757414065
1.8200000000	3.7061580594
1.8250000000	2.8181659465
1.8300000000	2.2148374824
1.8350000000	1.7883315397
1.8400000000	1.4767653967
1.8450000000	1.2425227911
1.8500000000	1.0618643695
1.8550000000	0.9198967512
1.8600000000	0.8060882325
1.8650000000	0.7131609960
1.8700000000	0.6357421668
1.8750000000	0.5696192052
1.8800000000	0.5110880499
1.8850000000	0.4563921887
1.8900000000	0.4007577203
1.8950000000	0.3369257019
1.9000000000	0.2526797534
1.9050000000	0.1092873395
1.9100000000	-0.0989282686
1.9150000000	-0.3231711840
1.9200000000	-0.2228800513
1.9250000000	0.4323052331
1.9300000000	0.9585751587
1.9350000000	1.0012818404
1.9400000000	0.8253749310
1.9450000000	0.6476382984
1.9500000000	0.5198412435
1.9550000000	0.4340985406
1.9600000000	0.3762491346
1.9650000000	0.3379497380
1.9700000000	0.3089467504
1.9750000000	0.2876609215
1.9800000000	0.2716283301
1.9850000000	0.2591084107
1.9900000000	0.2488608306
1.9950000000	0.2398808522
2.0000000000	0.2319261612
2.0050000000	0.2278727386
2.0100000000	0.2315908279
2.0150000000	0.2404807579
2.0200000000	0.2474781602
2.0250000000	0.2522485411
2.0300000000	0.2573415087
2.0350000000	0.2638570041
2.0400000000	0.2726342974
2.0450000000	0.2842196770
2.0500000000	0.2992698454
2.0550000000	0.3184508055
2.0600000000	0.3417942816
2.0650000000	0.3670826407
2.0700000000	0.3888143217
2.0750000000	0.4026198337
2.0800000000	0.4114821872
2.0850000000	0.4220637656
2.0900000000	0.4384890018
2.0950000000	0.4620185374
2.1000000000	0.4933304889
2.1050000000	0.5317086509
2.1100000000	0.5798306602
2.1150000000	0.6395553700
2.1200000000	0.7136415706
2.1250000000	0.8060550500
2.1300000000	0.9224504248
2.1350000000	1.0709380991
2.1400000000	1.2632413682
2.1450000000	1.5164959727
2.1500000000	1.8556466624
2.1550000000	2.3159506958
2.1600000000	2.9424865670
2.1650000000	3.7733757017
2.1700000000	4.7941780006
2.1750000000	5.8129481250
2.1800000000	6.4570834766
2.1850000000	6.5295962189
2.1900000000	6.3078519868
2.1950000000	6.1606355665
2.2000000000	6.1182385538
2.2050000000	5.8239919190
2.2100000000	5.1283664904
2.2150000000	4.2447695143
2.2200000000	3.4363063304
2.2250000000	2.7887745249
2.2300000000	2.2791113357
2.2350000000	1.8742992331
2.2400000000	1.5531247374
2.2450000000	1.3024416113
2.2500000000	1.1069387111
2.2550000000	0.9526894558
2.2600000000	0.8280690138
2.2650000000	0.7234052114
2.2700000000	0.6305711171
2.2750000000	0.5438625748
2.2800000000	0.4636828116
2.2850000000	0.4000977125
2.2900000000	0.3680176828
2.2950000000	0.3725820801
2.3000000000	0.3990827112
2.3050000000	0.4249813762
2.3100000000	0.4361599889
2.3150000000	0.4333352535
2.3200000000	0.4226884719
2.3250000000	0.4105299346
2.3300000000	0.4002697002
2.3350000000	0.3930896423
2.3400000000	0.3887449126
2.3450000000	0.3859703587
2.3500000000	0.3830768905
2.3550000000	0.3789843687
2.3600000000	0.3739923613
2.3650000000	0.3694109865
2.3700000000	0.3665390570
2.3750000000	0.3660112921
2.3800000000	0.3677200672
2.3850000000	0.3710142658
2.3900000000	0.3751685201
2.3950000000	0.3795624459
2.4000000000	0.3845663249
2.4050000000	0.3915596252
2.4100000000	0.4012435843
2.4150000000	0.4145073886
2.4200000000	0.4319558172
2.4250000000	0.4541390860
2.4300000000	0.4816743684
2.4350000000	0.5153352690
2.4400000000	0.5561171394
2.4450000000	0.6053041189
2.4500000000	0.6645305338
2.4550000000	0.7358640255
2.4600000000	0.8218577928
2.4650000000	0.9256011349
2.4700000000	1.0506725316
2.4750000000	1.2007145681
2.4800000000	1.3796672640
2.4850000000	1.5893022999
2.4900000000	1.8278845569
2.4950000000	2.0867845691
2.5000000000	2.3468313071
2.5050000000	2.5871769176
2.5100000000	2.7424468966
2.5150000000	2.7764408178
2.5200000000	2.6844777022
2.5250000000	2.4953308630
2.5300000000	2.2527754456
2.5350000000	1.9952086318
2.5400000000	1.7469510847
2.5450000000	1.5200231926
2.5500000000	1.3189166862
2.5550000000	1.1442022806
2.5600000000	0.9933451349
2.5650000000	0.8660145226
2.5700000000	0.7596697936
2.5750000000	0.6728070848
2.5800000000	0.6042518984
2.5850000000	0.5525492340
2.5900000000	0.5150724574
2.5950000000	0.4880190749
2.6000000000	0.4674119502
2.6050000000	0.4527146474
2.6100000000	0.4395179011
2.6150000000	0.4276594159
2.6200000000	0.4174355195
2.6250000000	0.4091375514
2.6300000000	0.4029414298
2.6350000000	0.3989234269
2.6400000000	0.3971235593
2.6450000000	0.3975870306
2.6500000000	0.4004109053
2.6550000000	0.4056115183
2.6600000000	0.4133253086
2.6650000000	0.4236728085
2.6700000000	0.4367960365
2.6750000000	0.4528634926
2.6800000000	0.4720627127
2.6850000000	0.4945985141
2.6900000000	0.5206688177
2.6950000000	0.5504530133
2.7000000000	0.5840753606
2.7050000000	0.6255844122
2.7100000000	0.6721076304
2.7150000000	0.7233255727
2.7200000000	0.7785478686
2.7250000000	0.8366245034
2.7300000000	0.8958642015
2.7350000000	0.9539628158
2.7400000000	1.0079659543
2.7450000000	1.0547548142
2.7500000000	1.0898019988
2.7550000000	1.1099977371
2.7600000000	1.1130064418
2.7650000000	1.0982273441
2.7700000000	1.0670064816
2.7750000000	1.0223640015
2.7800000000	0.9683053766
2.7850000000	0.9090917488
2.7900000000	0.8485297881
2.7950000000	0.7896671977
2.8000000000	0.7346536914
2.8050000000	0.6787132836
2.8100000000	0.6304233103
2.8150000000	0.5896736178
2.8200000000	0.5558236820
2.8250000000	0.5280222036
2.8300000000	0.5054152024
2.8350000000	0.4872748612
2.8400000000	0.4728274627
2.8450000000	0.4621251216
2.8500000000	0.4546008183
2.8550000000	0.4500432797
2.8600000000	0.4483030404
2.8650000000	0.4492620176
2.8700000000	0.4528150894
2.8750000000	0.4588546835
2.8800000000	0.4672563464
2.8850000000	0.4778653367
2.8900000000	0.4904911341
2.8950000000	0.5049010496
2.9000000000	0.5208190920
2.9050000000	0.5417291230
2.9100000000	0.5631969386
2.9150000000	0.5843946589
2.9200000000	0.6043267538
2.9250000000	0.6218389327
2.9300000000	0.6358463216
2.9350000000	0.6449046022
2.9400000000	0.6482903171
2.9450000000	0.6456330069
2.9500000000	0.6371507545
2.9550000000	0.6236173952
2.9600000000	0.6062115481
2.9650000000	0.5863005285
2.9700000000	0.5652260675
2.9750000000	0.5441523321
2.9800000000	0.5239821929
2.9850000000	0.5053454983
2.9900000000	0.4886298453
2.9950000000	0.4740326685
3.0000000000	0.4616176243
