# energy (eV)    P(omega), $W$ = 300 nm, $h$ = 300 nm, $s$ = 20 nm, $d/W = 5$, $E_{\rm e}$ = 200 keV
0.2000000000	0.1088615389
0.2050000000	0.1104926584
0.2100000000	0.1120175895
0.2150000000	0.1134397946
0.2200000000	0.1147622307
0.2250000000	0.1159874085
0.2300000000	0.1171172476
0.2350000000	0.1181530204
0.2400000000	0.1190952118
0.2450000000	0.1199434649
0.2500000000	0.1206963847
0.2550000000	0.1213513019
0.2600000000	0.1219042087
0.2650000000	0.1223492830
0.2700000000	0.1226786373
0.2750000000	0.1228818174
0.2800000000	0.1229452518
0.2850000000	0.1228514896
0.2900000000	0.1225781789
0.2950000000	0.1220969565
0.3000000000	0.1213715918
0.3050000000	0.1203559161
0.3100000000	0.1189908224
0.3150000000	0.1257574361
0.3200000000	0.1337936715
0.3250000000	0.1439580370
0.3300000000	0.1575705631
0.3350000000	0.1745146017
0.3400000000	0.1967030974
0.3450000000	0.2236151492
0.3500000000	0.2588200819
0.3550000000	0.3054014452
0.3600000000	0.3662205327
0.3650000000	0.4510066404
0.3700000000	0.5627987219
0.3750000000	0.7183004390
0.3800000000	0.9431929734
0.3850000000	1.2936089169
0.3900000000	1.8471719397
0.3950000000	2.7874376364
0.4000000000	4.5798729085
0.4050000000	8.5983750786
0.4100000000	19.5630904182
0.4150000000	62.7809266625
0.4200000000	40.0009201102
0.4250000000	-75.2879461437
0.4300000000	20.9346101905
0.4350000000	13.0451002501
0.4400000000	7.9741432796
0.4450000000	5.2445667335
0.4500000000	3.6732502632
0.4550000000	2.7062912662
0.4600000000	2.0765277549
0.4650000000	1.6473871622
0.4700000000	1.3440815946
0.4750000000	1.1247259680
0.4800000000	0.9620923720
0.4850000000	0.8397142856
0.4900000000	0.7462986524
0.4950000000	0.6742645131
0.5000000000	0.6184300191
0.5050000000	0.5749933769
0.5100000000	0.5415064192
0.5150000000	0.5161667065
0.5200000000	0.4970906992
0.5250000000	0.4834293609
0.5300000000	0.4742717129
0.5350000000	0.4689514189
0.5400000000	0.4669772113
0.5450000000	0.4679387158
0.5500000000	0.4717058356
0.5550000000	0.4780471764
0.5600000000	0.4868443544
0.5650000000	0.4980440998
0.5700000000	0.5115978110
0.5750000000	0.5276001240
0.5800000000	0.5462049157
0.5850000000	0.5675125005
0.5900000000	0.5917175107
0.5950000000	0.6190648698
0.6000000000	0.6498665639
0.6050000000	0.6845749642
0.6100000000	0.7236215322
0.6150000000	0.7675958579
0.6200000000	0.8172844385
0.6250000000	0.8734413108
0.6300000000	0.9371810648
0.6350000000	1.0098928779
0.6400000000	1.0930221344
0.6450000000	1.1886552788
0.6500000000	1.2995355556
0.6550000000	1.4285185412
0.6600000000	1.5799932818
0.6650000000	1.7595912146
0.6700000000	1.9739329998
0.6750000000	2.2331145227
0.6800000000	2.5507128676
0.6850000000	2.9445134996
0.6900000000	3.4420630272
0.6950000000	4.0818872682
0.7000000000	4.9251846349
0.7050000000	6.0655109552
0.7100000000	7.6613847496
0.7150000000	9.9949864015
0.7200000000	13.5916471530
0.7250000000	19.5618348764
0.7300000000	30.5201231918
0.7350000000	53.9675637586
0.7400000000	118.2724840592
0.7450000000	392.3629120785
0.7500000000	1215.5304541876
0.7550000000	305.7900744799
0.7600000000	101.2696321851
0.7650000000	48.5221785633
0.7700000000	28.2184971883
0.7750000000	18.4172436597
0.7800000000	12.9608686306
0.7850000000	9.6259536805
0.7900000000	7.4367652668
0.7950000000	5.9269379353
0.8000000000	4.8415831049
0.8050000000	4.0332394001
0.8100000000	3.4168350275
0.8150000000	2.9282040809
0.8200000000	2.5425643712
0.8250000000	2.2320531799
0.8300000000	1.9776968309
0.8350000000	1.7685696207
0.8400000000	1.5932607418
0.8450000000	1.4461542834
0.8500000000	1.3218071967
0.8550000000	1.2145012717
0.8600000000	1.1228979030
0.8650000000	1.0446531809
0.8700000000	0.9755177588
0.8750000000	0.9167080834
0.8800000000	0.8668066226
0.8850000000	0.8220672493
0.8900000000	0.7861782406
0.8950000000	0.7535302961
0.9000000000	0.7276551517
0.9050000000	0.7098346669
0.9100000000	0.6935038460
0.9150000000	0.6835977838
0.9200000000	0.6824052908
0.9250000000	0.6815209107
0.9300000000	0.6715237955
0.9350000000	0.6415257587
0.9400000000	0.4744101792
0.9450000000	-0.2851744469
0.9500000000	-4.2937993279
0.9550000000	-24.6261096095
0.9600000000	5.8108856991
0.9650000000	10.2076131635
0.9700000000	4.5274519861
0.9750000000	2.3768028884
0.9800000000	1.4895768062
0.9850000000	1.0746194622
0.9900000000	0.8355304772
0.9950000000	0.6905528189
1.0000000000	0.5979842045
1.0050000000	0.5392978774
1.0100000000	0.4938015163
1.0150000000	0.4605635261
1.0200000000	0.4381758739
1.0250000000	0.4193847533
1.0300000000	0.4051094446
1.0350000000	0.3943102862
1.0400000000	0.3874446173
1.0450000000	0.3817358083
1.0500000000	0.3779700231
1.0550000000	0.3759242648
1.0600000000	0.3761024319
1.0650000000	0.3771019981
1.0700000000	0.3794947709
1.0750000000	0.3832906813
1.0800000000	0.3888649516
1.0850000000	0.3959389541
1.0900000000	0.4063740641
1.0950000000	0.4187663316
1.1000000000	0.4335315378
1.1050000000	0.4505489006
1.1100000000	0.4703559235
1.1150000000	0.4933979735
1.1200000000	0.5202030061
1.1250000000	0.5514611423
1.1300000000	0.5880967723
1.1350000000	0.6312606778
1.1400000000	0.6822633106
1.1450000000	0.7434973003
1.1500000000	0.8175640829
1.1550000000	0.9082246579
1.1600000000	1.0207850941
1.1650000000	1.1621302498
1.1700000000	1.3451577581
1.1750000000	1.5869891400
1.1800000000	1.9159292975
1.1850000000	2.3785040849
1.1900000000	3.0623987584
1.1950000000	4.1359759307
1.2000000000	5.9569148385
1.2050000000	9.3980054525
1.2100000000	16.9677106013
1.2150000000	37.4285318227
1.2200000000	91.8570964879
1.2250000000	82.5278329413
1.2300000000	32.9198029805
1.2350000000	15.4398563149
1.2400000000	8.8188830633
1.2450000000	5.7788651804
1.2500000000	4.1751289755
1.2550000000	3.2495764281
1.2600000000	2.6863690938
1.2650000000	2.3335847233
1.2700000000	2.1232248491
1.2750000000	2.0112012945
1.2800000000	1.9765271978
1.2850000000	2.0100373755
1.2900000000	2.1109934417
1.2950000000	2.2846460167
1.3000000000	2.5524351182
1.3050000000	2.9418559895
1.3100000000	3.5041700391
1.3150000000	4.3280716971
1.3200000000	5.5730103000
1.3250000000	7.5428938251
1.3300000000	10.9033149358
1.3350000000	17.1974465870
1.3400000000	30.6498439527
1.3450000000	64.0456631079
1.3500000000	135.9203264336
1.3550000000	126.7653340261
1.3600000000	58.4576011392
1.3650000000	28.7223714546
1.3700000000	16.4719616025
1.3750000000	10.5929802770
1.3800000000	7.3874406919
1.3850000000	5.4564581457
1.3900000000	4.2119165879
1.3950000000	3.3628050568
1.4000000000	2.7588165259
1.4050000000	2.3152042043
1.4100000000	1.9806412230
1.4150000000	1.7244665968
1.4200000000	1.5250518149
1.4250000000	1.3766573868
1.4300000000	1.2822425991
1.4350000000	1.2198172039
1.4400000000	0.8385021649
1.4450000000	-0.2177354929
1.4500000000	-2.0557294304
1.4550000000	-0.6869691503
1.4600000000	2.0906529050
1.4650000000	1.2112071454
1.4700000000	-0.7724148697
1.4750000000	-3.9102626658
1.4800000000	-1.7250884264
1.4850000000	2.9560793812
1.4900000000	2.3930359520
1.4950000000	1.5526211623
1.5000000000	1.0931513259
1.5050000000	0.8444158689
1.5100000000	0.7020329327
1.5150000000	0.6147352596
1.5200000000	0.5575571044
1.5250000000	0.5212662931
1.5300000000	0.4926689107
1.5350000000	0.4718963773
1.5400000000	0.4568506624
1.5450000000	0.4462808319
1.5500000000	0.4393224072
1.5550000000	0.4356154909
1.5600000000	0.4359062973
1.5650000000	0.4386915135
1.5700000000	0.4455794695
1.5750000000	0.4578359911
1.5800000000	0.4779815123
1.5850000000	0.5109788598
1.5900000000	0.5673267351
1.5950000000	0.6702341800
1.6000000000	0.8686114724
1.6050000000	1.1941876886
1.6100000000	1.3459629970
1.6150000000	1.0714845715
1.6200000000	0.8169982049
1.6250000000	0.6876399131
1.6300000000	0.6282654513
1.6350000000	0.6037865106
1.6400000000	0.5983099004
1.6450000000	0.6045658543
1.6500000000	0.6190158671
1.6550000000	0.6402056993
1.6600000000	0.6673944658
1.6650000000	0.7004814587
1.6700000000	0.7397406250
1.6750000000	0.7857375807
1.6800000000	0.8392999726
1.6850000000	0.9015326497
1.6900000000	0.9737199331
1.6950000000	1.0566071014
1.7000000000	1.1520210810
1.7050000000	1.2624155452
1.7100000000	1.3962159088
1.7150000000	1.6211066028
1.7200000000	1.9607883073
1.7250000000	2.3279846133
1.7300000000	2.7646078618
1.7350000000	3.2369993645
1.7400000000	3.6730801111
1.7450000000	4.2226656198
1.7500000000	5.0651724627
1.7550000000	6.3288538095
1.7600000000	8.2247917082
1.7650000000	11.1497474756
1.7700000000	15.8615261617
1.7750000000	23.7975377316
1.7800000000	37.3139307063
1.7850000000	57.2318157164
1.7900000000	71.0766072094
1.7950000000	60.4748339205
1.8000000000	40.2089042176
1.8050000000	25.3633175567
1.8100000000	16.6994078105
1.8150000000	11.6225365465
1.8200000000	8.4983978044
1.8250000000	6.4726509231
1.8300000000	5.0964894484
1.8350000000	4.1240904023
1.8400000000	3.4143595577
1.8450000000	2.8815993724
1.8500000000	2.4717451843
1.8550000000	2.1508995263
1.8600000000	1.8952201703
1.8650000000	1.6883190248
1.8700000000	1.5182550186
1.8750000000	1.3758690851
1.8800000000	1.2533656299
1.8850000000	1.1431447586
1.8900000000	1.0358010985
1.8950000000	0.9170870867
1.9000000000	0.7628610586
1.9050000000	0.4943394604
1.9100000000	0.1087413900
1.9150000000	-0.2624060870
1.9200000000	0.1865414770
1.9250000000	1.9814852127
1.9300000000	3.4153448128
1.9350000000	3.4473818290
1.9400000000	2.7673597986
1.9450000000	2.0973564228
1.9500000000	1.6224786619
1.9550000000	1.3083683468
1.9600000000	1.0990488425
1.9650000000	0.9595715174
1.9700000000	0.8568978946
1.9750000000	0.7816090331
1.9800000000	0.7244656237
1.9850000000	0.6788418781
1.9900000000	0.6398057038
1.9950000000	0.6031763007
2.0000000000	0.5682021986
2.0050000000	0.5474064470
2.0100000000	0.5613867700
2.0150000000	0.5978442550
2.0200000000	0.6224778782
2.0250000000	0.6331871635
2.0300000000	0.6413550350
2.0350000000	0.6522482691
2.0400000000	0.6684286587
2.0450000000	0.6909836402
2.0500000000	0.7210187348
2.0550000000	0.7596332806
2.0600000000	0.8068900324
2.0650000000	0.8590168339
2.0700000000	0.9066240808
2.0750000000	0.9423790667
2.0800000000	0.9717330976
2.0850000000	1.0065329596
2.0900000000	1.0543138246
2.0950000000	1.1176872123
2.1000000000	1.1986525602
2.1050000000	1.2959887963
2.1100000000	1.4164776954
2.1150000000	1.5649799572
2.1200000000	1.7484867095
2.1250000000	1.9769178934
2.1300000000	2.2643293613
2.1350000000	2.6308319681
2.1400000000	3.1054714703
2.1450000000	3.7307038525
2.1500000000	4.5683552435
2.1550000000	5.7058719591
2.1600000000	7.2551358061
2.1650000000	9.3109607821
2.1700000000	11.8372022705
2.1750000000	14.3562550638
2.1800000000	15.9382311637
2.1850000000	16.0864432309
2.1900000000	15.4857354600
2.1950000000	15.0595582082
2.2000000000	14.9106454744
2.2050000000	14.2100017336
2.2100000000	12.6029065403
2.2150000000	10.5808177305
2.2200000000	8.7416118320
2.2250000000	7.2513116973
2.2300000000	6.0278595877
2.2350000000	5.0039526557
2.2400000000	4.1632577088
2.2450000000	3.4994303275
2.2500000000	2.9849993765
2.2550000000	2.5868583373
2.2600000000	2.2743621397
2.2650000000	2.0198887788
2.2700000000	1.7972925476
2.2750000000	1.5844789904
2.2800000000	1.3763184894
2.2850000000	1.1982265245
2.2900000000	1.0934910410
2.2950000000	1.0815142195
2.3000000000	1.1288768276
2.3050000000	1.1787866632
2.3100000000	1.1964272574
2.3150000000	1.1828944306
2.3200000000	1.1532421458
2.3250000000	1.1229424486
2.3300000000	1.1002092211
2.3350000000	1.0874407171
2.3400000000	1.0828334419
2.3450000000	1.0811397027
2.3500000000	1.0755999890
2.3550000000	1.0618961454
2.3600000000	1.0412228293
2.3650000000	1.0188471954
2.3700000000	1.0001226787
2.3750000000	0.9880246041
2.3800000000	0.9830302174
2.3850000000	0.9839434251
2.3900000000	0.9892365527
2.3950000000	0.9974457639
2.4000000000	1.0093001962
2.4050000000	1.0278947426
2.4100000000	1.0545453102
2.4150000000	1.0910683302
2.4200000000	1.1387160988
2.4250000000	1.1988312955
2.4300000000	1.2730614392
2.4350000000	1.3635186674
2.4400000000	1.4729213161
2.4450000000	1.6047550409
2.4500000000	1.7634376368
2.4550000000	1.9545430032
2.4600000000	2.1849253650
2.4650000000	2.4628473384
2.4700000000	2.7978175110
2.4750000000	3.1994232538
2.4800000000	3.6777829096
2.4850000000	4.2370995984
2.4900000000	4.8721342980
2.4950000000	5.5597230611
2.5000000000	6.2498545703
2.5050000000	6.8894910876
2.5100000000	7.3088932548
2.5150000000	7.4128471507
2.5200000000	7.1854386515
2.5250000000	6.6971970331
2.5300000000	6.0601885462
2.5350000000	5.3760779610
2.5400000000	4.7119570405
2.5450000000	4.1028353189
2.5500000000	3.5628098321
2.5550000000	3.0943014096
2.5600000000	2.6906269323
2.5650000000	2.3503170847
2.5700000000	2.0661465519
2.5750000000	1.8337495950
2.5800000000	1.6497886204
2.5850000000	1.5103252023
2.5900000000	1.4084727072
2.5950000000	1.3343469625
2.6000000000	1.2776160501
2.6050000000	1.2371360177
2.6100000000	1.2012463992
2.6150000000	1.1694657598
2.6200000000	1.1425401680
2.6250000000	1.1212343872
2.6300000000	1.1060388191
2.6350000000	1.0971883806
2.6400000000	1.0948069555
2.6450000000	1.0990202643
2.6500000000	1.1100866483
2.6550000000	1.1280639043
2.6600000000	1.1533466655
2.6650000000	1.1863102809
2.6700000000	1.2273970075
2.6750000000	1.2771238527
2.6800000000	1.3360435190
2.6850000000	1.4047220115
2.6900000000	1.4836599826
2.6950000000	1.5732406876
2.7000000000	1.6736052816
2.7050000000	1.7964974658
2.7100000000	1.9325745703
2.7150000000	2.0801764042
2.7200000000	2.2365130489
2.7250000000	2.3976168017
2.7300000000	2.5583512382
2.7350000000	2.7124289109
2.7400000000	2.8523699800
2.7450000000	2.9707102070
2.7500000000	3.0563658509
2.7550000000	3.1020000872
2.7600000000	3.1020721789
2.7650000000	3.0553618121
2.7700000000	2.9655897642
2.7750000000	2.8407901330
2.7800000000	2.6915664493
2.7850000000	2.5291967581
2.7900000000	2.3637848451
2.7950000000	2.2034292068
2.8000000000	2.0538600943
2.8050000000	1.9019368481
2.8100000000	1.7711564867
2.8150000000	1.6612261810
2.8200000000	1.5704285188
2.8250000000	1.4964803022
2.8300000000	1.4370786727
2.8350000000	1.3902632956
2.8400000000	1.3539490479
2.8450000000	1.3282625836
2.8500000000	1.3116722350
2.8550000000	1.3035987177
2.8600000000	1.3036149812
2.8650000000	1.3113587891
2.8700000000	1.3264768444
2.8750000000	1.3485656580
2.8800000000	1.3771326987
2.8850000000	1.4115535648
2.8900000000	1.4510827959
2.8950000000	1.4948374312
2.9000000000	1.5418456554
2.9050000000	1.6012913382
2.9100000000	1.6607035422
2.9150000000	1.7179608656
2.9200000000	1.7706275098
2.9250000000	1.8158928415
2.9300000000	1.8511384975
2.9350000000	1.8726927280
2.9400000000	1.8788055356
2.9450000000	1.8686219600
2.9500000000	1.8428405129
2.9550000000	1.8036537459
2.9600000000	1.7543228630
2.9650000000	1.6986026364
2.9700000000	1.6401654199
2.9750000000	1.5821779109
2.9800000000	1.5270888183
2.9850000000	1.4765904243
2.9900000000	1.4317253757
2.9950000000	1.3929994268
3.0000000000	1.3605591484
