# energy (eV)    P(omega), $W$ = 400 nm, $h$ = 300 nm, $s$ = 20 nm, $d/W = 5$, $E_{\rm e}$ = 200 keV
0.2000000000	0.0514546252
0.2050000000	0.0519226849
0.2100000000	0.0522522216
0.2150000000	0.0524376857
0.2200000000	0.0524713165
0.2250000000	0.0523425708
0.2300000000	0.0520375761
0.2350000000	0.0515382692
0.2400000000	0.0508214206
0.2450000000	0.0498570917
0.2500000000	0.0486070062
0.2550000000	0.0470219133
0.2600000000	0.0450383464
0.2650000000	0.0471166311
0.2700000000	0.0523958463
0.2750000000	0.0599502426
0.2800000000	0.0704756587
0.2850000000	0.0859928771
0.2900000000	0.1052198103
0.2950000000	0.1327832375
0.3000000000	0.1698363524
0.3050000000	0.2266299241
0.3100000000	0.3057415898
0.3150000000	0.4588191062
0.3200000000	0.6978963806
0.3250000000	0.8615787000
0.3300000000	1.0880041411
0.3350000000	1.4089946455
0.3400000000	1.9128848761
0.3450000000	2.7773987908
0.3500000000	4.5013144053
0.3550000000	8.4919643361
0.3600000000	20.8700440691
0.3650000000	0.0943051812
0.3700000000	9.6725213017
0.3750000000	12.7189904023
0.3800000000	5.9266095003
0.3850000000	3.3385119105
0.3900000000	2.1413593268
0.3950000000	1.5089707871
0.4000000000	1.1428182989
0.4050000000	0.9041125585
0.4100000000	0.7487098543
0.4150000000	0.6462131712
0.4200000000	0.5814331794
0.4250000000	0.5305567104
0.4300000000	0.4704390230
0.4350000000	0.4228594163
0.4400000000	0.3852292544
0.4450000000	0.3553088198
0.4500000000	0.3316867752
0.4550000000	0.3129551307
0.4600000000	0.2983428769
0.4650000000	0.2870345416
0.4700000000	0.2784902698
0.4750000000	0.2723323422
0.4800000000	0.2682311438
0.4850000000	0.2658976560
0.4900000000	0.2651609609
0.4950000000	0.2658895611
0.5000000000	0.2679710995
0.5050000000	0.2713554938
0.5100000000	0.2760017160
0.5150000000	0.2818853822
0.5200000000	0.2890186838
0.5250000000	0.2974116187
0.5300000000	0.3071874038
0.5350000000	0.3184008136
0.5400000000	0.3311504845
0.5450000000	0.3455657694
0.5500000000	0.3618296826
0.5550000000	0.3801424116
0.5600000000	0.4007476192
0.5650000000	0.4239586294
0.5700000000	0.4502079741
0.5750000000	0.4798162271
0.5800000000	0.5133832210
0.5850000000	0.5517285234
0.5900000000	0.5954049408
0.5950000000	0.6455757248
0.6000000000	0.7037776819
0.6050000000	0.7711626111
0.6100000000	0.8503708619
0.6150000000	0.9435919618
0.6200000000	1.0545845186
0.6250000000	1.1887408616
0.6300000000	1.3515602400
0.6350000000	1.5533762279
0.6400000000	1.8055894941
0.6450000000	2.1288881913
0.6500000000	2.5496992426
0.6550000000	3.1127872680
0.6600000000	3.8937364281
0.6650000000	5.0119630008
0.6700000000	6.7052235605
0.6750000000	9.4277287890
0.6800000000	14.2402658488
0.6850000000	23.8969248977
0.6900000000	47.8931857728
0.6950000000	134.4431228370
0.7000000000	652.0595504939
0.7050000000	317.0143838594
0.7100000000	81.4342780100
0.7150000000	34.6304156936
0.7200000000	18.9121017939
0.7250000000	11.8801747369
0.7300000000	8.1481547079
0.7350000000	5.9419732524
0.7400000000	4.5292155785
0.7450000000	3.5702920202
0.7500000000	2.8910089424
0.7550000000	2.3919596906
0.7600000000	2.0158152689
0.7650000000	1.7241207972
0.7700000000	1.4938580111
0.7750000000	1.3090001677
0.7800000000	1.1587785078
0.7850000000	1.0350864054
0.7900000000	0.9314611905
0.7950000000	0.8449151253
0.8000000000	0.7713276608
0.8050000000	0.7082820831
0.8100000000	0.6546113905
0.8150000000	0.6075712995
0.8200000000	0.5666178828
0.8250000000	0.5322507769
0.8300000000	0.5021681719
0.8350000000	0.4760157023
0.8400000000	0.4551890609
0.8450000000	0.4370166780
0.8500000000	0.4216083840
0.8550000000	0.4118687114
0.8600000000	0.4040669750
0.8650000000	0.3984807285
0.8700000000	0.4004245108
0.8750000000	0.4011048840
0.8800000000	0.3989453816
0.8850000000	0.3815989372
0.8900000000	0.2961356051
0.8950000000	-0.1321628488
0.9000000000	-2.4288116572
0.9050000000	-15.9591205387
0.9100000000	3.0389307813
0.9150000000	7.1986496085
0.9200000000	2.9882977244
0.9250000000	1.5545993192
0.9300000000	0.9489652457
0.9350000000	0.6596134084
0.9400000000	0.5035205619
0.9450000000	0.4169992689
0.9500000000	0.3555553821
0.9550000000	0.3144256189
0.9600000000	0.2889887143
0.9650000000	0.2680005451
0.9700000000	0.2530243298
0.9750000000	0.2428179767
0.9800000000	0.2366045570
0.9850000000	0.2354659540
0.9900000000	0.2377328261
0.9950000000	0.2468838443
1.0000000000	0.2687608250
1.0050000000	0.3198362951
1.0100000000	0.4536907535
1.0150000000	0.9124504322
1.0200000000	1.7523161341
1.0250000000	0.7966125173
1.0300000000	0.4079944686
1.0350000000	0.2921683330
1.0400000000	0.2466201400
1.0450000000	0.2252517047
1.0500000000	0.2145394686
1.0550000000	0.2089184723
1.0600000000	0.2063940164
1.0650000000	0.2059191957
1.0700000000	0.2069135889
1.0750000000	0.2091727746
1.0800000000	0.2122914876
1.0850000000	0.2165364365
1.0900000000	0.2226710633
1.0950000000	0.2298231749
1.1000000000	0.2380628354
1.1050000000	0.2474048646
1.1100000000	0.2579970929
1.1150000000	0.2699804514
1.1200000000	0.2835222046
1.1250000000	0.2987607722
1.1300000000	0.3160909294
1.1350000000	0.3357787833
1.1400000000	0.3582228358
1.1450000000	0.3839298296
1.1500000000	0.4132941074
1.1550000000	0.4475435023
1.1600000000	0.4874544334
1.1650000000	0.5340438567
1.1700000000	0.5875226324
1.1750000000	0.6417596890
1.1800000000	0.6930867756
1.1850000000	0.9632909919
1.1900000000	1.1954492375
1.1950000000	1.6387831808
1.2000000000	2.2319134966
1.2050000000	1.9577625177
1.2100000000	1.8736046664
1.2150000000	2.0858553287
1.2200000000	2.4946998365
1.2250000000	3.1225568594
1.2300000000	4.0772586418
1.2350000000	5.5874973760
1.2400000000	8.1314949681
1.2450000000	12.9218254215
1.2500000000	23.2963298518
1.2550000000	50.4292355848
1.2600000000	121.8076021854
1.2650000000	123.3860218532
1.2700000000	51.3260610940
1.2750000000	23.6921549786
1.2800000000	13.1211377322
1.2850000000	8.2513513024
1.2900000000	5.6555474522
1.2950000000	4.1218467019
1.3000000000	3.1449471175
1.3050000000	2.4872037164
1.3100000000	2.0233885919
1.3150000000	1.6882590939
1.3200000000	1.4398270592
1.3250000000	1.2528727711
1.3300000000	1.1120778735
1.3350000000	1.0080428161
1.3400000000	0.9358875435
1.3450000000	0.8942736425
1.3500000000	0.8892709804
1.3550000000	0.9346982619
1.3600000000	1.0657166486
1.3650000000	1.3718018477
1.3700000000	2.1027777279
1.3750000000	3.9215074832
1.3800000000	6.4054988712
1.3850000000	4.4747303009
1.3900000000	2.2803562676
1.3950000000	1.3231423827
1.4000000000	0.8665266869
1.4050000000	0.5858892284
1.4100000000	0.3318867068
1.4150000000	-0.0470366147
1.4200000000	-0.8953892386
1.4250000000	-3.1432993864
1.4300000000	-4.2263691776
1.4350000000	1.9362695351
1.4400000000	2.4767865343
1.4450000000	1.4849402695
1.4500000000	0.9239893777
1.4550000000	0.6369460893
1.4600000000	0.4703471809
1.4650000000	0.3386835792
1.4700000000	0.1978511463
1.4750000000	0.2325051903
1.4800000000	0.3408608425
1.4850000000	0.3095129926
1.4900000000	0.2740667176
1.4950000000	0.2511397691
1.5000000000	0.2360786098
1.5050000000	0.2261201710
1.5100000000	0.2193456042
1.5150000000	0.2156491534
1.5200000000	0.2129243070
1.5250000000	0.2119412486
1.5300000000	0.2127905132
1.5350000000	0.2158608201
1.5400000000	0.2221219712
1.5450000000	0.2337277552
1.5500000000	0.2555190873
1.5550000000	0.2971452842
1.5600000000	0.3596290928
1.5650000000	0.3696428351
1.5700000000	0.3132573225
1.5750000000	0.2736903911
1.5800000000	0.2566218513
1.5850000000	0.2512513754
1.5900000000	0.2519477344
1.5950000000	0.2562654244
1.6000000000	0.2631390046
1.6050000000	0.2722016813
1.6100000000	0.2831795678
1.6150000000	0.2960318796
1.6200000000	0.3109633479
1.6250000000	0.3281505872
1.6300000000	0.3478838688
1.6350000000	0.3705374121
1.6400000000	0.3965897422
1.6450000000	0.4266520299
1.6500000000	0.4614914389
1.6550000000	0.5020801818
1.6600000000	0.5496778600
1.6650000000	0.6059103500
1.6700000000	0.6723585082
1.6750000000	0.7529017891
1.6800000000	0.8509693063
1.6850000000	0.9719556865
1.6900000000	1.1235202945
1.6950000000	1.3169029632
1.7000000000	1.5690239628
1.7050000000	1.9168316409
1.7100000000	2.4020852211
1.7150000000	3.1074116066
1.7200000000	4.1823529558
1.7250000000	5.8877049268
1.7300000000	8.5083648483
1.7350000000	11.8715244224
1.7400000000	16.1230927903
1.7450000000	23.5838873839
1.7500000000	33.2686852902
1.7550000000	33.8038593003
1.7600000000	23.7155638982
1.7650000000	14.7725845286
1.7700000000	9.4698072873
1.7750000000	6.4544525294
1.7800000000	4.6725066508
1.7850000000	3.5763892730
1.7900000000	2.8966302752
1.7950000000	2.5076807069
1.8000000000	2.3506907865
1.8050000000	2.3009880158
1.8100000000	2.0472176254
1.8150000000	1.5863002467
1.8200000000	1.2180589976
1.8250000000	1.0281947705
1.8300000000	0.8951497882
1.8350000000	0.7769098299
1.8400000000	0.6804939794
1.8450000000	0.6039819205
1.8500000000	0.5423211708
1.8550000000	0.4913823192
1.8600000000	0.4445254181
1.8650000000	0.4049119788
1.8700000000	0.3648762579
1.8750000000	0.3071615845
1.8800000000	0.1756038091
1.8850000000	-0.1127288831
1.8900000000	-0.5005534254
1.8950000000	-0.5670959903
1.9000000000	0.0606845134
1.9050000000	0.6459991176
1.9100000000	0.7142977562
1.9150000000	0.6034490957
1.9200000000	0.4948071690
1.9250000000	0.4177144546
1.9300000000	0.3710267538
1.9350000000	0.3353825913
1.9400000000	0.3116710088
1.9450000000	0.2959749991
1.9500000000	0.2850038102
1.9550000000	0.2758236146
1.9600000000	0.2678971201
1.9650000000	0.2622686026
1.9700000000	0.2592628150
1.9750000000	0.2586797687
1.9800000000	0.2603573547
1.9850000000	0.2643442705
1.9900000000	0.2709022566
1.9950000000	0.2803587415
2.0000000000	0.2924677994
2.0050000000	0.3062048374
2.0100000000	0.3160587687
2.0150000000	0.3226309683
2.0200000000	0.3305558164
2.0250000000	0.3427883327
2.0300000000	0.3601981201
2.0350000000	0.3832205013
2.0400000000	0.4126459476
2.0450000000	0.4498460191
2.0500000000	0.4967905385
2.0550000000	0.5556685627
2.0600000000	0.6275417875
2.0650000000	0.7112802202
2.0700000000	0.8081417286
2.0750000000	0.9289314884
2.0800000000	1.0914887250
2.0850000000	1.3132068250
2.0900000000	1.6042012932
2.0950000000	1.9435654947
2.1000000000	2.2460340527
2.1050000000	2.3925998767
2.1100000000	2.3229992627
2.1150000000	2.1628372734
2.1200000000	2.0496340138
2.1250000000	2.0448064908
2.1300000000	2.1665760431
2.1350000000	2.4293848362
2.1400000000	2.8621597295
2.1450000000	3.5160766731
2.1500000000	4.4627988129
2.1550000000	5.7561563132
2.1600000000	7.2918485046
2.1650000000	8.5825707800
2.1700000000	8.8875495996
2.1750000000	7.9557934119
2.1800000000	6.4229210063
2.1850000000	4.9555850019
2.1900000000	3.8083457224
2.1950000000	2.9794999988
2.2000000000	2.3979967119
2.2050000000	1.9968084345
2.2100000000	1.7183024941
2.2150000000	1.5046858432
2.2200000000	1.3132710914
2.2250000000	1.1312040199
2.2300000000	0.9663545592
2.2350000000	0.8248084302
2.2400000000	0.7049239024
2.2450000000	0.6014082420
2.2500000000	0.5089931837
2.2550000000	0.4247323159
2.2600000000	0.3404698952
2.2650000000	0.2791710428
2.2700000000	0.2458734494
2.2750000000	0.2542557370
2.2800000000	0.3026178097
2.2850000000	0.3642013977
2.2900000000	0.4092792716
2.2950000000	0.4292583201
2.3000000000	0.4315433640
2.3050000000	0.4246493418
2.3100000000	0.4155681237
2.3150000000	0.4075215258
2.3200000000	0.4017833246
2.3250000000	0.3990530998
2.3300000000	0.3998969050
2.3350000000	0.4047836360
2.3400000000	0.4141138414
2.3450000000	0.4282927911
2.3500000000	0.4477498319
2.3550000000	0.4731286135
2.3600000000	0.5040124106
2.3650000000	0.5405933571
2.3700000000	0.5827697125
2.3750000000	0.6309993147
2.3800000000	0.6870231385
2.3850000000	0.7529070086
2.3900000000	0.8291077389
2.3950000000	0.9122322505
2.4000000000	0.9935577445
2.4050000000	1.0636424119
2.4100000000	1.1024887460
2.4150000000	1.1062021400
2.4200000000	1.0842797636
2.4250000000	1.0529168019
2.4300000000	1.0264868434
2.4350000000	1.0136664545
2.4400000000	1.0179180082
2.4450000000	1.0398009761
2.4500000000	1.0793853406
2.4550000000	1.1375531671
2.4600000000	1.2180335679
2.4650000000	1.3246493222
2.4700000000	1.4616573690
2.4750000000	1.6317164797
2.4800000000	1.8334848972
2.4850000000	2.0583536940
2.4900000000	2.2866301395
2.4950000000	2.4856351963
2.5000000000	2.6144758438
2.5050000000	2.6310395866
2.5100000000	2.5185112414
2.5150000000	2.3076056052
2.5200000000	2.0473995010
2.5250000000	1.7810082427
2.5300000000	1.5347132533
2.5350000000	1.3195571066
2.5400000000	1.1371655002
2.5450000000	0.9848323491
2.5500000000	0.8586361265
2.5550000000	0.7550533815
2.5600000000	0.6684405551
2.5650000000	0.6036213377
2.5700000000	0.5570468997
2.5750000000	0.5270562624
2.5800000000	0.5103205583
2.5850000000	0.5022869942
2.5900000000	0.4986828739
2.5950000000	0.4968476233
2.6000000000	0.4959233857
2.6050000000	0.4998777969
2.6100000000	0.5061431486
2.6150000000	0.5156787702
2.6200000000	0.5289943445
2.6250000000	0.5461212731
2.6300000000	0.5665761190
2.6350000000	0.5893328386
2.6400000000	0.6128236978
2.6450000000	0.6350606864
2.6500000000	0.6539383955
2.6550000000	0.6677306105
2.6600000000	0.6756354885
2.6650000000	0.6781240108
2.6700000000	0.6768403457
2.6750000000	0.6741878724
2.6800000000	0.6724954330
2.6850000000	0.6739388586
2.6900000000	0.6800334092
2.6950000000	0.6917102978
2.7000000000	0.7094160128
2.7050000000	0.7359194260
2.7100000000	0.7700283297
2.7150000000	0.8111912826
2.7200000000	0.8582684010
2.7250000000	0.9093247033
2.7300000000	0.9614389894
2.7350000000	1.0106728760
2.7400000000	1.0523417112
2.7450000000	1.0816889783
2.7500000000	1.0948808642
2.7550000000	1.0899858187
2.7600000000	1.0674973511
2.7650000000	1.0301558616
2.7700000000	0.9821547733
2.7750000000	0.9281401128
2.7800000000	0.8723721077
2.7850000000	0.8182588251
2.7900000000	0.7677760783
2.7950000000	0.7230859632
2.8000000000	0.6846357656
2.8050000000	0.6490237309
2.8100000000	0.6209460898
2.8150000000	0.5992974540
2.8200000000	0.5828769928
2.8250000000	0.5705827823
2.8300000000	0.5614782799
2.8350000000	0.5547866564
2.8400000000	0.5498515069
2.8450000000	0.5461155361
2.8500000000	0.5431312388
2.8550000000	0.5406015355
2.8600000000	0.5384258517
2.8650000000	0.5367149736
2.8700000000	0.5357629051
2.8750000000	0.5359740056
2.8800000000	0.5377734532
2.8850000000	0.5415264801
2.8900000000	0.5474821379
2.8950000000	0.5557393769
2.9000000000	0.5662303617
2.9050000000	0.5819227575
2.9100000000	0.5991313483
2.9150000000	0.6167071827
2.9200000000	0.6331982331
2.9250000000	0.6470446699
2.9300000000	0.6567982347
2.9350000000	0.6613760806
2.9400000000	0.6602703211
2.9450000000	0.6536450136
2.9500000000	0.6422748172
2.9550000000	0.6273475535
2.9600000000	0.6102138588
2.9650000000	0.5921530891
2.9700000000	0.5742173720
2.9750000000	0.5571633887
2.9800000000	0.5414569980
2.9850000000	0.5273235429
2.9900000000	0.5148154286
2.9950000000	0.5038778106
3.0000000000	0.4944022040
