# energy (eV)    P(omega), $W$ = 300 nm, $h$ = 300 nm, $s$ = 20 nm, $d/W = 5$, $E_{\rm e}$ = 200 keV
0.2000000000	0.2046509175
0.2050000000	0.2077694956
0.2100000000	0.2106683793
0.2150000000	0.2133548744
0.2200000000	0.2158355720
0.2250000000	0.2181159012
0.2300000000	0.2202001902
0.2350000000	0.2220914502
0.2400000000	0.2237912002
0.2450000000	0.2252991931
0.2500000000	0.2266132141
0.2550000000	0.2277285171
0.2600000000	0.2286377457
0.2650000000	0.2293299714
0.2700000000	0.2297903429
0.2750000000	0.2299989955
0.2800000000	0.2299300110
0.2850000000	0.2295499592
0.2900000000	0.2288160774
0.2950000000	0.2276738861
0.3000000000	0.2260538582
0.3050000000	0.2238673839
0.3100000000	0.2210009712
0.3150000000	0.2340096013
0.3200000000	0.2494581591
0.3250000000	0.2690104134
0.3300000000	0.2952183690
0.3350000000	0.3278311047
0.3400000000	0.3705363485
0.3450000000	0.4222891855
0.3500000000	0.4899632910
0.3550000000	0.5794631741
0.3600000000	0.6962353159
0.3650000000	0.8589468911
0.3700000000	1.0732837995
0.3750000000	1.3712046347
0.3800000000	1.8017671570
0.3850000000	2.4722421180
0.3900000000	3.5306295099
0.3950000000	5.3270738202
0.4000000000	8.7493719496
0.4050000000	16.4168481362
0.4100000000	37.3230621091
0.4150000000	119.6669959817
0.4200000000	76.2961003566
0.4250000000	-143.2223417383
0.4300000000	39.7505537802
0.4350000000	24.7395847791
0.4400000000	15.1015174000
0.4450000000	9.9172257501
0.4500000000	6.9347621233
0.4550000000	5.1005148527
0.4600000000	3.9065715538
0.4650000000	3.0933986859
0.4700000000	2.5189214836
0.4750000000	2.1035830130
0.4800000000	1.7957036295
0.4850000000	1.5640308952
0.4900000000	1.3871433595
0.4950000000	1.2506668508
0.5000000000	1.1447744412
0.5050000000	1.0622635574
0.5100000000	0.9984886363
0.5150000000	0.9500262709
0.5200000000	0.9133200986
0.5250000000	0.8867487041
0.5300000000	0.8685878690
0.5350000000	0.8575711945
0.5400000000	0.8527638425
0.5450000000	0.8533852672
0.5500000000	0.8591733374
0.5550000000	0.8696833388
0.5600000000	0.8846784015
0.5650000000	0.9040456713
0.5700000000	0.9276761987
0.5750000000	0.9557317031
0.5800000000	0.9884735638
0.5850000000	1.0260691695
0.5900000000	1.0688537426
0.5950000000	1.1172566350
0.6000000000	1.1718224627
0.6050000000	1.2333546889
0.6100000000	1.3026097815
0.6150000000	1.3806295515
0.6200000000	1.4688047154
0.6250000000	1.5684671363
0.6300000000	1.6815895963
0.6350000000	1.8106298695
0.6400000000	1.9581422294
0.6450000000	2.1278196780
0.6500000000	2.3245139873
0.6550000000	2.5532730596
0.6600000000	2.8218620753
0.6650000000	3.1402340822
0.6700000000	3.5200886235
0.6750000000	3.9792756600
0.6800000000	4.5417874907
0.6850000000	5.2390426992
0.6900000000	6.1197002753
0.6950000000	7.2517986422
0.7000000000	8.7433985011
0.7050000000	10.7596547905
0.7100000000	13.5803503112
0.7150000000	17.7034628249
0.7200000000	24.0558219986
0.7250000000	34.5962461331
0.7300000000	53.9357523778
0.7350000000	95.3000391932
0.7400000000	208.6955948908
0.7450000000	691.8083907530
0.7500000000	2141.5656274635
0.7550000000	538.3389391049
0.7600000000	178.1464263417
0.7650000000	85.2909485367
0.7700000000	49.5632940605
0.7750000000	32.3231640997
0.7800000000	22.7292575012
0.7850000000	16.8677002789
0.7900000000	13.0213460752
0.7950000000	10.3695858204
0.8000000000	8.4640235820
0.8050000000	7.0453178250
0.8100000000	5.9638605594
0.8150000000	5.1069349683
0.8200000000	4.4308410759
0.8250000000	3.8866297417
0.8300000000	3.4409871494
0.8350000000	3.0746748326
0.8400000000	2.7676859822
0.8450000000	2.5101399513
0.8500000000	2.2924654056
0.8550000000	2.1046756851
0.8600000000	1.9443729893
0.8650000000	1.8074284468
0.8700000000	1.6864600091
0.8750000000	1.5835120249
0.8800000000	1.4960917521
0.8850000000	1.4177219964
0.8900000000	1.3547055708
0.8950000000	1.2973841185
0.9000000000	1.2517872927
0.9050000000	1.2200723311
0.9100000000	1.1909875702
0.9150000000	1.1729547380
0.9200000000	1.1698505834
0.9250000000	1.1673382980
0.9300000000	1.1494416397
0.9350000000	1.0978268461
0.9400000000	0.8141336556
0.9450000000	-0.4718311333
0.9500000000	-7.2510915976
0.9550000000	-41.6103916322
0.9600000000	9.8139419857
0.9650000000	17.2256302573
0.9700000000	7.6366477920
0.9750000000	4.0085537183
0.9800000000	2.5126049380
0.9850000000	1.8131298755
0.9900000000	1.4102965466
0.9950000000	1.1661004448
1.0000000000	1.0102011589
1.0050000000	0.9113202928
1.0100000000	0.8347375061
1.0150000000	0.7788124724
1.0200000000	0.7411212684
1.0250000000	0.7095552075
1.0300000000	0.6856162107
1.0350000000	0.6675572954
1.0400000000	0.6561139043
1.0450000000	0.6466877099
1.0500000000	0.6405731996
1.0550000000	0.6373978441
1.0600000000	0.6379847750
1.0650000000	0.6400400957
1.0700000000	0.6445053227
1.0750000000	0.6514001656
1.0800000000	0.6613460719
1.0850000000	0.6739580951
1.0900000000	0.6924424608
1.0950000000	0.7143658953
1.1000000000	0.7404411391
1.1050000000	0.7705438357
1.1100000000	0.8055974951
1.1150000000	0.8463984635
1.1200000000	0.8938614690
1.1250000000	0.9493084193
1.1300000000	1.0143618963
1.1350000000	1.0910924102
1.1400000000	1.1818249065
1.1450000000	1.2909400703
1.1500000000	1.4230895741
1.1550000000	1.5850492028
1.1600000000	1.7863791421
1.1650000000	2.0394517039
1.1700000000	2.3675945600
1.1750000000	2.8016427263
1.1800000000	3.3926179524
1.1850000000	4.2244202586
1.1900000000	5.4549920864
1.1950000000	7.3879792769
1.2000000000	10.6679006341
1.2050000000	16.8673185298
1.2100000000	30.5048809753
1.2150000000	67.3575413516
1.2200000000	165.3340217440
1.2250000000	148.4036537146
1.2300000000	59.0643303614
1.2350000000	27.5971554178
1.2400000000	15.6761541796
1.2450000000	10.1965315964
1.2500000000	7.2983299417
1.2550000000	5.6170513537
1.2600000000	4.5840166831
1.2650000000	3.9254391419
1.2700000000	3.5176920019
1.2750000000	3.2804197962
1.2800000000	3.1741205454
1.2850000000	3.1798973765
1.2900000000	3.2929325182
1.2950000000	3.5182173810
1.3000000000	3.8859823729
1.3050000000	4.4344801751
1.3100000000	5.2374219461
1.3150000000	6.4229551283
1.3200000000	8.2223973687
1.3250000000	11.0759497779
1.3300000000	15.9508117873
1.3350000000	25.0863929395
1.3400000000	44.6133240344
1.3450000000	93.0781858520
1.3500000000	197.3268110821
1.3550000000	183.9126491911
1.3600000000	84.7800045699
1.3650000000	41.6512974632
1.3700000000	23.8885736654
1.3750000000	15.3657716566
1.3800000000	10.7189652645
1.3850000000	7.9194568536
1.3900000000	6.1143398886
1.3950000000	4.8821268017
1.4000000000	4.0043695986
1.4050000000	3.3580537893
1.4100000000	2.8680159339
1.4150000000	2.4882277746
1.4200000000	2.1844438995
1.4250000000	1.9412000169
1.4300000000	1.7445842282
1.4350000000	1.5449055957
1.4400000000	0.9117731119
1.4450000000	-0.7281492790
1.4500000000	-3.7275590227
1.4550000000	-1.3531792874
1.4600000000	3.4032429907
1.4650000000	2.0702071534
1.4700000000	-0.8866764880
1.4750000000	-5.4081581041
1.4800000000	-2.3576515078
1.4850000000	4.2437920981
1.4900000000	3.4332552294
1.4950000000	2.2368618367
1.5000000000	1.5820041301
1.5050000000	1.2262649429
1.5100000000	1.0223178984
1.5150000000	0.8967818037
1.5200000000	0.8142000775
1.5250000000	0.7616253167
1.5300000000	0.7198471992
1.5350000000	0.6892557613
1.5400000000	0.6668341711
1.5450000000	0.6507382046
1.5500000000	0.6397560595
1.5550000000	0.6332717594
1.5600000000	0.6323037215
1.5650000000	0.6344829447
1.5700000000	0.6419346033
1.5750000000	0.6560840842
1.5800000000	0.6798312213
1.5850000000	0.7188902351
1.5900000000	0.7853151694
1.5950000000	0.9055948155
1.6000000000	1.1349278477
1.6050000000	1.5061112666
1.6100000000	1.6708988620
1.6150000000	1.3524803885
1.6200000000	1.0646769639
1.6250000000	0.9221974235
1.6300000000	0.8602203116
1.6350000000	0.8384316389
1.6400000000	0.8387844274
1.6450000000	0.8531213233
1.6500000000	0.8775959170
1.6550000000	0.9106119117
1.6600000000	0.9515600391
1.6650000000	1.0005315008
1.6700000000	1.0580920017
1.6750000000	1.1252144372
1.6800000000	1.2032741897
1.6850000000	1.2941006812
1.6900000000	1.4000387906
1.6950000000	1.5233201869
1.7000000000	1.6686525468
1.7050000000	1.8446244184
1.7100000000	2.0613967276
1.7150000000	2.3689783156
1.7200000000	2.7949458511
1.7250000000	3.3114400691
1.7300000000	3.9602043342
1.7350000000	4.6535211062
1.7400000000	5.2656757716
1.7450000000	6.0269126549
1.7500000000	7.2078731798
1.7550000000	8.9905650086
1.7600000000	11.6711923791
1.7650000000	15.8092155101
1.7700000000	22.4749062030
1.7750000000	33.6982947795
1.7800000000	52.8041204075
1.7850000000	80.9357155283
1.7900000000	100.4419725990
1.7950000000	85.3931633491
1.8000000000	56.7276176825
1.8050000000	35.7484966536
1.8100000000	23.5115078908
1.8150000000	16.3435268930
1.8200000000	11.9336130006
1.8250000000	9.0743607450
1.8300000000	7.1316905788
1.8350000000	5.7583690310
1.8400000000	4.7551405362
1.8450000000	4.0008858661
1.8500000000	3.4191657089
1.8550000000	2.9620254345
1.8600000000	2.5955528191
1.8650000000	2.2963136742
1.8700000000	2.0470068207
1.8750000000	1.8340668500
1.8800000000	1.6455649377
1.8850000000	1.4694023136
1.8900000000	1.2902025220
1.8950000000	1.0845844938
1.9000000000	0.8131990430
1.9050000000	0.3512943028
1.9100000000	-0.3194420550
1.9150000000	-1.0419386930
1.9200000000	-0.7195976317
1.9250000000	1.3894214895
1.9300000000	3.0835284987
1.9350000000	3.2212753643
1.9400000000	2.6555969384
1.9450000000	2.0839698525
1.9500000000	1.6729313235
1.9550000000	1.3971392285
1.9600000000	1.2110581561
1.9650000000	1.0878650056
1.9700000000	0.9945662135
1.9750000000	0.9260924780
1.9800000000	0.8745190105
1.9850000000	0.8342478795
1.9900000000	0.8012903831
1.9950000000	0.7724159994
2.0000000000	0.7468453240
2.0050000000	0.7338261939
2.0100000000	0.7457926678
2.0150000000	0.7743864363
2.0200000000	0.7969003329
2.0250000000	0.8122610962
2.0300000000	0.8286665251
2.0350000000	0.8496515490
2.0400000000	0.8779161337
2.0450000000	0.9152178750
2.0500000000	0.9636697269
2.0550000000	1.0254148256
2.0600000000	1.1005560034
2.0650000000	1.1819608647
2.0700000000	1.2519333140
2.0750000000	1.2964189459
2.0800000000	1.3250147203
2.0850000000	1.3591537364
2.0900000000	1.4121058593
2.0950000000	1.4879290831
2.1000000000	1.5888095404
2.1050000000	1.7124443194
2.1100000000	1.8674584502
2.1150000000	2.0598407921
2.1200000000	2.2984785256
2.1250000000	2.5961460403
2.1300000000	2.9710571341
2.1350000000	3.4493361368
2.1400000000	4.0687431132
2.1450000000	4.8844727806
2.1500000000	5.9768721646
2.1550000000	7.4595050209
2.1600000000	9.4775718620
2.1650000000	12.1538677857
2.1700000000	15.4418998134
2.1750000000	18.7234468683
2.1800000000	20.7983985713
2.1850000000	21.0322683122
2.1900000000	20.3184235776
2.1950000000	19.8446745145
2.2000000000	19.7084979364
2.2050000000	18.7608522882
2.2100000000	16.5200160062
2.2150000000	13.6735109027
2.2200000000	11.0689924161
2.2250000000	8.9829383551
2.2300000000	7.3411082314
2.2350000000	6.0371241883
2.2400000000	5.0025956271
2.2450000000	4.1951329686
2.2500000000	3.5653987343
2.2550000000	3.0685284810
2.2600000000	2.6670787632
2.2650000000	2.3298992280
2.2700000000	2.0308233811
2.2750000000	1.7514935853
2.2800000000	1.4932218564
2.2850000000	1.2884315469
2.2900000000	1.1851397447
2.2950000000	1.1998894665
2.3000000000	1.2852963514
2.3050000000	1.3687580070
2.3100000000	1.4047919705
2.3150000000	1.3957060395
2.3200000000	1.3614121683
2.3250000000	1.3222385505
2.3300000000	1.2891711218
2.3350000000	1.2660187616
2.3400000000	1.2519964535
2.3450000000	1.2430353801
2.3500000000	1.2337024740
2.3550000000	1.2205236918
2.3600000000	1.2044629736
2.3650000000	1.1897351702
2.3700000000	1.1805184771
2.3750000000	1.1788539856
2.3800000000	1.1843928662
2.3850000000	1.1950364033
2.3900000000	1.2084472804
2.3950000000	1.2226267449
2.4000000000	1.2387676277
2.4050000000	1.2613148249
2.4100000000	1.2925268741
2.4150000000	1.3352689955
2.4200000000	1.3914905692
2.4250000000	1.4629647230
2.4300000000	1.5516800871
2.4350000000	1.6601291576
2.4400000000	1.7915188089
2.4450000000	1.9499862827
2.4500000000	2.1407969978
2.4550000000	2.3706124065
2.4600000000	2.6476582507
2.4650000000	2.9818880041
2.4700000000	3.3848298077
2.4750000000	3.8682205711
2.4800000000	4.4447546998
2.4850000000	5.1201405698
2.4900000000	5.8887892979
2.4950000000	6.7229002682
2.5000000000	7.5607067625
2.5050000000	8.3350374188
2.5100000000	8.8352679506
2.5150000000	8.9447691893
2.5200000000	8.6484681771
2.5250000000	8.0390768824
2.5300000000	7.2576349507
2.5350000000	6.4278464200
2.5400000000	5.6280580623
2.5450000000	4.8969870936
2.5500000000	4.2490997332
2.5550000000	3.6862328082
2.5600000000	3.2002207213
2.5650000000	2.7899999637
2.5700000000	2.4473876063
2.5750000000	2.1675404948
2.5800000000	1.9466757941
2.5850000000	1.7801065014
2.5900000000	1.6593703342
2.5950000000	1.5722158706
2.6000000000	1.5058287784
2.6050000000	1.4584798358
2.6100000000	1.4159632516
2.6150000000	1.3777566304
2.6200000000	1.3448153629
2.6250000000	1.3180788311
2.6300000000	1.2981145018
2.6350000000	1.2851684688
2.6400000000	1.2793697538
2.6450000000	1.2808636866
2.6500000000	1.2899625077
2.6550000000	1.3067181016
2.6600000000	1.3315696008
2.6650000000	1.3649048221
2.6700000000	1.4071810085
2.6750000000	1.4589408629
2.6800000000	1.5207885315
2.6850000000	1.5933840732
2.6900000000	1.6773655556
2.6950000000	1.7733114261
2.7000000000	1.8816229259
2.7050000000	2.0153425787
2.7100000000	2.1652197434
2.7150000000	2.3302277862
2.7200000000	2.5081452288
2.7250000000	2.6952697386
2.7300000000	2.8861530817
2.7350000000	3.0733719598
2.7400000000	3.2474058071
2.7450000000	3.3982019143
2.7500000000	3.5111694464
2.7550000000	3.5762840675
2.7600000000	3.5860170001
2.7650000000	3.5384303836
2.7700000000	3.4378607465
2.7750000000	3.2940387333
2.7800000000	3.1198711961
2.7850000000	2.9290888749
2.7900000000	2.7339581193
2.7950000000	2.5443001171
2.8000000000	2.3670418562
2.8050000000	2.1867945832
2.8100000000	2.0311961592
2.8150000000	1.8998920299
2.8200000000	1.7908184328
2.8250000000	1.7012325254
2.8300000000	1.6283828290
2.8350000000	1.5699243597
2.8400000000	1.5233641776
2.8450000000	1.4888704733
2.8500000000	1.4646162383
2.8550000000	1.4499208094
2.8600000000	1.4443026358
2.8650000000	1.4473813408
2.8700000000	1.4588183733
2.8750000000	1.4782674209
2.8800000000	1.5053280453
2.8850000000	1.5395021417
2.8900000000	1.5801766073
2.8950000000	1.6266024731
2.9000000000	1.6778911203
2.9050000000	1.7452702901
2.9100000000	1.8144522628
2.9150000000	1.8827688916
2.9200000000	1.9470112423
2.9250000000	2.0034584841
2.9300000000	2.0486134734
2.9350000000	2.0778209733
2.9400000000	2.0887486572
2.9450000000	2.0802019006
2.9500000000	2.0528830044
2.9550000000	2.0092849780
2.9600000000	1.9532057433
2.9650000000	1.8890513044
2.9700000000	1.8211454067
2.9750000000	1.7532396749
2.9800000000	1.6882438591
2.9850000000	1.6281879051
2.9900000000	1.5743209878
2.9950000000	1.5272796641
3.0000000000	1.4872692143
