# energy (eV)    P(omega), $W$ = 300 nm, $h$ = 300 nm, $s$ = 20 nm, $d/W = 5$, $E_{\rm e}$ = 200 keV
0.2000000000	0.1814115840
0.2050000000	0.1841300987
0.2100000000	0.1866720051
0.2150000000	0.1890430577
0.2200000000	0.1912481602
0.2250000000	0.1932914808
0.2300000000	0.1951762000
0.2350000000	0.1969044264
0.2400000000	0.1984769512
0.2450000000	0.1998931701
0.2500000000	0.2011507458
0.2550000000	0.2022452203
0.2600000000	0.2031699090
0.2650000000	0.2039151015
0.2700000000	0.2044676489
0.2750000000	0.2048101251
0.2800000000	0.2049199107
0.2850000000	0.2047679266
0.2900000000	0.2043169231
0.2950000000	0.2035196398
0.3000000000	0.2023157036
0.3050000000	0.2006281840
0.3100000000	0.1983585896
0.3150000000	0.2096335054
0.3200000000	0.2230239105
0.3250000000	0.2399600185
0.3300000000	0.2626410276
0.3350000000	0.2908730979
0.3400000000	0.3278434195
0.3450000000	0.3726849088
0.3500000000	0.4313446378
0.3550000000	0.5089609527
0.3600000000	0.6103024255
0.3650000000	0.7515810421
0.3700000000	0.9378632496
0.3750000000	1.1969840667
0.3800000000	1.5717400941
0.3850000000	2.1556731244
0.3900000000	3.0781449061
0.3950000000	4.6450523019
0.4000000000	7.6321015203
0.4050000000	14.3289303186
0.4100000000	32.6018930922
0.4150000000	104.6265689089
0.4200000000	66.6626083760
0.4250000000	-125.4754352343
0.4300000000	34.8909823681
0.4350000000	21.7423602782
0.4400000000	13.2909296521
0.4450000000	8.7416553194
0.4500000000	6.1227701599
0.4550000000	4.5111362471
0.4600000000	3.4614950646
0.4650000000	2.7462287718
0.4700000000	2.2406923090
0.4750000000	1.8750774057
0.4800000000	1.6040038051
0.4850000000	1.4000270046
0.4900000000	1.2443247896
0.4950000000	1.1242618297
0.5000000000	1.0312014586
0.5050000000	0.9588070653
0.5100000000	0.9029982611
0.5150000000	0.8607710058
0.5200000000	0.8289856891
0.5250000000	0.8062273988
0.5300000000	0.7909777097
0.5350000000	0.7821260829
0.5400000000	0.7788537736
0.5450000000	0.7804768133
0.5500000000	0.7867786518
0.5550000000	0.7973736952
0.5600000000	0.8120648378
0.5650000000	0.8307634932
0.5700000000	0.8533889295
0.5750000000	0.8800991962
0.5800000000	0.9111512342
0.5850000000	0.9467126671
0.5900000000	0.9871084249
0.5950000000	1.0327473285
0.6000000000	1.0841501487
0.6050000000	1.1420717761
0.6100000000	1.2072323724
0.6150000000	1.2806158944
0.6200000000	1.3635348846
0.6250000000	1.4572477633
0.6300000000	1.5636145979
0.6350000000	1.6849536984
0.6400000000	1.8236772524
0.6450000000	1.9832671667
0.6500000000	2.1683014943
0.6550000000	2.3835458551
0.6600000000	2.6363247887
0.6650000000	2.9360365391
0.6700000000	3.2937300338
0.6750000000	3.7262541842
0.6800000000	4.2562670271
0.6850000000	4.9134505985
0.6900000000	5.7437768862
0.6950000000	6.8115415094
0.7000000000	8.2188778058
0.7050000000	10.1219212811
0.7100000000	12.7852242023
0.7150000000	16.6797198999
0.7200000000	22.6821417454
0.7250000000	32.6457721683
0.7300000000	50.9341395905
0.7350000000	90.0659873554
0.7400000000	197.3862879616
0.7450000000	654.8267885328
0.7500000000	2028.6611964621
0.7550000000	510.3548131563
0.7600000000	169.0180893561
0.7650000000	80.9840195964
0.7700000000	47.0975138994
0.7750000000	30.7392836082
0.7800000000	21.6325745943
0.7850000000	16.0665572723
0.7900000000	12.4127513685
0.7950000000	9.8928006285
0.8000000000	8.0812980506
0.8050000000	6.7321312530
0.8100000000	5.7033153348
0.8150000000	4.8877555284
0.8200000000	4.2440924609
0.8250000000	3.7258220757
0.8300000000	3.3012770420
0.8350000000	2.9522223529
0.8400000000	2.6596125592
0.8450000000	2.4140749275
0.8500000000	2.2065248572
0.8550000000	2.0274177001
0.8600000000	1.8745199280
0.8650000000	1.7439195938
0.8700000000	1.6285233747
0.8750000000	1.5303627489
0.8800000000	1.4470717954
0.8850000000	1.3723968384
0.8900000000	1.3124959632
0.8950000000	1.2580045772
0.9000000000	1.2148194980
0.9050000000	1.1850813813
0.9100000000	1.1578294604
0.9150000000	1.1413037699
0.9200000000	1.1393262569
0.9250000000	1.1378625090
0.9300000000	1.1211815858
0.9350000000	1.0711009280
0.9400000000	0.7920557075
0.9450000000	-0.4763266182
0.9500000000	-7.1701750327
0.9550000000	-41.1226643590
0.9600000000	9.7035139833
0.9650000000	17.0457515137
0.9700000000	7.5604562259
0.9750000000	3.9690588176
0.9800000000	2.4874592137
0.9850000000	1.7945101947
0.9900000000	1.3952467479
0.9950000000	1.1531426216
1.0000000000	0.9985584711
1.0050000000	0.9005564807
1.0100000000	0.8245801191
1.0150000000	0.7690745001
1.0200000000	0.7316888533
1.0250000000	0.7003085229
1.0300000000	0.6764691984
1.0350000000	0.6584346220
1.0400000000	0.6469689550
1.0450000000	0.6374345035
1.0500000000	0.6311444759
1.0550000000	0.6277264625
1.0600000000	0.6280222116
1.0650000000	0.6296888753
1.0700000000	0.6336815778
1.0750000000	0.6400169366
1.0800000000	0.6493216485
1.0850000000	0.6611295949
1.0900000000	0.6785485511
1.0950000000	0.6992347102
1.1000000000	0.7238823381
1.1050000000	0.7522889821
1.1100000000	0.7853521783
1.1150000000	0.8238152745
1.1200000000	0.8685597957
1.1250000000	0.9207367947
1.1300000000	0.9818894992
1.1350000000	1.0539385931
1.1400000000	1.1390715852
1.1450000000	1.2412810702
1.1500000000	1.3649092473
1.1550000000	1.5162332416
1.1600000000	1.7041089425
1.1650000000	1.9400276671
1.1700000000	2.2455147319
1.1750000000	2.6491465765
1.1800000000	3.1981640052
1.1850000000	3.9702193827
1.1900000000	5.1116617514
1.1950000000	6.9034890820
1.2000000000	9.9426767731
1.2050000000	15.6859355042
1.2100000000	28.3199735511
1.2150000000	62.4698009573
1.2200000000	153.3138115660
1.2250000000	137.7446339829
1.2300000000	54.9468105308
1.2350000000	25.7718588038
1.2400000000	14.7210946000
1.2450000000	9.6471813307
1.2500000000	6.9705400168
1.2550000000	5.4258621674
1.2600000000	4.4859965471
1.2650000000	3.8973783868
1.2700000000	3.5465255691
1.2750000000	3.3598601775
1.2800000000	3.3023694188
1.2850000000	3.3587767142
1.2900000000	3.5278807274
1.2950000000	3.8184834301
1.3000000000	4.2664442992
1.3050000000	4.9177531206
1.3100000000	5.8581318064
1.3150000000	7.2358945127
1.3200000000	9.3176631520
1.3250000000	12.6116193943
1.3300000000	18.2307143156
1.3350000000	28.7553419691
1.3400000000	51.2495332085
1.3450000000	107.0918659286
1.3500000000	227.2765431382
1.3550000000	211.9692446308
1.3600000000	97.7494855952
1.3650000000	48.0279484514
1.3700000000	27.5434701999
1.3750000000	17.7129395236
1.3800000000	12.3527966681
1.3850000000	9.1239056717
1.3900000000	7.0428515047
1.3950000000	5.6230172345
1.4000000000	4.6130713304
1.4050000000	3.8713048055
1.4100000000	3.3118966633
1.4150000000	2.8835869614
1.4200000000	2.5502274830
1.4250000000	2.3022644885
1.4300000000	2.1447599233
1.4350000000	2.0410604006
1.4400000000	1.4040466113
1.4450000000	-0.3611484646
1.4500000000	-3.4318807350
1.4550000000	-1.1460708949
1.4600000000	3.4929578453
1.4650000000	2.0228619609
1.4700000000	-1.2934114232
1.4750000000	-6.5405469258
1.4800000000	-2.8857462904
1.4850000000	4.9432303784
1.4900000000	4.0016978957
1.4950000000	2.5962362185
1.5000000000	1.8278482177
1.5050000000	1.4118841751
1.5100000000	1.1737740102
1.5150000000	1.0277836548
1.5200000000	0.9321610662
1.5250000000	0.8714652598
1.5300000000	0.8236339094
1.5350000000	0.7888847677
1.5400000000	0.7637085715
1.5450000000	0.7460124586
1.5500000000	0.7343488394
1.5550000000	0.7281138479
1.5600000000	0.7285516958
1.5650000000	0.7331435428
1.5700000000	0.7445699398
1.5750000000	0.7649327886
1.5800000000	0.7984200135
1.5850000000	0.8532791779
1.5900000000	0.9469592866
1.5950000000	1.1180362070
1.6000000000	1.4478115155
1.6050000000	1.9890655270
1.6100000000	2.2415448560
1.6150000000	1.7855267344
1.6200000000	1.3626752845
1.6250000000	1.1477972504
1.6300000000	1.0492590808
1.6350000000	1.0087455860
1.6400000000	0.9998426823
1.6450000000	1.0104694887
1.6500000000	1.0347463828
1.6550000000	1.0702621208
1.6600000000	1.1157889887
1.6650000000	1.1711654160
1.6700000000	1.2368537949
1.6750000000	1.3138027784
1.6800000000	1.4033979156
1.6850000000	1.5074882104
1.6900000000	1.6282214061
1.6950000000	1.7668426031
1.7000000000	1.9264050748
1.7050000000	2.1110060809
1.7100000000	2.3347492961
1.7150000000	2.7109243831
1.7200000000	3.2791401139
1.7250000000	3.8932162023
1.7300000000	4.6233095484
1.7350000000	5.4132645054
1.7400000000	6.1426392674
1.7450000000	7.0619025106
1.7500000000	8.4710398974
1.7550000000	10.5845516609
1.7600000000	13.7554832032
1.7650000000	18.6474227337
1.7700000000	26.5277996003
1.7750000000	39.8006896462
1.7800000000	62.4067779959
1.7850000000	95.7195037460
1.7900000000	118.8753289714
1.7950000000	101.1444024925
1.8000000000	67.2498898854
1.8050000000	42.4206801679
1.8100000000	27.9302591197
1.8150000000	19.4391474445
1.8200000000	14.2139872195
1.8250000000	10.8258946572
1.8300000000	8.5242409068
1.8350000000	6.8978863032
1.8400000000	5.7108497108
1.8450000000	4.8198018430
1.8500000000	4.1343191041
1.8550000000	3.5977076907
1.8600000000	3.1700922083
1.8650000000	2.8240640381
1.8700000000	2.5396526819
1.8750000000	2.3015413136
1.8800000000	2.0966942345
1.8850000000	1.9124041153
1.8900000000	1.7329461490
1.8950000000	1.5344996063
1.9000000000	1.2767009308
1.9050000000	0.8278178957
1.9100000000	0.1832378377
1.9150000000	-0.4369731089
1.9200000000	0.3147963156
1.9250000000	3.3181693263
1.9300000000	5.7173519397
1.9350000000	5.7706909354
1.9400000000	4.6321971393
1.9450000000	3.5105105246
1.9500000000	2.7155081071
1.9550000000	2.1896599516
1.9600000000	1.8392469458
1.9650000000	1.6057516375
1.9700000000	1.4338757134
1.9750000000	1.3078422919
1.9800000000	1.2121833605
1.9850000000	1.1358062278
1.9900000000	1.0704532086
1.9950000000	1.0091241886
2.0000000000	0.9505615458
2.0050000000	0.9157349981
2.0100000000	0.9391419639
2.0150000000	1.0001852158
2.0200000000	1.0414207443
2.0250000000	1.0593304036
2.0300000000	1.0729753363
2.0350000000	1.0911751654
2.0400000000	1.1182165914
2.0450000000	1.1559166796
2.0500000000	1.2061213929
2.0550000000	1.2706662820
2.0600000000	1.3496566180
2.0650000000	1.4367949029
2.0700000000	1.5164043659
2.0750000000	1.5762437766
2.0800000000	1.6254186746
2.0850000000	1.6837139964
2.0900000000	1.7637162632
2.0950000000	1.8697909985
2.1000000000	2.0052861997
2.1050000000	2.1681632910
2.1100000000	2.3697701727
2.1150000000	2.6182416347
2.1200000000	2.9252756852
2.1250000000	3.3074707352
2.1300000000	3.7883442783
2.1350000000	4.4015448679
2.1400000000	5.1956697764
2.1450000000	6.2417530803
2.1500000000	7.6432384321
2.1550000000	9.5464351825
2.1600000000	12.1385379909
2.1650000000	15.5781879479
2.1700000000	19.8049190296
2.1750000000	24.0196427596
2.1800000000	26.6665325532
2.1850000000	26.9145321584
2.1900000000	25.9094509237
2.1950000000	25.1963615711
2.2000000000	24.9472285988
2.2050000000	23.7751710909
2.2100000000	21.0867212781
2.2150000000	17.7040552598
2.2200000000	14.6273491728
2.2250000000	12.1342255183
2.2300000000	10.0872943415
2.2350000000	8.3740038882
2.2400000000	6.9671673302
2.2450000000	5.8562714892
2.2500000000	4.9953921091
2.2550000000	4.3291399417
2.2600000000	3.8062327165
2.2650000000	3.3804400436
2.2700000000	3.0079957125
2.2750000000	2.6519070205
2.2800000000	2.3035723214
2.2850000000	2.0055170085
2.2900000000	1.8301888639
2.2950000000	1.8100723678
2.3000000000	1.8892602713
2.3050000000	1.9727234450
2.3100000000	2.0022054115
2.3150000000	1.9795359295
2.3200000000	1.9299018019
2.3250000000	1.8791901097
2.3300000000	1.8411440807
2.3350000000	1.8197752158
2.3400000000	1.8120642465
2.3450000000	1.8092278893
2.3500000000	1.7999529239
2.3550000000	1.7770121200
2.3600000000	1.7424049515
2.3650000000	1.7049470377
2.3700000000	1.6735986513
2.3750000000	1.6533402319
2.3800000000	1.6449718344
2.3850000000	1.6464935139
2.3900000000	1.6553505479
2.3950000000	1.6690942596
2.4000000000	1.6889439151
2.4050000000	1.7200773632
2.4100000000	1.7646940019
2.4150000000	1.8258319177
2.4200000000	1.9055864184
2.4250000000	2.0062043185
2.4300000000	2.1304432006
2.4350000000	2.2818384432
2.4400000000	2.4649398060
2.4450000000	2.6855811450
2.4500000000	2.9511562963
2.4550000000	3.2709945435
2.4600000000	3.6565668222
2.4650000000	4.1217022488
2.4700000000	4.6823136700
2.4750000000	5.3544463752
2.4800000000	6.1550321664
2.4850000000	7.0911026961
2.4900000000	8.1538860884
2.4950000000	9.3046125147
2.5000000000	10.4595853071
2.5050000000	11.5300460424
2.5100000000	12.2319401315
2.5150000000	12.4059286102
2.5200000000	12.0253744057
2.5250000000	11.2083011861
2.5300000000	10.1422488626
2.5350000000	8.9973569561
2.5400000000	7.8859105217
2.5450000000	6.8665043071
2.5500000000	5.9627338956
2.5550000000	5.1786519586
2.5600000000	4.5030740990
2.5650000000	3.9335408583
2.5700000000	3.4579596387
2.5750000000	3.0690239720
2.5800000000	2.7611484070
2.5850000000	2.5277417978
2.5900000000	2.3572792552
2.5950000000	2.2332193975
2.6000000000	2.1382711515
2.6050000000	2.0705206034
2.6100000000	2.0104531885
2.6150000000	1.9572632933
2.6200000000	1.9121996907
2.6250000000	1.8765427306
2.6300000000	1.8511135689
2.6350000000	1.8363059445
2.6400000000	1.8323271130
2.6450000000	1.8393874194
2.6500000000	1.8579191087
2.6550000000	1.8880186719
2.6600000000	1.9303467238
2.6650000000	1.9855317049
2.6700000000	2.0543138082
2.6750000000	2.1375586340
2.6800000000	2.2361916524
2.6850000000	2.3511598941
2.6900000000	2.4833011617
2.6950000000	2.6332567122
2.7000000000	2.8012620955
2.7050000000	3.0069750641
2.7100000000	3.2347551594
2.7150000000	3.4818225801
2.7200000000	3.7435062797
2.7250000000	4.0131640048
2.7300000000	4.2821979117
2.7350000000	4.5400846032
2.7400000000	4.7743058369
2.7450000000	4.9723701895
2.7500000000	5.1157281946
2.7550000000	5.1921012914
2.7600000000	5.1922167620
2.7650000000	5.1140321810
2.7700000000	4.9637748462
2.7750000000	4.7548911156
2.7800000000	4.5051279874
2.7850000000	4.2333615849
2.7900000000	3.9565028222
2.7950000000	3.6881065859
2.8000000000	3.4377640332
2.8050000000	3.1834796416
2.8100000000	2.9645833873
2.8150000000	2.7805855049
2.8200000000	2.6286117933
2.8250000000	2.5048409373
2.8300000000	2.4054186284
2.8350000000	2.3270640897
2.8400000000	2.2662872884
2.8450000000	2.2233007556
2.8500000000	2.1955405073
2.8550000000	2.1820371083
2.8600000000	2.1820757560
2.8650000000	2.1950496606
2.8700000000	2.2203675160
2.8750000000	2.2573538502
2.8800000000	2.3051835681
2.8850000000	2.3628112297
2.8900000000	2.4289892440
2.8950000000	2.5022386551
2.9000000000	2.5809331274
2.9050000000	2.6804443173
2.9100000000	2.7798973172
2.9150000000	2.8757412224
2.9200000000	2.9638995178
2.9250000000	3.0396678834
2.9300000000	3.0986644011
2.9350000000	3.1347428249
2.9400000000	3.1449746282
2.9450000000	3.1279287860
2.9500000000	3.0847741079
2.9550000000	3.0191809804
2.9600000000	2.9366081722
2.9650000000	2.8433403609
2.9700000000	2.7455250859
2.9750000000	2.6484628308
2.9800000000	2.5562524345
2.9850000000	2.4717266084
2.9900000000	2.3966309876
2.9950000000	2.3318118361
3.0000000000	2.2775146234
