# energy (eV)    P(omega), $W$ = 300 nm, $h$ = 300 nm, $s$ = 20 nm, $d/W = 5$, $E_{\rm e}$ = 200 keV
0.2000000000	0.0624202537
0.2050000000	0.0633558756
0.2100000000	0.0642309585
0.2150000000	0.0650474724
0.2200000000	0.0658070887
0.2250000000	0.0665112314
0.2300000000	0.0671609827
0.2350000000	0.0677570603
0.2400000000	0.0682997257
0.2450000000	0.0687887644
0.2500000000	0.0692233638
0.2550000000	0.0696019839
0.2600000000	0.0699223206
0.2650000000	0.0701810274
0.2700000000	0.0703735768
0.2750000000	0.0704939695
0.2800000000	0.0705344207
0.2850000000	0.0704849258
0.2900000000	0.0703326669
0.2950000000	0.0700613859
0.3000000000	0.0696503117
0.3050000000	0.0690729782
0.3100000000	0.0682955011
0.3150000000	0.0721741737
0.3200000000	0.0767805762
0.3250000000	0.0826065297
0.3300000000	0.0904083739
0.3350000000	0.1001197711
0.3400000000	0.1128369681
0.3450000000	0.1282622520
0.3500000000	0.1484412459
0.3550000000	0.1751418236
0.3600000000	0.2100050213
0.3650000000	0.2586082227
0.3700000000	0.3226961481
0.3750000000	0.4118458867
0.3800000000	0.5407832358
0.3850000000	0.7416942851
0.3900000000	1.0590942676
0.3950000000	1.5982446929
0.4000000000	2.6260733964
0.4050000000	4.9304803338
0.4100000000	11.2184663220
0.4150000000	36.0039072973
0.4200000000	22.9396245216
0.4250000000	-43.1819833544
0.4300000000	12.0084165663
0.4350000000	7.4834195607
0.4400000000	4.5747959969
0.4450000000	3.0090839801
0.4500000000	2.1077255217
0.4550000000	1.5530256689
0.4600000000	1.1917471830
0.4650000000	0.9455528044
0.4700000000	0.7715443425
0.4750000000	0.6456959989
0.4800000000	0.5523889699
0.4850000000	0.4821774760
0.4900000000	0.4285831719
0.4950000000	0.3872570915
0.5000000000	0.3552265853
0.5050000000	0.3303105909
0.5100000000	0.3111046874
0.5150000000	0.2965749903
0.5200000000	0.2856406914
0.5250000000	0.2778149171
0.5300000000	0.2725749871
0.5350000000	0.2695387011
0.5400000000	0.2684242936
0.5450000000	0.2689963561
0.5500000000	0.2711805401
0.5550000000	0.2748441775
0.5600000000	0.2799195616
0.5650000000	0.2863763323
0.5700000000	0.2941868819
0.5750000000	0.3034058180
0.5800000000	0.3141218856
0.5850000000	0.3263930604
0.5900000000	0.3403315290
0.5950000000	0.3560783987
0.6000000000	0.3738134236
0.6050000000	0.3937970304
0.6100000000	0.4162777711
0.6150000000	0.4415951513
0.6200000000	0.4702020325
0.6250000000	0.5025326348
0.6300000000	0.5392287228
0.6350000000	0.5810901662
0.6400000000	0.6289492742
0.6450000000	0.6840073657
0.6500000000	0.7478439892
0.6550000000	0.8221034764
0.6600000000	0.9093129179
0.6650000000	1.0127151162
0.6700000000	1.1361222813
0.6750000000	1.2853480172
0.6800000000	1.4682099220
0.6850000000	1.6949496287
0.6900000000	1.9814292946
0.6950000000	2.3498338827
0.7000000000	2.8354037868
0.7050000000	3.4920132921
0.7100000000	4.4109459475
0.7150000000	5.7546977273
0.7200000000	7.8257885361
0.7250000000	11.2637035320
0.7300000000	17.5741106644
0.7350000000	31.0767262611
0.7400000000	68.1085132328
0.7450000000	225.9543808966
0.7500000000	700.0252187147
0.7550000000	176.1108619884
0.7600000000	58.3252792618
0.7650000000	27.9468327628
0.7700000000	16.2532735516
0.7750000000	10.6083071645
0.7800000000	7.4656910121
0.7850000000	5.5449038107
0.7900000000	4.2839911999
0.7950000000	3.4143578591
0.8000000000	2.7892028425
0.8050000000	2.3235964831
0.8100000000	1.9685416400
0.8150000000	1.6870801114
0.8200000000	1.4649407084
0.8250000000	1.2860747266
0.8300000000	1.1395540223
0.8350000000	1.0190859329
0.8400000000	0.9180975948
0.8450000000	0.8333547497
0.8500000000	0.7617223237
0.8550000000	0.6999059618
0.8600000000	0.6471352976
0.8650000000	0.6020603950
0.8700000000	0.5622326831
0.8750000000	0.5283540011
0.8800000000	0.4996078610
0.8850000000	0.4738352956
0.8900000000	0.4531629133
0.8950000000	0.4343573741
0.9000000000	0.4194551263
0.9050000000	0.4091956862
0.9100000000	0.3997941649
0.9150000000	0.3940962838
0.9200000000	0.3934222022
0.9250000000	0.3929251046
0.9300000000	0.3871715259
0.9350000000	0.3698802628
0.9400000000	0.2735010306
0.9450000000	-0.1646158732
0.9500000000	-2.4768290884
0.9550000000	-14.2050467276
0.9600000000	3.3519136340
0.9650000000	5.8882991721
0.9700000000	2.6117154928
0.9750000000	1.3710894748
0.9800000000	0.8592741756
0.9850000000	0.6198951456
0.9900000000	0.4819684178
0.9950000000	0.3983324295
1.0000000000	0.3449306016
1.0050000000	0.3110758265
1.0100000000	0.2848293629
1.0150000000	0.2656546040
1.0200000000	0.2527398311
1.0250000000	0.2418991810
1.0300000000	0.2336635195
1.0350000000	0.2274329941
1.0400000000	0.2234718690
1.0450000000	0.2201774541
1.0500000000	0.2180036381
1.0550000000	0.2168217593
1.0600000000	0.2169227777
1.0650000000	0.2174968820
1.0700000000	0.2188741806
1.0750000000	0.2210604360
1.0800000000	0.2242722072
1.0850000000	0.2283479333
1.0900000000	0.2343608121
1.0950000000	0.2415016252
1.1000000000	0.2500101687
1.1050000000	0.2598160139
1.1100000000	0.2712291791
1.1150000000	0.2845062046
1.1200000000	0.2999515338
1.1250000000	0.3179618881
1.1300000000	0.3390700920
1.1350000000	0.3639389708
1.1400000000	0.3933236471
1.1450000000	0.4286014624
1.1500000000	0.4712711229
1.1550000000	0.5234988057
1.1600000000	0.5883406194
1.1650000000	0.6697624084
1.1700000000	0.7751917762
1.1750000000	0.9144905410
1.1800000000	1.1039609286
1.1850000000	1.3704003785
1.1900000000	1.7643138523
1.1950000000	2.3826711424
1.2000000000	3.4314875663
1.2050000000	5.4134736653
1.2100000000	9.7734708772
1.2150000000	21.5586662673
1.2200000000	52.9097161652
1.2250000000	47.5378563467
1.2300000000	18.9639231814
1.2350000000	8.8953683653
1.2400000000	5.0816364930
1.2450000000	3.3306041237
1.2500000000	2.4069207043
1.2550000000	1.8739142401
1.2600000000	1.5496596337
1.2650000000	1.3466502029
1.2700000000	1.2257292751
1.2750000000	1.1615093184
1.2800000000	1.1419170903
1.2850000000	1.1616938780
1.2900000000	1.2204452900
1.2950000000	1.3212339334
1.3000000000	1.4764839982
1.3050000000	1.7021312134
1.3100000000	2.0278655931
1.3150000000	2.5050528262
1.3200000000	3.2260269134
1.3250000000	4.3667794328
1.3300000000	6.3127279199
1.3350000000	9.9574837628
1.3400000000	17.7473798930
1.3450000000	37.0860342478
1.3500000000	78.7072942894
1.3550000000	73.4069581473
1.3600000000	33.8517401080
1.3650000000	16.6326335751
1.3700000000	9.5386051980
1.3750000000	6.1341620251
1.3800000000	4.2778707299
1.3850000000	3.1596621814
1.3900000000	2.4389682799
1.3950000000	1.9472649637
1.4000000000	1.5975154765
1.4050000000	1.3406442667
1.4100000000	1.1469337140
1.4150000000	0.9986381288
1.4200000000	0.8832504163
1.4250000000	0.7974900460
1.4300000000	0.7431832452
1.4350000000	0.7077123513
1.4400000000	0.4874953334
1.4450000000	-0.1231715016
1.4500000000	-1.1848792128
1.4550000000	-0.3951893160
1.4600000000	1.2077634923
1.4650000000	0.6989531354
1.4700000000	-0.4491034377
1.4750000000	-2.2663771546
1.4800000000	-1.0001120430
1.4850000000	1.7120515042
1.4900000000	1.3859603619
1.4950000000	0.8991247487
1.5000000000	0.6329660362
1.5050000000	0.4888853297
1.5100000000	0.4064085392
1.5150000000	0.3558399007
1.5200000000	0.3227164995
1.5250000000	0.3016887048
1.5300000000	0.2851159410
1.5350000000	0.2730723172
1.5400000000	0.2643418423
1.5450000000	0.2581989913
1.5500000000	0.2541410944
1.5550000000	0.2519576533
1.5600000000	0.2520771934
1.5650000000	0.2536240368
1.5700000000	0.2575206562
1.5750000000	0.2644851951
1.5800000000	0.2759503486
1.5850000000	0.2947385412
1.5900000000	0.3268220759
1.5950000000	0.3854057514
1.6000000000	0.4983246384
1.6050000000	0.6836741975
1.6100000000	0.7702401475
1.6150000000	0.6142700488
1.6200000000	0.4696126011
1.6250000000	0.3961444836
1.6300000000	0.3625132741
1.6350000000	0.3487607323
1.6400000000	0.3458465094
1.6450000000	0.3496367304
1.6500000000	0.3581199353
1.6550000000	0.3704746323
1.6600000000	0.3862830551
1.6650000000	0.4054937794
1.6700000000	0.4282698000
1.6750000000	0.4549415494
1.6800000000	0.4859899356
1.6850000000	0.5220563260
1.6900000000	0.5638846699
1.6950000000	0.6119055363
1.7000000000	0.6671754456
1.7050000000	0.7311100939
1.7100000000	0.8086035563
1.7150000000	0.9389583004
1.7200000000	1.1358759952
1.7250000000	1.3485828537
1.7300000000	1.6014216391
1.7350000000	1.8750247624
1.7400000000	2.1277356997
1.7450000000	2.4462665263
1.7500000000	2.9344904178
1.7550000000	3.6667188982
1.7600000000	4.7652713086
1.7650000000	6.4600507552
1.7700000000	9.1901580563
1.7750000000	13.7884896594
1.7800000000	21.6203121970
1.7850000000	33.1615385157
1.7900000000	41.1841346870
1.7950000000	35.0416087213
1.8000000000	23.2990281781
1.8050000000	14.6969765768
1.8100000000	9.6767530384
1.8150000000	6.7349806289
1.8200000000	4.9247003506
1.8250000000	3.7508764015
1.8300000000	2.9534535568
1.8350000000	2.3899921085
1.8400000000	1.9787357692
1.8450000000	1.6700280432
1.8500000000	1.4325413980
1.8550000000	1.2466340813
1.8600000000	1.0984917319
1.8650000000	0.9786189219
1.8700000000	0.8800974565
1.8750000000	0.7976218950
1.8800000000	0.7266775398
1.8850000000	0.6628641151
1.8900000000	0.6007373057
1.8950000000	0.5320496034
1.9000000000	0.4428253825
1.9050000000	0.2874466932
1.9100000000	0.0643394190
1.9150000000	-0.1501998883
1.9200000000	0.1108170993
1.9250000000	1.1521708641
1.9300000000	1.9840293518
1.9350000000	2.0023573149
1.9400000000	1.6072013252
1.9450000000	1.2178998726
1.9500000000	0.9419890253
1.9550000000	0.7594963219
1.9600000000	0.6378912584
1.9650000000	0.5568592069
1.9700000000	0.4972160489
1.9750000000	0.4534810458
1.9800000000	0.4202857327
1.9850000000	0.3937801157
1.9900000000	0.3710978306
1.9950000000	0.3498088510
2.0000000000	0.3294769823
2.0050000000	0.3173827981
2.0100000000	0.3255077924
2.0150000000	0.3466989252
2.0200000000	0.3610073866
2.0250000000	0.3672111346
2.0300000000	0.3719284414
2.0350000000	0.3782217014
2.0400000000	0.3875773386
2.0450000000	0.4006237920
2.0500000000	0.4179986543
2.0550000000	0.4403358677
2.0600000000	0.4676721116
2.0650000000	0.4978329917
2.0700000000	0.5254049139
2.0750000000	0.5461615482
2.0800000000	0.5632499203
2.0850000000	0.5835059518
2.0900000000	0.6112798970
2.0950000000	0.6480827456
2.1000000000	0.6950769459
2.1050000000	0.7515586030
2.1100000000	0.8214626479
2.1150000000	0.9076107713
2.1200000000	1.0140591793
2.1250000000	1.1465630882
2.1300000000	1.3132759643
2.1350000000	1.5258637928
2.1400000000	1.8011748094
2.1450000000	2.1638357385
2.1500000000	2.6497099633
2.1550000000	3.3095219069
2.1600000000	4.2081715985
2.1650000000	5.4006618084
2.1700000000	6.8660352027
2.1750000000	8.3272594174
2.1800000000	9.2449410811
2.1850000000	9.3309387779
2.1900000000	8.9824795024
2.1950000000	8.7352392617
2.2000000000	8.6488840601
2.2050000000	8.2426768040
2.2100000000	7.3108820657
2.2150000000	6.1384823702
2.2200000000	5.0721390752
2.2250000000	4.2080050401
2.2300000000	3.4983876813
2.2350000000	2.9043004579
2.2400000000	2.4164061729
2.2450000000	2.0311238675
2.2500000000	1.7325560698
2.2550000000	1.5015011004
2.2600000000	1.3201740581
2.2650000000	1.1725376989
2.2700000000	1.0434055244
2.2750000000	0.9199364563
2.2800000000	0.7991365394
2.2850000000	0.6957502264
2.2900000000	0.6349078879
2.2950000000	0.6278853599
2.3000000000	0.6553046044
2.3050000000	0.6842143963
2.3100000000	0.6944150329
2.3150000000	0.6865385290
2.3200000000	0.6693166868
2.3250000000	0.6517245894
2.3300000000	0.6385271456
2.3350000000	0.6311144624
2.3400000000	0.6284387582
2.3450000000	0.6274530924
2.3500000000	0.6242331671
2.3550000000	0.6162719918
2.3600000000	0.6042631431
2.3650000000	0.5912646340
2.3700000000	0.5803848065
2.3750000000	0.5733516989
2.3800000000	0.5704436178
2.3850000000	0.5709679874
2.3900000000	0.5740399140
2.3950000000	0.5788107902
2.4000000000	0.5857029038
2.4050000000	0.5965112087
2.4100000000	0.6119967631
2.4150000000	0.6332122102
2.4200000000	0.6608840417
2.4250000000	0.6957914370
2.4300000000	0.7388911179
2.4350000000	0.7914097308
2.4400000000	0.8549256856
2.4450000000	0.9314627491
2.4500000000	1.0235857657
2.4550000000	1.1345313262
2.4600000000	1.2682781713
2.4650000000	1.4296237558
2.4700000000	1.6240873229
2.4750000000	1.8572344505
2.4800000000	2.1349368616
2.4850000000	2.4596319224
2.4900000000	2.8282744496
2.4950000000	3.2274145626
2.5000000000	3.6280216215
2.5050000000	3.9993111950
2.5100000000	4.2427662443
2.5150000000	4.3031237343
2.5200000000	4.1711423243
2.5250000000	3.8877524955
2.5300000000	3.5179977421
2.5350000000	3.1208903443
2.5400000000	2.7353787171
2.5450000000	2.3817892098
2.5500000000	2.0683080415
2.5550000000	1.7963416363
2.5600000000	1.5620107467
2.5650000000	1.3644620515
2.5700000000	1.1995008252
2.5750000000	1.0645927197
2.5800000000	0.9578005546
2.5850000000	0.8768381898
2.5900000000	0.8177083389
2.5950000000	0.7746737410
2.6000000000	0.7417368627
2.6050000000	0.7182341847
2.6100000000	0.6973969027
2.6150000000	0.6789456544
2.6200000000	0.6633137133
2.6250000000	0.6509454889
2.6300000000	0.6421260903
2.6350000000	0.6369924730
2.6400000000	0.6356164790
2.6450000000	0.6380710284
2.6500000000	0.6445059796
2.6550000000	0.6549546438
2.6600000000	0.6696462681
2.6650000000	0.6887990019
2.6700000000	0.7126696115
2.6750000000	0.7415585645
2.6800000000	0.7757871816
2.6850000000	0.8156838033
2.6900000000	0.8615389828
2.6950000000	0.9135750618
2.7000000000	0.9718733149
2.7050000000	1.0432546528
2.7100000000	1.1222910301
2.7150000000	1.2080174506
2.7200000000	1.2988125566
2.7250000000	1.3923711952
2.7300000000	1.4857100826
2.7350000000	1.5751784893
2.7400000000	1.6564341555
2.7450000000	1.7251445398
2.7500000000	1.7748754241
2.7550000000	1.8013678398
2.7600000000	1.8014054293
2.7650000000	1.7742796189
2.7700000000	1.7221506006
2.7750000000	1.6496828608
2.7800000000	1.5630329538
2.7850000000	1.4687492644
2.7900000000	1.3726985223
2.7950000000	1.2795833538
2.8000000000	1.1927313268
2.8050000000	1.1045106796
2.8100000000	1.0285673361
2.8150000000	0.9647316096
2.8200000000	0.9120065668
2.8250000000	0.8690666014
2.8300000000	0.8345746024
2.8350000000	0.8073925907
2.8400000000	0.7863097352
2.8450000000	0.7714001209
2.8500000000	0.7617739975
2.8550000000	0.7570951286
2.8600000000	0.7571155194
2.8650000000	0.7616243298
2.8700000000	0.7704164452
2.8750000000	0.7832574444
2.8800000000	0.7998606260
2.8850000000	0.8198630914
2.8900000000	0.8428321149
2.8950000000	0.8682539167
2.9000000000	0.8955644472
2.9050000000	0.9300967323
2.9100000000	0.9646075892
2.9150000000	0.9978649530
2.9200000000	1.0284547940
2.9250000000	1.0547449910
2.9300000000	1.0752156648
2.9350000000	1.0877340372
2.9400000000	1.0912844439
2.9450000000	1.0853703749
2.9500000000	1.0703971015
2.9550000000	1.0476383750
2.9600000000	1.0189882123
2.9650000000	0.9866270364
2.9700000000	0.9526882213
2.9750000000	0.9190108101
2.9800000000	0.8870170182
2.9850000000	0.8576897676
2.9900000000	0.8316350033
2.9950000000	0.8091461647
3.0000000000	0.7903085103
