# energy (eV)    P(omega), $W$ = 300 nm, $h$ = 300 nm, $s$ = 20 nm, $d/W = 5$, $E_{\rm e}$ = 200 keV
0.2000000000	0.1312560699
0.2050000000	0.1331409162
0.2100000000	0.1349129725
0.2150000000	0.1365757588
0.2200000000	0.1381323080
0.2250000000	0.1395851262
0.2300000000	0.1409360503
0.2350000000	0.1421862248
0.2400000000	0.1433359690
0.2450000000	0.1443844931
0.2500000000	0.1453300573
0.2550000000	0.1461693303
0.2600000000	0.1468974453
0.2650000000	0.1475076272
0.2700000000	0.1479905874
0.2750000000	0.1483341713
0.2800000000	0.1485226253
0.2850000000	0.1485358094
0.2900000000	0.1483478504
0.2950000000	0.1479261212
0.3000000000	0.1472286146
0.3050000000	0.1462022560
0.3100000000	0.1447789078
0.3150000000	0.1525712117
0.3200000000	0.1618269931
0.3250000000	0.1735271126
0.3300000000	0.1891834056
0.3350000000	0.2086779879
0.3400000000	0.2342091455
0.3450000000	0.2652041531
0.3500000000	0.3057684591
0.3550000000	0.3594701438
0.3600000000	0.4296422586
0.3650000000	0.5275172249
0.3700000000	0.6567027906
0.3750000000	0.8365456998
0.3800000000	1.0968422712
0.3850000000	1.5026904935
0.3900000000	2.1443421324
0.3950000000	3.2350880179
0.4000000000	5.3158767706
0.4050000000	9.9841624876
0.4100000000	22.7315858366
0.4150000000	73.0140422838
0.4200000000	46.4746116287
0.4250000000	-87.7361542841
0.4300000000	24.4505632487
0.4350000000	15.2566890235
0.4400000000	9.3409332347
0.4450000000	6.1542531332
0.4500000000	4.3185228859
0.4550000000	3.1881240619
0.4600000000	2.4514695914
0.4650000000	1.9492159138
0.4700000000	1.5940650648
0.4750000000	1.3371268993
0.4800000000	1.1465869996
0.4850000000	1.0032091734
0.4900000000	0.8937910063
0.4950000000	0.8094657344
0.5000000000	0.7441744613
0.5050000000	0.6934663997
0.5100000000	0.6544815658
0.5150000000	0.6251155613
0.5200000000	0.6031553721
0.5250000000	0.5876156524
0.5300000000	0.5774297649
0.5350000000	0.5718199051
0.5400000000	0.5702136147
0.5450000000	0.5721329642
0.5500000000	0.5774358464
0.5550000000	0.5858557350
0.5600000000	0.5972629607
0.5650000000	0.6116028662
0.5700000000	0.6288292901
0.5750000000	0.6490655795
0.5800000000	0.6725121972
0.5850000000	0.6993009194
0.5900000000	0.7296822936
0.5950000000	0.7639669471
0.6000000000	0.8025500470
0.6050000000	0.8459978972
0.6100000000	0.8948561102
0.6150000000	0.9498650889
0.6200000000	1.0120131039
0.6250000000	1.0822463543
0.6300000000	1.1619633902
0.6350000000	1.2529073606
0.6400000000	1.3568928421
0.6450000000	1.4765376815
0.6500000000	1.6152850280
0.6550000000	1.7767199302
0.6600000000	1.9663501741
0.6650000000	2.1912488304
0.6700000000	2.4597309421
0.6750000000	2.7844715100
0.6800000000	3.1825361345
0.6850000000	3.6762644012
0.6900000000	4.3002846780
0.6950000000	5.1030120737
0.7000000000	6.1613992235
0.7050000000	7.5930837751
0.7100000000	9.5974516823
0.7150000000	12.5294777623
0.7200000000	17.0501631661
0.7250000000	24.5570460778
0.7300000000	38.3413380266
0.7350000000	67.8473027935
0.7400000000	148.8012304161
0.7450000000	494.0135575628
0.7500000000	1531.6137767353
0.7550000000	385.6063844448
0.7600000000	127.8033418809
0.7650000000	61.2843848829
0.7700000000	35.6693418730
0.7750000000	23.2992457365
0.7800000000	16.4101272467
0.7850000000	12.1979473008
0.7900000000	9.4318630330
0.7950000000	7.5234557745
0.8000000000	6.1510925571
0.8050000000	5.1286346547
0.8100000000	4.3486816106
0.8150000000	3.7301520444
0.8200000000	3.2418355344
0.8250000000	2.8485360614
0.8300000000	2.5262521527
0.8350000000	2.2612160419
0.8400000000	2.0389851181
0.8450000000	1.8524632942
0.8500000000	1.6947851160
0.8550000000	1.5586766632
0.8600000000	1.4424831176
0.8650000000	1.3432578933
0.8700000000	1.2555572558
0.8750000000	1.1809950158
0.8800000000	1.1177854790
0.8850000000	1.0611085666
0.8900000000	1.0157667344
0.8950000000	0.9745146640
0.9000000000	0.9419549434
0.9050000000	0.9197844578
0.9100000000	0.8994798313
0.9150000000	0.8874736953
0.9200000000	0.8867755872
0.9250000000	0.8864145951
0.9300000000	0.8740308778
0.9350000000	0.8352252174
0.9400000000	0.6161109925
0.9450000000	-0.3824120351
0.9500000000	-5.6573878393
0.9550000000	-32.4324184342
0.9600000000	7.6605873635
0.9650000000	13.4645071764
0.9700000000	5.9761046488
0.9750000000	3.1387430060
0.9800000000	1.9675658628
0.9850000000	1.4196488933
0.9900000000	1.1037880094
0.9950000000	0.9121925397
1.0000000000	0.7898353005
1.0050000000	0.7122977885
1.0100000000	0.6521185756
1.0150000000	0.6081278424
1.0200000000	0.5785112803
1.0250000000	0.5535867441
1.0300000000	0.5346094331
1.0350000000	0.5202011232
1.0400000000	0.5109975495
1.0450000000	0.5032582934
1.0500000000	0.4980488111
1.0550000000	0.4950708974
1.0600000000	0.4950127293
1.0650000000	0.4959594444
1.0700000000	0.4986841070
1.0750000000	0.5031957648
1.0800000000	0.5100011140
1.0850000000	0.5186528784
1.0900000000	0.5315504362
1.0950000000	0.5468886822
1.1000000000	0.5652064013
1.1050000000	0.5862671329
1.1100000000	0.6107591428
1.1150000000	0.6392251126
1.1200000000	0.6723312864
1.1250000000	0.7108364214
1.1300000000	0.7558894130
1.1350000000	0.8088770933
1.1400000000	0.8714051127
1.1450000000	0.9462856508
1.1500000000	1.0366753321
1.1550000000	1.1470912228
1.1600000000	1.2839050420
1.1650000000	1.4554092746
1.1700000000	1.6770117832
1.1750000000	1.9692772637
1.1800000000	2.3661533471
1.1850000000	2.9234078364
1.1900000000	3.7463032927
1.1950000000	5.0365866049
1.2000000000	7.2233197175
1.2050000000	11.3535218368
1.2100000000	20.4369913239
1.2150000000	44.9927445922
1.2200000000	110.3483360811
1.2250000000	99.2407367208
1.2300000000	39.7059202075
1.2350000000	18.7223596652
1.2400000000	10.7784130262
1.2450000000	7.1379523620
1.2500000000	5.2254724744
1.2550000000	4.1307666111
1.2600000000	3.4748995160
1.2650000000	3.0758753566
1.2700000000	2.8532917660
1.2750000000	2.7552799761
1.2800000000	2.7584047737
1.2850000000	2.8541010439
1.2900000000	3.0450008587
1.2950000000	3.3419903573
1.3000000000	3.7791769998
1.3050000000	4.4009682275
1.3100000000	5.2876575356
1.3150000000	6.5775767199
1.3200000000	8.5183803832
1.3250000000	11.5830164657
1.3300000000	16.8037231227
1.3350000000	26.5772271510
1.3400000000	47.4645195026
1.3450000000	99.3291601204
1.3500000000	211.0124501379
1.3550000000	196.9286610896
1.3600000000	90.8482006298
1.3650000000	44.6436864217
1.3700000000	25.6025714213
1.3750000000	16.4631848635
1.3800000000	11.4797068517
1.3850000000	8.4782150017
1.3900000000	6.5447452933
1.3950000000	5.2264632131
1.4000000000	4.2903467958
1.4050000000	3.6048899636
1.4100000000	3.0912421190
1.4150000000	2.7037163659
1.4200000000	2.4124016841
1.4250000000	2.2175130984
1.4300000000	2.1467574077
1.4350000000	2.1878885735
1.4400000000	1.6867668682
1.4450000000	0.1501738269
1.4500000000	-2.3425755970
1.4550000000	-0.6550215093
1.4600000000	2.8431413423
1.4650000000	1.5379124839
1.4700000000	-1.4586466871
1.4750000000	-6.3747305064
1.4800000000	-2.8374770907
1.4850000000	4.6613974387
1.4900000000	3.7785805015
1.4950000000	2.4456692894
1.5000000000	1.7182985177
1.5050000000	1.3266514787
1.5100000000	1.1034297368
1.5150000000	0.9678750745
1.5200000000	0.8803156054
1.5250000000	0.8259170164
1.5300000000	0.7843697044
1.5350000000	0.7557384295
1.5400000000	0.7368875928
1.5450000000	0.7261357877
1.5500000000	0.7223971987
1.5550000000	0.7257019439
1.5600000000	0.7379875744
1.5650000000	0.7582663328
1.5700000000	0.7910865814
1.5750000000	0.8420008140
1.5800000000	0.9214338853
1.5850000000	1.0496782533
1.5900000000	1.2694872543
1.5950000000	1.6754723219
1.6000000000	2.4674871610
1.6050000000	3.7771078478
1.6100000000	4.3837065651
1.6150000000	3.2467411885
1.6200000000	2.1800642784
1.6250000000	1.6169644695
1.6300000000	1.3341941596
1.6350000000	1.1885760986
1.6400000000	1.1147256572
1.6450000000	1.0822522737
1.6500000000	1.0759360187
1.6550000000	1.0886469834
1.6600000000	1.1161280313
1.6650000000	1.1564338005
1.6700000000	1.2088226090
1.6750000000	1.2732949717
1.6800000000	1.3504237775
1.6850000000	1.4410990762
1.6900000000	1.5461039867
1.6950000000	1.6639283126
1.7000000000	1.7925614119
1.7050000000	1.9242542872
1.7100000000	2.0744496334
1.7150000000	2.4488602683
1.7200000000	3.1063095825
1.7250000000	3.7080437609
1.7300000000	4.3533450304
1.7350000000	5.0625061201
1.7400000000	5.7587260362
1.7450000000	6.6531106002
1.7500000000	8.0054807991
1.7550000000	10.0182092279
1.7600000000	13.0295522841
1.7650000000	17.6715316754
1.7700000000	25.1489495684
1.7750000000	37.7464928091
1.7800000000	59.2125663552
1.7850000000	90.8702718838
1.7900000000	112.9282035267
1.7950000000	96.1613425727
1.8000000000	63.9986544328
1.8050000000	40.4170435559
1.8100000000	26.6482451477
1.8150000000	18.5777812403
1.8200000000	13.6110993193
1.8250000000	10.3911832984
1.8300000000	8.2049778400
1.8350000000	6.6618736077
1.8400000000	5.5376634036
1.8450000000	4.6963400468
1.8500000000	4.0521893588
1.8550000000	3.5515788079
1.8600000000	3.1570968361
1.8650000000	2.8433200624
1.8700000000	2.5921699297
1.8750000000	2.3903784223
1.8800000000	2.2274270374
1.8850000000	2.0940291164
1.8900000000	1.9794910578
1.8950000000	1.8678578078
1.9000000000	1.7315730344
1.9050000000	1.4733133294
1.9100000000	1.1180575825
1.9150000000	0.9317590970
1.9200000000	2.2692630913
1.9250000000	5.9597644143
1.9300000000	8.8864786692
1.9350000000	8.7488570512
1.9400000000	6.8805996397
1.9450000000	5.0693865303
1.9500000000	3.7977558930
1.9550000000	2.9645763590
1.9600000000	2.4140045207
1.9650000000	2.0454909198
1.9700000000	1.7794753792
1.9750000000	1.5844763326
1.9800000000	1.4355990439
1.9850000000	1.3147810886
1.9900000000	1.2081996997
1.9950000000	1.1037898516
2.0000000000	0.9997940671
2.0050000000	0.9333386183
2.0100000000	0.9713926625
2.0150000000	1.0762428876
2.0200000000	1.1408697701
2.0250000000	1.1579932855
2.0300000000	1.1617877475
2.0350000000	1.1687318854
2.0400000000	1.1849417775
2.0450000000	1.2119707965
2.0500000000	1.2508219598
2.0550000000	1.3024047338
2.0600000000	1.3667194448
2.0650000000	1.4398850633
2.0700000000	1.5122767387
2.0750000000	1.5766861624
2.0800000000	1.6394895397
2.0850000000	1.7138644260
2.0900000000	1.8086504409
2.0950000000	1.9275783223
2.1000000000	2.0746736134
2.1050000000	2.2486120870
2.1100000000	2.4616185906
2.1150000000	2.7226313840
2.1200000000	3.0441828011
2.1250000000	3.4438499196
2.1300000000	3.9464082060
2.1350000000	4.5872285086
2.1400000000	5.4173854074
2.1450000000	6.5115499078
2.1500000000	7.9785207603
2.1550000000	9.9722789870
2.1600000000	12.6898965489
2.1650000000	16.2982717541
2.1700000000	20.7306311175
2.1750000000	25.1372742696
2.1800000000	27.8598330596
2.1850000000	28.0007720301
2.1900000000	26.7619265275
2.1950000000	25.7975430311
2.2000000000	25.3695814477
2.2050000000	24.1832332422
2.2100000000	21.6654912995
2.2150000000	18.5703172305
2.2200000000	15.7919590230
2.2250000000	13.4954510287
2.2300000000	11.4723955028
2.2350000000	9.6424631835
2.2400000000	8.0702512369
2.2450000000	6.8121869556
2.2500000000	5.8478188056
2.2550000000	5.1234806172
2.2600000000	4.5812685358
2.2650000000	4.1631289493
2.2700000000	3.8062714310
2.2750000000	3.4488009224
2.2800000000	3.0637551782
2.2850000000	2.6971761714
2.2900000000	2.4436821377
2.2950000000	2.3568798349
2.3000000000	2.3875135370
2.3050000000	2.4344934535
2.3100000000	2.4383107243
2.3150000000	2.3994389137
2.3200000000	2.3436361929
2.3250000000	2.2975092448
2.3300000000	2.2746694376
2.3350000000	2.2774466350
2.3400000000	2.2981942275
2.3450000000	2.3196160460
2.3500000000	2.3199344620
2.3550000000	2.2852553072
2.3600000000	2.2195105530
2.3650000000	2.1398825446
2.3700000000	2.0640830096
2.3750000000	2.0026922920
2.3800000000	1.9591516191
2.3850000000	1.9324972030
2.3900000000	1.9205204895
2.3950000000	1.9206600480
2.4000000000	1.9336109808
2.4050000000	1.9636392552
2.4100000000	2.0121704889
2.4150000000	2.0811806233
2.4200000000	2.1718563868
2.4250000000	2.2862817759
2.4300000000	2.4274989047
2.4350000000	2.5995889109
2.4400000000	2.8078183177
2.4450000000	3.0589115427
2.4500000000	3.3613521078
2.4550000000	3.7258027621
2.4600000000	4.1653639019
2.4650000000	4.6957528730
2.4700000000	5.3349954796
2.4750000000	6.1011464474
2.4800000000	7.0128494027
2.4850000000	8.0774804318
2.4900000000	9.2846271174
2.4950000000	10.5910900342
2.5000000000	11.9055254984
2.5050000000	13.1351572898
2.5100000000	13.9659555033
2.5150000000	14.2167766631
2.5200000000	13.8443994765
2.5250000000	12.9637635874
2.5300000000	11.7752020599
2.5350000000	10.4719804241
2.5400000000	9.1906796031
2.5450000000	8.0084908240
2.5500000000	6.9597519560
2.5550000000	6.0522858696
2.5600000000	5.2736172133
2.5650000000	4.6189605145
2.5700000000	4.0728964718
2.5750000000	3.6257714427
2.5800000000	3.2703750247
2.5850000000	2.9988719382
2.5900000000	2.7983784010
2.5950000000	2.6507824757
2.6000000000	2.5372260131
2.6050000000	2.4565230598
2.6100000000	2.3866507972
2.6150000000	2.3265013521
2.6200000000	2.2772618389
2.6250000000	2.2402485799
2.6300000000	2.2163407679
2.6350000000	2.2059870512
2.6400000000	2.2094484077
2.6450000000	2.2269670926
2.6500000000	2.2590179596
2.6550000000	2.3057342751
2.6600000000	2.3678325990
2.6650000000	2.4460371934
2.6700000000	2.5412377309
2.6750000000	2.6545117904
2.6800000000	2.7870537535
2.6850000000	2.9400848899
2.6900000000	3.1146047777
2.6950000000	3.3111920036
2.7000000000	3.5296449677
2.7050000000	3.7948054911
2.7100000000	4.0841731511
2.7150000000	4.3921050254
2.7200000000	4.7103968807
2.7250000000	5.0287461698
2.7300000000	5.3355338049
2.7350000000	5.6184958491
2.7400000000	5.8648858425
2.7450000000	6.0633964810
2.7500000000	6.1964833377
2.7550000000	6.2535305873
2.7600000000	6.2264827508
2.7650000000	6.1144075455
2.7700000000	5.9248109140
2.7750000000	5.6727268853
2.7800000000	5.3777503301
2.7850000000	5.0606685213
2.7900000000	4.7401332564
2.7950000000	4.4311015571
2.8000000000	4.1441496006
2.8050000000	3.8538247460
2.8100000000	3.6053499739
2.8150000000	3.3980591638
2.8200000000	3.2286153561
2.8250000000	3.0926207453
2.8300000000	2.9856451551
2.8350000000	2.9038968367
2.8400000000	2.8433846898
2.8450000000	2.8042471845
2.8500000000	2.7835837199
2.8550000000	2.7802888873
2.8600000000	2.7935370898
2.8650000000	2.8225842808
2.8700000000	2.8665978973
2.8750000000	2.9245211658
2.8800000000	2.9949687898
2.8850000000	3.0761390585
2.8900000000	3.1658660075
2.8950000000	3.2617005859
2.9000000000	3.3610676725
2.9050000000	3.4804504603
2.9100000000	3.5949562193
2.9150000000	3.7009853812
2.9200000000	3.7947616217
2.9250000000	3.8720010849
2.9300000000	3.9287593676
2.9350000000	3.9588989528
2.9400000000	3.9597723034
2.9450000000	3.9302524054
2.9500000000	3.8720417752
2.9550000000	3.7895627419
2.9600000000	3.6891975135
2.9650000000	3.5781774528
2.9700000000	3.4634947785
2.9750000000	3.3511248859
2.9800000000	3.2456461727
2.9850000000	3.1501822308
2.9900000000	3.0666115989
2.9950000000	2.9958157426
3.0000000000	2.9379798717
