# energy (eV)    P(omega), $W$ = 400 nm, $h$ = 300 nm, $s$ = 20 nm, $d/W = 5$, $E_{\rm e}$ = 200 keV
0.2000000000	0.0419303391
0.2050000000	0.0423117595
0.2100000000	0.0425802954
0.2150000000	0.0427314245
0.2200000000	0.0427588225
0.2250000000	0.0426538982
0.2300000000	0.0424053464
0.2350000000	0.0419984478
0.2400000000	0.0414142724
0.2450000000	0.0406284234
0.2500000000	0.0396097091
0.2550000000	0.0383179951
0.2600000000	0.0367015620
0.2650000000	0.0383951674
0.2700000000	0.0426972353
0.2750000000	0.0488533619
0.2800000000	0.0574305890
0.2850000000	0.0700756632
0.2900000000	0.0857437979
0.2950000000	0.1082053807
0.3000000000	0.1384001481
0.3050000000	0.1846814998
0.3100000000	0.2491499469
0.3150000000	0.3738934804
0.3200000000	0.5687185198
0.3250000000	0.7021037335
0.3300000000	0.8866184611
0.3350000000	1.1481944603
0.3400000000	1.5588158557
0.3450000000	2.2633102715
0.3500000000	3.6681329313
0.3550000000	6.9201218004
0.3600000000	17.0070425796
0.3650000000	0.0768551687
0.3700000000	7.8821507339
0.3750000000	10.3647196458
0.3800000000	4.8295988039
0.3850000000	2.7205548482
0.3900000000	1.7449938959
0.3950000000	1.2296598600
0.4000000000	0.9312818713
0.4050000000	0.7367603757
0.4100000000	0.6101225897
0.4150000000	0.5265979479
0.4200000000	0.4738086410
0.4250000000	0.4323493281
0.4300000000	0.3833593976
0.4350000000	0.3445867547
0.4400000000	0.3139219163
0.4450000000	0.2895397341
0.4500000000	0.2702901071
0.4550000000	0.2550256638
0.4600000000	0.2431181073
0.4650000000	0.2339029092
0.4700000000	0.2269401411
0.4750000000	0.2219219990
0.4800000000	0.2185798792
0.4850000000	0.2166782601
0.4900000000	0.2160778604
0.4950000000	0.2166715224
0.5000000000	0.2183676854
0.5050000000	0.2211255369
0.5100000000	0.2249116425
0.5150000000	0.2297061307
0.5200000000	0.2355189356
0.5250000000	0.2423582032
0.5300000000	0.2503243414
0.5350000000	0.2594619842
0.5400000000	0.2698515087
0.5450000000	0.2815983228
0.5500000000	0.2948515617
0.5550000000	0.3097743556
0.5600000000	0.3265652615
0.5650000000	0.3454796030
0.5700000000	0.3668698443
0.5750000000	0.3909972161
0.5800000000	0.4183505139
0.5850000000	0.4495975927
0.5900000000	0.4851889256
0.5950000000	0.5260724311
0.6000000000	0.5735004320
0.6050000000	0.6284115118
0.6100000000	0.6929572565
0.6150000000	0.7689218802
0.6200000000	0.8593682205
0.6250000000	0.9686904129
0.6300000000	1.1013697149
0.6350000000	1.2658268151
0.6400000000	1.4713519542
0.6450000000	1.7348036203
0.6500000000	2.0777167363
0.6550000000	2.5365693566
0.6600000000	3.1729539456
0.6650000000	4.0841811163
0.6700000000	5.4639953159
0.6750000000	7.6825263146
0.6800000000	11.6041943484
0.6850000000	19.4732678207
0.6900000000	39.0274761147
0.6950000000	109.5557696386
0.7000000000	531.3538680253
0.7050000000	258.3303770550
0.7100000000	66.3595886141
0.7150000000	28.2198086485
0.7200000000	15.4111867291
0.7250000000	9.6809737113
0.7300000000	6.6398062332
0.7350000000	4.8420220140
0.7400000000	3.6907870474
0.7450000000	2.9093747388
0.7500000000	2.3558372758
0.7550000000	1.9491696525
0.7600000000	1.6426553252
0.7650000000	1.4049579870
0.7700000000	1.2173203992
0.7750000000	1.0666826087
0.7800000000	0.9442693152
0.7850000000	0.8434745532
0.7900000000	0.7590319901
0.7950000000	0.6885069619
0.8000000000	0.6285416972
0.8050000000	0.5771668530
0.8100000000	0.5334314556
0.8150000000	0.4950992329
0.8200000000	0.4617269459
0.8250000000	0.4337217367
0.8300000000	0.4092078992
0.8350000000	0.3878966661
0.8400000000	0.3709253597
0.8450000000	0.3561169655
0.8500000000	0.3435609815
0.8550000000	0.3356242542
0.8600000000	0.3292667181
0.8650000000	0.3247145457
0.8700000000	0.3262984498
0.8750000000	0.3268528294
0.8800000000	0.3250930568
0.8850000000	0.3109577615
0.8900000000	0.2413154273
0.8950000000	-0.1076961381
0.9000000000	-1.9791874794
0.9050000000	-13.0047532130
0.9100000000	2.4763610459
0.9150000000	5.8660277713
0.9200000000	2.4351007881
0.9250000000	1.2668103356
0.9300000000	0.7732920426
0.9350000000	0.5375054533
0.9400000000	0.4103087961
0.9450000000	0.3398045267
0.9500000000	0.2897353264
0.9550000000	0.2562196983
0.9600000000	0.2354918770
0.9650000000	0.2183892893
0.9700000000	0.2061857840
0.9750000000	0.1978692406
0.9800000000	0.1928066095
0.9850000000	0.1918795844
0.9900000000	0.1937280336
0.9950000000	0.2011869989
1.0000000000	0.2190176733
1.0050000000	0.2606453729
1.0100000000	0.3697392724
1.0150000000	0.7436359484
1.0200000000	1.4281393872
1.0250000000	0.6492256707
1.0300000000	0.3324959926
1.0350000000	0.2380959017
1.0400000000	0.2009733397
1.0450000000	0.1835575797
1.0500000000	0.1748266866
1.0550000000	0.1702451989
1.0600000000	0.1681873722
1.0650000000	0.1677999592
1.0700000000	0.1686099061
1.0750000000	0.1704505883
1.0800000000	0.1729917368
1.0850000000	0.1764506662
1.0900000000	0.1814494737
1.0950000000	0.1872774254
1.1000000000	0.1939916091
1.1050000000	0.2016040955
1.1100000000	0.2102353451
1.1150000000	0.2200001961
1.1200000000	0.2310349459
1.1250000000	0.2434523886
1.1300000000	0.2575742128
1.1350000000	0.2736172629
1.1400000000	0.2919062648
1.1450000000	0.3128541490
1.1500000000	0.3367822564
1.1550000000	0.3646911115
1.1600000000	0.3972133975
1.1650000000	0.4351778016
1.1700000000	0.4787561201
1.1750000000	0.5229521853
1.1800000000	0.5647764302
1.1850000000	0.7849587215
1.1900000000	0.9741388092
1.1950000000	1.3354009817
1.2000000000	1.8187284785
1.2050000000	1.5953278286
1.2100000000	1.5267478998
1.2150000000	1.6997039579
1.2200000000	2.0328590259
1.2250000000	2.5444811322
1.2300000000	3.3224394888
1.2350000000	4.5530885813
1.2400000000	6.6261173059
1.2450000000	10.5296164009
1.2500000000	18.9834939081
1.2550000000	41.0932969652
1.2600000000	99.2574142519
1.2650000000	100.5436129046
1.2700000000	41.8240825143
1.2750000000	19.3060315669
1.2800000000	10.6920234111
1.2850000000	6.7237791951
1.2900000000	4.6085358708
1.2950000000	3.3587688017
1.3000000000	2.5627224390
1.3050000000	2.0267469425
1.3100000000	1.6487978121
1.3150000000	1.3757107506
1.3200000000	1.1732708469
1.3250000000	1.0209273009
1.3300000000	0.9061976286
1.3350000000	0.8214224012
1.3400000000	0.7626249858
1.3450000000	0.7287147050
1.3500000000	0.7246376365
1.3550000000	0.7616540801
1.3600000000	0.8684154874
1.3650000000	1.1178321464
1.3700000000	1.7134758727
1.3750000000	3.1954882749
1.3800000000	5.2195966602
1.3850000000	3.6462875539
1.3900000000	1.8581766132
1.3950000000	1.0781797131
1.4000000000	0.7061008728
1.4050000000	0.4774197166
1.4100000000	0.2704418790
1.4150000000	-0.0383303268
1.4200000000	-0.7296258953
1.4250000000	-2.5613769178
1.4300000000	-3.4439359952
1.4350000000	1.5778042455
1.4400000000	2.0182544360
1.4450000000	1.2100302735
1.4500000000	0.7529291891
1.4550000000	0.5190267710
1.4600000000	0.3832707083
1.4650000000	0.2759824527
1.4700000000	0.1612230311
1.4750000000	0.1894611628
1.4800000000	0.2777560924
1.4850000000	0.2522117978
1.4900000000	0.2233278725
1.4950000000	0.2046455055
1.5000000000	0.1923726963
1.5050000000	0.1842579225
1.5100000000	0.1787375827
1.5150000000	0.1757255049
1.5200000000	0.1735051673
1.5250000000	0.1727041749
1.5300000000	0.1733963144
1.5350000000	0.1758983633
1.5400000000	0.1810006254
1.5450000000	0.1904582452
1.5500000000	0.2082161322
1.5550000000	0.2421376118
1.5600000000	0.2930561483
1.5650000000	0.3012163665
1.5700000000	0.2552671385
1.5750000000	0.2230234557
1.5800000000	0.2091138806
1.5850000000	0.2047371306
1.5900000000	0.2053042618
1.5950000000	0.2088224060
1.6000000000	0.2144233197
1.6050000000	0.2218080899
1.6100000000	0.2307535201
1.6150000000	0.2412263680
1.6200000000	0.2533934576
1.6250000000	0.2673987019
1.6300000000	0.2834786308
1.6350000000	0.3019381808
1.6400000000	0.3231672839
1.6450000000	0.3476639606
1.6500000000	0.3760533443
1.6550000000	0.4091276558
1.6600000000	0.4479132985
1.6650000000	0.4937351404
1.6700000000	0.5478813627
1.6750000000	0.6135131945
1.6800000000	0.6934248945
1.6850000000	0.7920123476
1.6900000000	0.9155168916
1.6950000000	1.0730974536
1.7000000000	1.2785417409
1.7050000000	1.5619576066
1.7100000000	1.9573730884
1.7150000000	2.5321177687
1.7200000000	3.4080479558
1.7250000000	4.7976762836
1.7300000000	6.9331553592
1.7350000000	9.6736729376
1.7400000000	13.1381288581
1.7450000000	19.2176709143
1.7500000000	27.1094725437
1.7550000000	27.5455670270
1.7600000000	19.3249716296
1.7650000000	12.0376542464
1.7700000000	7.7166090068
1.7750000000	5.2595034577
1.7800000000	3.8074591548
1.7850000000	2.9142722416
1.7900000000	2.3603610987
1.7950000000	2.0434204102
1.8000000000	1.9154956510
1.8050000000	1.8749954343
1.8100000000	1.6682069839
1.8150000000	1.2926210981
1.8200000000	0.9925537389
1.8250000000	0.8378396891
1.8300000000	0.7294258109
1.8350000000	0.6330761340
1.8400000000	0.5545102006
1.8450000000	0.4921631848
1.8500000000	0.4419179831
1.8550000000	0.4004096750
1.8600000000	0.3622275944
1.8650000000	0.3299479278
1.8700000000	0.2973241201
1.8750000000	0.2502943354
1.8800000000	0.1430925340
1.8850000000	-0.0918592513
1.8900000000	-0.4078831635
1.8950000000	-0.4621060902
1.9000000000	0.0494494639
1.9050000000	0.5264010432
1.9100000000	0.5820551570
1.9150000000	0.4917286792
1.9200000000	0.4032003990
1.9250000000	0.3403804371
1.9300000000	0.3023364385
1.9350000000	0.2732914646
1.9400000000	0.2539699827
1.9450000000	0.2411801594
1.9500000000	0.2322403623
1.9550000000	0.2247597232
1.9600000000	0.2183004591
1.9650000000	0.2137137199
1.9700000000	0.2112642248
1.9750000000	0.2107890061
1.9800000000	0.2121559482
1.9850000000	0.2154047210
1.9900000000	0.2207486040
1.9950000000	0.2284544091
2.0000000000	0.2383217353
2.0050000000	0.2495156376
2.0100000000	0.2575452484
2.0150000000	0.2629005919
2.0200000000	0.2693581276
2.0250000000	0.2793258428
2.0300000000	0.2935123527
2.0350000000	0.3122723790
2.0400000000	0.3362500395
2.0450000000	0.3665629624
2.0500000000	0.4048162820
2.0550000000	0.4527937857
2.0600000000	0.5113606215
2.0650000000	0.5795960056
2.0700000000	0.6585249299
2.0750000000	0.7569521359
2.0800000000	0.8894141535
2.0850000000	1.0700842184
2.0900000000	1.3072050908
2.0950000000	1.5837407034
2.1000000000	1.8302113596
2.1050000000	1.9496424444
2.1100000000	1.8929272113
2.1150000000	1.7624166992
2.1200000000	1.6701710898
2.1250000000	1.6662368694
2.1300000000	1.7654619159
2.1350000000	1.9796145693
2.1400000000	2.3322661962
2.1450000000	2.8651181128
2.1500000000	3.6365658905
2.1550000000	4.6904736964
2.1600000000	5.9418508538
2.1650000000	6.9936112657
2.1700000000	7.2421266855
2.1750000000	6.4828736996
2.1800000000	5.2337939941
2.1850000000	4.0381174641
2.1900000000	3.1032756086
2.1950000000	2.4278805486
2.2000000000	1.9540353973
2.2050000000	1.6271220384
2.2100000000	1.4001778450
2.2150000000	1.2261095742
2.2200000000	1.0701330022
2.2250000000	0.9217736915
2.2300000000	0.7874444294
2.2350000000	0.6721041464
2.2400000000	0.5744150285
2.2450000000	0.4900642325
2.2500000000	0.4147588641
2.2550000000	0.3460980231
2.2600000000	0.2774359291
2.2650000000	0.2274859829
2.2700000000	0.2003531893
2.2750000000	0.2071837012
2.2800000000	0.2465921654
2.2850000000	0.2967743219
2.2900000000	0.3335066286
2.2950000000	0.3497869049
2.3000000000	0.3516490479
2.3050000000	0.3460315409
2.3100000000	0.3386317426
2.3150000000	0.3320749465
2.3200000000	0.3273990912
2.3250000000	0.3251742611
2.3300000000	0.3258617516
2.3350000000	0.3298436792
2.3400000000	0.3374464512
2.3450000000	0.3490003123
2.3500000000	0.3648551208
2.3550000000	0.3855353602
2.3600000000	0.4107014530
2.3650000000	0.4405099554
2.3700000000	0.4748779568
2.3750000000	0.5141785286
2.3800000000	0.5598303297
2.3850000000	0.6135167313
2.3900000000	0.6756099793
2.3950000000	0.7433451748
2.4000000000	0.8096144166
2.4050000000	0.8667239027
2.4100000000	0.8983783634
2.4150000000	0.9014042188
2.4200000000	0.8835403702
2.4250000000	0.8579837019
2.4300000000	0.8364467401
2.4350000000	0.8259997026
2.4400000000	0.8294639389
2.4450000000	0.8472953216
2.4500000000	0.8795508545
2.4550000000	0.9269492890
2.4600000000	0.9925293398
2.4650000000	1.0794060528
2.4700000000	1.1910482536
2.4750000000	1.3296224829
2.4800000000	1.4940354025
2.4850000000	1.6772719412
2.4900000000	1.8632852706
2.4950000000	2.0254465287
2.5000000000	2.1304336079
2.5050000000	2.1439306954
2.5100000000	2.0522357625
2.5150000000	1.8803770807
2.5200000000	1.6683454089
2.5250000000	1.4512737106
2.5300000000	1.2505776754
2.5350000000	1.0752554587
2.5400000000	0.9266317782
2.5450000000	0.8025015493
2.5500000000	0.6996692768
2.5550000000	0.6152638406
2.5600000000	0.5446865282
2.5650000000	0.4918679733
2.5700000000	0.4539163756
2.5750000000	0.4294782683
2.5800000000	0.4158410870
2.5850000000	0.4092949384
2.5900000000	0.4063581677
2.5950000000	0.4048627756
2.6000000000	0.4041097279
2.6050000000	0.4073321056
2.6100000000	0.4124375844
2.6150000000	0.4202078922
2.6200000000	0.4310583540
2.6250000000	0.4450145584
2.6300000000	0.4616825675
2.6350000000	0.4802262895
2.6400000000	0.4993682243
2.6450000000	0.5174884029
2.6500000000	0.5328711913
2.6550000000	0.5441099516
2.6600000000	0.5505512874
2.6650000000	0.5525789883
2.6700000000	0.5515328354
2.6750000000	0.5493712660
2.6800000000	0.5479919784
2.6850000000	0.5491679849
2.6900000000	0.5541340204
2.6950000000	0.5636488974
2.7000000000	0.5780764426
2.7050000000	0.5996728849
2.7100000000	0.6274667566
2.7150000000	0.6610087080
2.7200000000	0.6993698913
2.7250000000	0.7409735659
2.7300000000	0.7834393612
2.7350000000	0.8235580434
2.7400000000	0.8575122793
2.7450000000	0.8814261719
2.7500000000	0.8921757011
2.7550000000	0.8881869222
2.7600000000	0.8698619787
2.7650000000	0.8394339115
2.7700000000	0.8003197736
2.7750000000	0.7563054237
2.7800000000	0.7108623541
2.7850000000	0.6667676587
2.7900000000	0.6256313483
2.7950000000	0.5892152274
2.8000000000	0.5578837693
2.8050000000	0.5288650290
2.8100000000	0.5059857635
2.8150000000	0.4883452326
2.8200000000	0.4749649242
2.8250000000	0.4649469219
2.8300000000	0.4575280726
2.8350000000	0.4520753679
2.8400000000	0.4480539292
2.8450000000	0.4450096383
2.8500000000	0.4425778413
2.8550000000	0.4405164601
2.8600000000	0.4387435418
2.8650000000	0.4373493636
2.8700000000	0.4365735010
2.8750000000	0.4367454530
2.8800000000	0.4382116844
2.8850000000	0.4412698107
2.8900000000	0.4461227768
2.8950000000	0.4528512145
2.9000000000	0.4613998491
2.9050000000	0.4741869073
2.9100000000	0.4882094629
2.9150000000	0.5025312814
2.9200000000	0.5159691631
2.9250000000	0.5272520647
2.9300000000	0.5351998578
2.9350000000	0.5389301729
2.9400000000	0.5380291525
2.9450000000	0.5326304790
2.9500000000	0.5233653898
2.9550000000	0.5112017913
2.9600000000	0.4972402611
2.9650000000	0.4825232935
2.9700000000	0.4679082238
2.9750000000	0.4540116398
2.9800000000	0.4412131502
2.9850000000	0.4296963775
2.9900000000	0.4195040242
2.9950000000	0.4105913997
3.0000000000	0.4028701042
