# energy (eV)    P(omega), $W$ = 300 nm, $h$ = 300 nm, $s$ = 20 nm, $d/W = 5$, $E_{\rm e}$ = 200 keV
0.2000000000	0.5441494105
0.2050000000	0.5519627856
0.2100000000	0.5593070599
0.2150000000	0.5661969189
0.2200000000	0.5726450146
0.2250000000	0.5786618105
0.2300000000	0.5842550001
0.2350000000	0.5894293767
0.2400000000	0.5941863269
0.2450000000	0.5985226183
0.2500000000	0.6024310886
0.2550000000	0.6058979627
0.2600000000	0.6089030981
0.2650000000	0.6114184212
0.2700000000	0.6134054658
0.2750000000	0.6148138336
0.2800000000	0.6155782170
0.2850000000	0.6156151319
0.2900000000	0.6148172978
0.2950000000	0.6130494416
0.3000000000	0.6101373544
0.3050000000	0.6058609733
0.3100000000	0.5999377876
0.3150000000	0.6322502008
0.3200000000	0.6706312783
0.3250000000	0.7191495348
0.3300000000	0.7840753940
0.3350000000	0.8649179613
0.3400000000	0.9707936220
0.3450000000	1.0993240172
0.3500000000	1.2675345299
0.3550000000	1.4902192902
0.3600000000	1.7811953930
0.3650000000	2.1870381394
0.3700000000	2.7226958162
0.3750000000	3.4683827073
0.3800000000	4.5476326581
0.3850000000	6.2303413413
0.3900000000	8.8906654545
0.3950000000	13.4128551621
0.4000000000	22.0395447776
0.4050000000	41.3932725770
0.4100000000	94.2402128883
0.4150000000	302.6913092941
0.4200000000	192.6696810763
0.4250000000	-363.7010023284
0.4300000000	101.3520045811
0.4350000000	63.2394071207
0.4400000000	38.7168624421
0.4450000000	25.5074267258
0.4500000000	17.8981047396
0.4550000000	13.2125522031
0.4600000000	10.1591398214
0.4650000000	8.0773446004
0.4700000000	6.6052963190
0.4750000000	5.5403369727
0.4800000000	4.7505901652
0.4850000000	4.1563202058
0.4900000000	3.7028028055
0.4950000000	3.3532852657
0.5000000000	3.0826534080
0.5050000000	2.8724594392
0.5100000000	2.7108482635
0.5150000000	2.5890970158
0.5200000000	2.4980337673
0.5250000000	2.4335734879
0.5300000000	2.3912953214
0.5350000000	2.3679750478
0.5400000000	2.3612394902
0.5450000000	2.3691077391
0.5500000000	2.3909894052
0.5550000000	2.4257794434
0.5600000000	2.4729395870
0.5650000000	2.5322423304
0.5700000000	2.6034950852
0.5750000000	2.6872080213
0.5800000000	2.7842096241
0.5850000000	2.8950447755
0.5900000000	3.0207493137
0.5950000000	3.1626082947
0.6000000000	3.3222565102
0.6050000000	3.5020371409
0.6100000000	3.7042073823
0.6150000000	3.9318307879
0.6200000000	4.1889964647
0.6250000000	4.4796193457
0.6300000000	4.8094863004
0.6350000000	5.1858100111
0.6400000000	5.6160984671
0.6450000000	6.1111832091
0.6500000000	6.6853119763
0.6550000000	7.3533182174
0.6600000000	8.1379910732
0.6650000000	9.0685968387
0.6700000000	10.1795398808
0.6750000000	11.5232647925
0.6800000000	13.1703835515
0.6850000000	15.2133280141
0.6900000000	17.7953758240
0.6950000000	21.1168479457
0.7000000000	25.4961424231
0.7050000000	31.4199883610
0.7100000000	39.7133500580
0.7150000000	51.8449434244
0.7200000000	70.5496532159
0.7250000000	101.6097628087
0.7300000000	158.6425249355
0.7350000000	280.7230358286
0.7400000000	615.6659657507
0.7450000000	2043.9521922168
0.7500000000	6336.8647605898
0.7550000000	1595.3747455662
0.7600000000	528.7545570006
0.7650000000	253.5450993787
0.7700000000	147.5686211188
0.7750000000	96.3905246956
0.7800000000	67.8887989317
0.7850000000	50.4622490035
0.7900000000	39.0185480277
0.7950000000	31.1232393726
0.8000000000	25.4456508030
0.8050000000	21.2156817409
0.8100000000	17.9889917942
0.8150000000	15.4301363357
0.8200000000	13.4099857267
0.8250000000	11.7829270103
0.8300000000	10.4496652362
0.8350000000	9.3532381747
0.8400000000	8.4338973585
0.8450000000	7.6622823336
0.8500000000	7.0099934968
0.8550000000	6.4469364569
0.8600000000	5.9662656003
0.8650000000	5.5557886110
0.8700000000	5.1929885312
0.8750000000	4.8845371394
0.8800000000	4.6230468622
0.8850000000	4.3885817604
0.8900000000	4.2010008560
0.8950000000	4.0303395461
0.9000000000	3.8956302811
0.9050000000	3.8038884369
0.9100000000	3.7198662473
0.9150000000	3.6701633328
0.9200000000	3.6672229229
0.9250000000	3.6656792859
0.9300000000	3.6144276615
0.9350000000	3.4539373565
0.9400000000	2.5479420076
0.9450000000	-1.5805711137
0.9500000000	-23.3902001700
0.9550000000	-134.0914235481
0.9600000000	31.6725449671
0.9650000000	55.6678955239
0.9700000000	24.7075848182
0.9750000000	12.9768190064
0.9800000000	8.1347501075
0.9850000000	5.8694708540
0.9900000000	4.5636006667
0.9950000000	3.7714859125
1.0000000000	3.2656237173
1.0050000000	2.9450572025
1.0100000000	2.6962585676
1.0150000000	2.5143883014
1.0200000000	2.3919431518
1.0250000000	2.2888989766
1.0300000000	2.2104430344
1.0350000000	2.1508776791
1.0400000000	2.1128294804
1.0450000000	2.0808378992
1.0500000000	2.0593064319
1.0550000000	2.0470023877
1.0600000000	2.0467698494
1.0650000000	2.0506947566
1.0700000000	2.0619724128
1.0750000000	2.0806401726
1.0800000000	2.1087924408
1.0850000000	2.1445833754
1.0900000000	2.1979351865
1.0950000000	2.2613822570
1.1000000000	2.3371523358
1.1050000000	2.4242705280
1.1100000000	2.5255830688
1.1150000000	2.6433347447
1.1200000000	2.7802808305
1.1250000000	2.9395637460
1.1300000000	3.1259352169
1.1350000000	3.3451331750
1.1400000000	3.6037993381
1.1450000000	3.9135717653
1.1500000000	4.2875096127
1.1550000000	4.7443014717
1.1600000000	5.3103101368
1.1650000000	6.0198439777
1.1700000000	6.9366537788
1.1750000000	8.1458261476
1.1800000000	9.7878149555
1.1850000000	12.0933575568
1.1900000000	15.4979627105
1.1950000000	20.8363480593
1.2000000000	29.8837068724
1.2050000000	46.9719461238
1.2100000000	84.5536535885
1.2150000000	186.1492971467
1.2200000000	456.5445891923
1.2250000000	410.5816735560
1.2300000000	164.2666777835
1.2350000000	77.4516824468
1.2400000000	44.5853323760
1.2450000000	29.5235347958
1.2500000000	21.6107118940
1.2550000000	17.0810904631
1.2600000000	14.3669050411
1.2650000000	12.7151812796
1.2700000000	11.7932263465
1.2750000000	11.3864092280
1.2800000000	11.3977062000
1.2850000000	11.7915952132
1.2900000000	12.5788314229
1.2950000000	13.8042905277
1.3000000000	15.6087662130
1.3050000000	18.1755636113
1.3100000000	21.8361809761
1.3150000000	27.1617499868
1.3200000000	35.1747893163
1.3250000000	47.8280029023
1.3300000000	69.3833585569
1.3350000000	109.7365146414
1.3400000000	195.9766904909
1.3450000000	410.1169047378
1.3500000000	871.2364347745
1.3550000000	813.0833968447
1.3600000000	375.0953148783
1.3650000000	184.3254450587
1.3700000000	105.7083677233
1.3750000000	67.9736606672
1.3800000000	47.3978925724
1.3850000000	35.0053366103
1.3900000000	27.0224178420
1.3950000000	21.5794804349
1.4000000000	17.7144118683
1.4050000000	14.8842496206
1.4100000000	12.7634226673
1.4150000000	11.1632701240
1.4200000000	9.9602527867
1.4250000000	9.1551428618
1.4300000000	8.8620403494
1.4350000000	9.0300623041
1.4400000000	6.9592362730
1.4450000000	0.6116539595
1.4500000000	-9.6886936365
1.4550000000	-2.7121902528
1.4600000000	11.7478836099
1.4650000000	6.3573624750
1.4700000000	-6.0168738719
1.4750000000	-26.3140452332
1.4800000000	-11.7118061674
1.4850000000	19.2458231003
1.4900000000	15.6009367789
1.4950000000	10.0980537886
1.5000000000	7.0951298810
1.5050000000	5.4782336690
1.5100000000	4.5566928598
1.5150000000	3.9970957842
1.5200000000	3.6356606071
1.5250000000	3.4111501451
1.5300000000	3.2397130557
1.5350000000	3.1216248920
1.5400000000	3.0439467559
1.5450000000	2.9997456693
1.5500000000	2.9845526014
1.5550000000	2.9985107049
1.5600000000	3.0496489136
1.5650000000	3.1339338537
1.5700000000	3.2702186878
1.5750000000	3.4815544534
1.5800000000	3.8112110048
1.5850000000	4.3434101304
1.5900000000	5.2555893058
1.5950000000	6.9403987603
1.6000000000	10.2272275163
1.6050000000	15.6619278676
1.6100000000	18.1784980453
1.6150000000	13.4591297605
1.6200000000	9.0318064439
1.6250000000	6.6944459929
1.6300000000	5.5204314508
1.6350000000	4.9155333567
1.6400000000	4.6083883190
1.6450000000	4.4728646460
1.6500000000	4.4457939110
1.6550000000	4.4975641736
1.6600000000	4.6104976083
1.6650000000	4.7765020548
1.6700000000	4.9924751300
1.6750000000	5.2583940657
1.6800000000	5.5766052139
1.6850000000	5.9507639596
1.6900000000	6.3840847471
1.6950000000	6.8703001420
1.7000000000	7.4010444425
1.7050000000	7.9441833388
1.7100000000	8.5634319471
1.7150000000	10.1090476255
1.7200000000	12.8243667093
1.7250000000	15.3089993472
1.7300000000	17.9729824411
1.7350000000	20.9004609181
1.7400000000	23.7743489477
1.7450000000	27.4662465387
1.7500000000	33.0488244855
1.7550000000	41.3574799459
1.7600000000	53.7885303893
1.7650000000	72.9509937957
1.7700000000	103.8183347726
1.7750000000	155.8218459550
1.7800000000	244.4350134490
1.7850000000	375.1192756354
1.7900000000	466.1742015312
1.7950000000	396.9582548761
1.8000000000	264.1884871144
1.8050000000	166.8424646745
1.8100000000	110.0043721260
1.8150000000	76.6893031242
1.8200000000	56.1867795103
1.8250000000	42.8949595012
1.8300000000	33.8703344793
1.8350000000	27.5004507426
1.8400000000	22.8597770095
1.8450000000	19.3868717349
1.8500000000	16.7279087560
1.8550000000	14.6614936476
1.8600000000	13.0331960699
1.8650000000	11.7380743614
1.8700000000	10.7015064778
1.8750000000	9.8687348232
1.8800000000	9.1963536791
1.8850000000	8.6460536932
1.8900000000	8.1737286614
1.8950000000	7.7135750200
1.9000000000	7.1519398063
1.9050000000	6.0873324369
1.9100000000	4.6231264764
1.9150000000	3.8576384340
1.9200000000	9.3840380030
1.9250000000	24.6249116894
1.9300000000	36.7112989042
1.9350000000	36.1415193047
1.9400000000	28.4229006956
1.9450000000	20.9401340366
1.9500000000	15.6866456993
1.9550000000	12.2445740730
1.9600000000	9.9700517285
1.9650000000	8.4476369750
1.9700000000	7.3486942437
1.9750000000	6.5431270711
1.9800000000	5.9280873693
1.9850000000	5.4289501092
1.9900000000	4.9886052858
1.9950000000	4.5571993384
2.0000000000	4.1274742590
2.0050000000	3.8528438808
2.0100000000	4.0100784228
2.0150000000	4.4433386408
2.0200000000	4.7103679224
2.0250000000	4.7810777788
2.0300000000	4.7966860493
2.0350000000	4.8252957074
2.0400000000	4.8921783784
2.0450000000	5.0037565101
2.0500000000	5.1641748938
2.0550000000	5.3771929604
2.0600000000	5.6428095042
2.0650000000	5.9449680262
2.0700000000	6.2438552445
2.0750000000	6.5096475665
2.0800000000	6.7687019275
2.0850000000	7.0754993380
2.0900000000	7.4665782148
2.0950000000	7.9573481355
2.1000000000	8.5644178929
2.1050000000	9.2823085434
2.1100000000	10.1614790683
2.1150000000	11.2388191272
2.1200000000	12.5660556395
2.1250000000	14.2157375658
2.1300000000	16.2901324371
2.1350000000	18.9352388818
2.1400000000	22.3618812283
2.1450000000	26.8782810914
2.1500000000	32.9335346625
2.1550000000	41.1632364826
2.1600000000	52.3808443467
2.1650000000	67.2752531392
2.1700000000	85.5707142954
2.1750000000	103.7596634090
2.1800000000	114.9963541284
2.1850000000	115.5757350018
2.1900000000	110.4587744985
2.1950000000	106.4742184734
2.2000000000	104.7043916774
2.2050000000	99.8068078785
2.2100000000	89.4170129367
2.2150000000	76.6457572830
2.2200000000	65.1823160486
2.2250000000	55.7066590502
2.2300000000	47.3580653287
2.2350000000	39.8052820438
2.2400000000	33.3157000939
2.2450000000	28.1227697660
2.2500000000	24.1423298157
2.2550000000	21.1529340395
2.2600000000	18.9155658852
2.2650000000	17.1905153661
2.2700000000	15.7184090732
2.2750000000	14.2434670474
2.2800000000	12.6541650522
2.2850000000	11.1405686840
2.2900000000	10.0934791248
2.2950000000	9.7344283219
2.3000000000	9.8602489728
2.3050000000	10.0537041800
2.3100000000	10.0692219289
2.3150000000	9.9087557502
2.3200000000	9.6786247788
2.3250000000	9.4886449303
2.3300000000	9.3949875118
2.3350000000	9.4072307983
2.3400000000	9.4937105765
2.3450000000	9.5828460282
2.3500000000	9.5845116187
2.3550000000	9.4412094911
2.3600000000	9.1692144952
2.3650000000	8.8396462419
2.3700000000	8.5258134449
2.3750000000	8.2715134222
2.3800000000	8.0910060573
2.3850000000	7.9803227364
2.3900000000	7.9303414804
2.3950000000	7.9304819409
2.4000000000	7.9836012933
2.4050000000	8.1072854836
2.4100000000	8.3074188946
2.4150000000	8.5921361285
2.4200000000	8.9663103209
2.4250000000	9.4385316640
2.4300000000	10.0213531230
2.4350000000	10.7316194217
2.4400000000	11.5910649467
2.4450000000	12.6274484195
2.4500000000	13.8757811883
2.4550000000	15.3800766648
2.4600000000	17.1944053949
2.4650000000	19.3836428841
2.4700000000	22.0221947530
2.4750000000	25.1845883829
2.4800000000	28.9477895582
2.4850000000	33.3422684735
2.4900000000	38.3250886094
2.4950000000	43.7179978356
2.5000000000	49.1440445200
2.5050000000	54.2204181636
2.5100000000	57.6508893229
2.5150000000	58.6876042304
2.5200000000	57.1518395391
2.5250000000	53.5176846988
2.5300000000	48.6118629843
2.5350000000	43.2322006315
2.5400000000	37.9426811471
2.5450000000	33.0621706278
2.5500000000	28.7325761383
2.5550000000	24.9862596959
2.5600000000	21.7717334717
2.5650000000	19.0692068739
2.5700000000	16.8149909709
2.5750000000	14.9692091698
2.5800000000	13.5020753328
2.5850000000	12.3812372976
2.5900000000	11.5535124240
2.5950000000	10.9441502411
2.6000000000	10.4753225976
2.6050000000	10.1421547286
2.6100000000	9.8537415584
2.6150000000	9.6055039622
2.6200000000	9.4023389676
2.6250000000	9.2496714217
2.6300000000	9.1511284335
2.6350000000	9.1085585918
2.6400000000	9.1230396227
2.6450000000	9.1955697480
2.6500000000	9.3281052217
2.6550000000	9.5211936366
2.6600000000	9.7777853917
2.6650000000	10.1008609688
2.6700000000	10.4940855917
2.6750000000	10.9619032350
2.6800000000	11.5092476110
2.6850000000	12.1411655188
2.6900000000	12.8617928418
2.6950000000	13.6735208156
2.7000000000	14.5755178574
2.7050000000	15.6703519902
2.7100000000	16.8650857225
2.7150000000	18.1363858072
2.7200000000	19.4503371551
2.7250000000	20.7643679912
2.7300000000	22.0304874119
2.7350000000	23.1980746890
2.7400000000	24.2145456121
2.7450000000	25.0332879980
2.7500000000	25.5819560552
2.7550000000	25.8168022854
2.7600000000	25.7046267540
2.7650000000	25.2416130043
2.7700000000	24.4587487639
2.7750000000	23.4180797032
2.7800000000	22.2004694512
2.7850000000	20.8916966733
2.7900000000	19.5687288560
2.7950000000	18.2932846442
2.8000000000	17.1090059007
2.8050000000	15.9108470076
2.8100000000	14.8854407075
2.8150000000	14.0300291772
2.8200000000	13.3308354005
2.8250000000	12.7697043153
2.8300000000	12.3283502821
2.8350000000	11.9911212330
2.8400000000	11.7415426671
2.8450000000	11.5801856889
2.8500000000	11.4950794060
2.8550000000	11.4816625124
2.8600000000	11.5365304240
2.8650000000	11.6566159050
2.8700000000	11.8384809589
2.8750000000	12.0777631019
2.8800000000	12.3687364526
2.8850000000	12.7039548199
2.8900000000	13.0744661628
2.8950000000	13.4701473562
2.9000000000	13.8803566597
2.9050000000	14.3730979363
2.9100000000	14.8456242656
2.9150000000	15.2830902219
2.9200000000	15.6699295144
2.9250000000	15.9884852851
2.9300000000	16.2224968222
2.9350000000	16.3466533519
2.9400000000	16.3500413826
2.9450000000	16.2280182928
2.9500000000	15.9876171128
2.9550000000	15.6470915501
2.9600000000	15.2327834295
2.9650000000	14.7745351608
2.9700000000	14.3012007021
2.9750000000	13.8374361811
2.9800000000	13.4021348845
2.9850000000	13.0081820584
2.9900000000	12.6633289677
2.9950000000	12.3712126012
3.0000000000	12.1325951365
