# energy (eV)    P(omega), $W$ = 300 nm, $h$ = 300 nm, $s$ = 20 nm, $d/W = 5$, $E_{\rm e}$ = 200 keV
0.2000000000	0.0625079637
0.2050000000	0.0634598448
0.2100000000	0.0643444216
0.2150000000	0.0651639414
0.2200000000	0.0659204276
0.2250000000	0.0666155504
0.2300000000	0.0672506438
0.2350000000	0.0678266368
0.2400000000	0.0683440018
0.2450000000	0.0688026729
0.2500000000	0.0692019804
0.2550000000	0.0695404835
0.2600000000	0.0698159402
0.2650000000	0.0700250181
0.2700000000	0.0701631883
0.2750000000	0.0702243857
0.2800000000	0.0702007011
0.2850000000	0.0700819266
0.2900000000	0.0698550056
0.2950000000	0.0695033021
0.3000000000	0.0690055836
0.3050000000	0.0683347912
0.3100000000	0.0674562676
0.3150000000	0.0714289841
0.3200000000	0.0761468624
0.3250000000	0.0821181831
0.3300000000	0.0901225078
0.3350000000	0.1000828877
0.3400000000	0.1131256933
0.3450000000	0.1289312947
0.3500000000	0.1495990801
0.3550000000	0.1769320836
0.3600000000	0.2125930379
0.3650000000	0.2622825725
0.3700000000	0.3277354955
0.3750000000	0.4187103740
0.3800000000	0.5501861886
0.3850000000	0.7549168057
0.3900000000	1.0780884580
0.3950000000	1.6266065383
0.4000000000	2.6715301058
0.4050000000	5.0125693020
0.4100000000	11.3955023766
0.4150000000	36.5354874354
0.4200000000	23.2938857149
0.4250000000	-43.7238184005
0.4300000000	12.1346296726
0.4350000000	7.5519161032
0.4400000000	4.6096209491
0.4450000000	3.0270090685
0.4500000000	2.1165720559
0.4550000000	1.5566557496
0.4600000000	1.1922039785
0.4650000000	0.9439870473
0.4700000000	0.7686336514
0.4750000000	0.6418572449
0.4800000000	0.5478819927
0.4850000000	0.4771676785
0.4900000000	0.4231752879
0.4950000000	0.3815170788
0.5000000000	0.3491933588
0.5050000000	0.3240055952
0.5100000000	0.3045356945
0.5150000000	0.2897385991
0.5200000000	0.2785288922
0.5250000000	0.2704115366
0.5300000000	0.2648602311
0.5350000000	0.2614883991
0.5400000000	0.2600106512
0.5450000000	0.2601886947
0.5500000000	0.2619423904
0.5550000000	0.2651359140
0.5600000000	0.2696968786
0.5650000000	0.2755906869
0.5700000000	0.2827839701
0.5750000000	0.2913258788
0.5800000000	0.3012959530
0.5850000000	0.3127450417
0.5900000000	0.3257751992
0.5950000000	0.3405171052
0.6000000000	0.3571366067
0.6050000000	0.3758784117
0.6100000000	0.3969728795
0.6150000000	0.4207372958
0.6200000000	0.4475952363
0.6250000000	0.4779523533
0.6300000000	0.5124094782
0.6350000000	0.5517152226
0.6400000000	0.5966475256
0.6450000000	0.6483312027
0.6500000000	0.7082440017
0.6550000000	0.7779233434
0.6600000000	0.8597343349
0.6650000000	0.9567084161
0.6700000000	1.0724088597
0.6750000000	1.2122722288
0.6800000000	1.3836059564
0.6850000000	1.5959790243
0.6900000000	1.8642112409
0.6950000000	2.2090246311
0.7000000000	2.6633304564
0.7050000000	3.2774283185
0.7100000000	4.1365285844
0.7150000000	5.3922942493
0.7200000000	7.3269961883
0.7250000000	10.5372008524
0.7300000000	16.4272032345
0.7350000000	29.0248969821
0.7400000000	63.5596825245
0.7450000000	210.6906117025
0.7500000000	652.2014342757
0.7550000000	163.9446503873
0.7600000000	54.2512543660
0.7650000000	25.9732871421
0.7700000000	15.0929983001
0.7750000000	9.8428457209
0.7800000000	6.9212353951
0.7850000000	5.1362467844
0.7900000000	3.9649491102
0.7950000000	3.1574389063
0.8000000000	2.5771654177
0.8050000000	2.1451515989
0.8100000000	1.8158372404
0.8150000000	1.5548979756
0.8200000000	1.3490248812
0.8250000000	1.1833119660
0.8300000000	1.0476144331
0.8350000000	0.9360737453
0.8400000000	0.8425974883
0.8450000000	0.7641767738
0.8500000000	0.6978969214
0.8550000000	0.6407171385
0.8600000000	0.5919069468
0.8650000000	0.5502089964
0.8700000000	0.5133758239
0.8750000000	0.4820293644
0.8800000000	0.4554105572
0.8850000000	0.4315476335
0.8900000000	0.4123587521
0.8950000000	0.3949040452
0.9000000000	0.3810185135
0.9050000000	0.3713584876
0.9100000000	0.3624994350
0.9150000000	0.3570042897
0.9200000000	0.3560526765
0.9250000000	0.3552814808
0.9300000000	0.3498292097
0.9350000000	0.3341176981
0.9400000000	0.2477889694
0.9450000000	-0.1435082118
0.9500000000	-2.2062678671
0.9550000000	-12.6607590428
0.9600000000	2.9860738311
0.9650000000	5.2411021122
0.9700000000	2.3235219998
0.9750000000	1.2196394644
0.9800000000	0.7644870126
0.9850000000	0.5516679174
0.9900000000	0.4291045413
0.9950000000	0.3548072423
1.0000000000	0.3073744038
1.0050000000	0.2772891338
1.0100000000	0.2539884569
1.0150000000	0.2369729060
1.0200000000	0.2255047510
1.0250000000	0.2159004562
1.0300000000	0.2086167487
1.0350000000	0.2031221133
1.0400000000	0.1996401345
1.0450000000	0.1967721482
1.0500000000	0.1949118377
1.0550000000	0.1939458620
1.0600000000	0.1941245266
1.0650000000	0.1947502286
1.0700000000	0.1961093028
1.0750000000	0.1982077148
1.0800000000	0.2012344933
1.0850000000	0.2050728554
1.0900000000	0.2106984534
1.0950000000	0.2173707100
1.1000000000	0.2253064671
1.1050000000	0.2344681420
1.1100000000	0.2451367225
1.1150000000	0.2575545769
1.1200000000	0.2720000318
1.1250000000	0.2888757135
1.1300000000	0.3086754140
1.1350000000	0.3320293329
1.1400000000	0.3596450585
1.1450000000	0.3928563043
1.1500000000	0.4330788448
1.1550000000	0.4823751669
1.1600000000	0.5436552870
1.1650000000	0.6206850262
1.1700000000	0.7205654573
1.1750000000	0.8526821985
1.1800000000	1.0325656495
1.1850000000	1.2857539362
1.1900000000	1.6603218568
1.1950000000	2.2486952824
1.2000000000	3.2470540965
1.2050000000	5.1340560289
1.2100000000	9.2850823602
1.2150000000	20.5022555010
1.2200000000	50.3237694793
1.2250000000	45.1696455323
1.2300000000	17.9768374667
1.2350000000	8.3990876587
1.2400000000	4.7706800796
1.2450000000	3.1028349140
1.2500000000	2.2206868953
1.2550000000	1.7089217892
1.2600000000	1.3944499172
1.2650000000	1.1939380112
1.2700000000	1.0697541981
1.2750000000	0.9974383330
1.2800000000	0.9649622528
1.2850000000	0.9665675765
1.2900000000	1.0007778612
1.2950000000	1.0691001782
1.3000000000	1.1807109530
1.3050000000	1.3472214090
1.3100000000	1.5910136665
1.3150000000	1.9510012299
1.3200000000	2.4974301563
1.3250000000	3.3639784903
1.3300000000	4.8443682146
1.3350000000	7.6186619959
1.3400000000	13.5486062662
1.3450000000	28.2663919846
1.3500000000	59.9243634630
1.3550000000	55.8503253014
1.3600000000	25.7457678446
1.3650000000	12.6485470525
1.3700000000	7.2544244952
1.3750000000	4.6662560693
1.3800000000	3.2551355226
1.3850000000	2.4049940517
1.3900000000	1.8568235069
1.3950000000	1.4826294770
1.4000000000	1.2160734887
1.4050000000	1.0197990516
1.4100000000	0.8709797331
1.4150000000	0.7556355278
1.4200000000	0.6633632943
1.4250000000	0.5894576398
1.4300000000	0.5296688170
1.4350000000	0.4688765906
1.4400000000	0.2764136307
1.4450000000	-0.2220043242
1.4500000000	-1.1338000249
1.4550000000	-0.4117757645
1.4600000000	1.0344963775
1.4650000000	0.6295181143
1.4700000000	-0.2686335454
1.4750000000	-1.6416368020
1.4800000000	-0.7155555684
1.4850000000	1.2886883735
1.4900000000	1.0425611942
1.4950000000	0.6793003180
1.5000000000	0.4804657973
1.5050000000	0.3724523471
1.5100000000	0.3105292115
1.5150000000	0.2724151497
1.5200000000	0.2473447826
1.5250000000	0.2313874791
1.5300000000	0.2187099079
1.5350000000	0.2094313282
1.5400000000	0.2026362939
1.5450000000	0.1977656112
1.5500000000	0.1944525872
1.5550000000	0.1925118545
1.5600000000	0.1922553224
1.5650000000	0.1929676412
1.5700000000	0.1953008583
1.5750000000	0.1996991678
1.5800000000	0.2070636501
1.5850000000	0.2191689609
1.5900000000	0.2397578803
1.5950000000	0.2770550403
1.6000000000	0.3481997027
1.6050000000	0.4633749807
1.6100000000	0.5144652140
1.6150000000	0.4155057337
1.6200000000	0.3260267289
1.6250000000	0.2816497141
1.6300000000	0.2622490378
1.6350000000	0.2553060043
1.6400000000	0.2552147796
1.6450000000	0.2594396982
1.6500000000	0.2667834773
1.6550000000	0.2767458091
1.6600000000	0.2891327348
1.6650000000	0.3039665730
1.6700000000	0.3214156785
1.6750000000	0.3417731137
1.6800000000	0.3654549368
1.6850000000	0.3930150288
1.6900000000	0.4251640453
1.6950000000	0.4625773475
1.7000000000	0.5066801894
1.7050000000	0.5600711581
1.7100000000	0.6258312978
1.7150000000	0.7191981597
1.7200000000	0.8485776909
1.7250000000	1.0054118430
1.7300000000	1.2023777660
1.7350000000	1.4128586124
1.7400000000	1.5986809407
1.7450000000	1.8297552430
1.7500000000	2.1882531139
1.7550000000	2.7294259704
1.7600000000	3.5431904332
1.7650000000	4.7993800999
1.7700000000	6.8228952253
1.7750000000	10.2299865676
1.7800000000	16.0299258402
1.7850000000	24.5697477059
1.7900000000	30.4910734604
1.7950000000	25.9225543466
1.8000000000	17.2205332431
1.8050000000	10.8519412141
1.8100000000	7.1372002259
1.8150000000	4.9612504948
1.8200000000	3.6225595070
1.8250000000	2.7545969569
1.8300000000	2.1648771357
1.8350000000	1.7479913960
1.8400000000	1.4434528343
1.8450000000	1.2144936663
1.8500000000	1.0379099895
1.8550000000	0.8991443538
1.8600000000	0.7879025961
1.8650000000	0.6970710439
1.8700000000	0.6213979899
1.8750000000	0.5567658806
1.8800000000	0.4995541556
1.8850000000	0.4460909642
1.8900000000	0.3917099785
1.8950000000	0.3293158194
1.9000000000	0.2469673876
1.9050000000	0.1068050897
1.9100000000	-0.0967204922
1.9150000000	-0.3159155118
1.9200000000	-0.2179020523
1.9250000000	0.4224842573
1.9300000000	0.9368677611
1.9350000000	0.9786159551
1.9400000000	0.8066963999
1.9450000000	0.6329873308
1.9500000000	0.5080856895
1.9550000000	0.4242852764
1.9600000000	0.3677461189
1.9650000000	0.3303142400
1.9700000000	0.3019679877
1.9750000000	0.2811641444
1.9800000000	0.2654946166
1.9850000000	0.2532582849
1.9900000000	0.2432429380
1.9950000000	0.2344666329
2.0000000000	0.2266925346
2.0050000000	0.2227313515
2.0100000000	0.2263652257
2.0150000000	0.2350535549
2.0200000000	0.2418925486
2.0250000000	0.2465553497
2.0300000000	0.2515336827
2.0350000000	0.2579024886
2.0400000000	0.2664820632
2.0450000000	0.2778063799
2.0500000000	0.2925173521
2.0550000000	0.3112659856
2.0600000000	0.3340832912
2.0650000000	0.3588015890
2.0700000000	0.3800432377
2.0750000000	0.3935371592
2.0800000000	0.4021991527
2.0850000000	0.4125415093
2.0900000000	0.4285957350
2.0950000000	0.4515940535
2.1000000000	0.4821992621
2.1050000000	0.5197112894
2.1100000000	0.5667473412
2.1150000000	0.6251243108
2.1200000000	0.6975387272
2.1250000000	0.7878668836
2.1300000000	0.9016357914
2.1350000000	1.0467728445
2.1400000000	1.2347367909
2.1450000000	1.4822766970
2.1500000000	1.8137744173
2.1550000000	2.2636916074
2.1600000000	2.8760895301
2.1650000000	3.6882293825
2.1700000000	4.6859969653
2.1750000000	5.6817784839
2.1800000000	6.3113798354
2.1850000000	6.3822588544
2.1900000000	6.1655223649
2.1950000000	6.0216326223
2.2000000000	5.9801957607
2.2050000000	5.6925873193
2.2100000000	5.0126511787
2.2150000000	4.1489815468
2.2200000000	3.3587504465
2.2250000000	2.7258226259
2.2300000000	2.2276574387
2.2350000000	1.8319814293
2.2400000000	1.5180573500
2.2450000000	1.2730338429
2.2500000000	1.0819445661
2.2550000000	0.9311770951
2.2600000000	0.8093690365
2.2650000000	0.7070667233
2.2700000000	0.6163269985
2.2750000000	0.5315749416
2.2800000000	0.4532050810
2.2850000000	0.3910561352
2.2900000000	0.3597016481
2.2950000000	0.3641645817
2.3000000000	0.3900684417
2.3050000000	0.4153836626
2.3100000000	0.4263107170
2.3150000000	0.4235501784
2.3200000000	0.4131438863
2.3250000000	0.4012597537
2.3300000000	0.3912309080
2.3350000000	0.3842125875
2.3400000000	0.3799655433
2.3450000000	0.3772532983
2.3500000000	0.3744250324
2.3550000000	0.3704250800
2.3600000000	0.3655462241
2.3650000000	0.3610689016
2.3700000000	0.3582624929
2.3750000000	0.3577473111
2.3800000000	0.3594181137
2.3850000000	0.3626384466
2.3900000000	0.3666992885
2.3950000000	0.3709942461
2.4000000000	0.3758852572
2.4050000000	0.3827206833
2.4100000000	0.3921859665
2.4150000000	0.4051502542
2.4200000000	0.4222046954
2.4250000000	0.4438870913
2.4300000000	0.4708006820
2.4350000000	0.5037016047
2.4400000000	0.5435627350
2.4450000000	0.5916392179
2.4500000000	0.6495284785
2.4550000000	0.7192514749
2.4600000000	0.8033037628
2.4650000000	0.9047048972
2.4700000000	1.0269525656
2.4750000000	1.1736071390
2.4800000000	1.3485197151
2.4850000000	1.5534220186
2.4900000000	1.7866181510
2.4950000000	2.0396734988
2.5000000000	2.2938497612
2.5050000000	2.5287695889
2.5100000000	2.6805340476
2.5150000000	2.7137598507
2.5200000000	2.6238718835
2.5250000000	2.4389942610
2.5300000000	2.2019141668
2.5350000000	1.9501619791
2.5400000000	1.7075091796
2.5450000000	1.4857046024
2.5500000000	1.2891384475
2.5550000000	1.1183685014
2.5600000000	0.9709171371
2.5650000000	0.8464611385
2.5700000000	0.7425172414
2.5750000000	0.6576155580
2.5800000000	0.5906081188
2.5850000000	0.5400727737
2.5900000000	0.5034421803
2.5950000000	0.4769996714
2.6000000000	0.4568578786
2.6050000000	0.4424924594
2.6100000000	0.4295936827
2.6150000000	0.4180029216
2.6200000000	0.4080098173
2.6250000000	0.3998991341
2.6300000000	0.3938428175
2.6350000000	0.3899154180
2.6400000000	0.3881560459
2.6450000000	0.3886088846
2.6500000000	0.3913688056
2.6550000000	0.3964517720
2.6600000000	0.4039911399
2.6650000000	0.4141047141
2.6700000000	0.4269313022
2.6750000000	0.4426355957
2.6800000000	0.4614008927
2.6850000000	0.4834273864
2.6900000000	0.5089085334
2.6950000000	0.5380196803
2.7000000000	0.5708822960
2.7050000000	0.6114534743
2.7100000000	0.6569256359
2.7150000000	0.7069866036
2.7200000000	0.7609616525
2.7250000000	0.8177267935
2.7300000000	0.8756289646
2.7350000000	0.9324160490
2.7400000000	0.9852003253
2.7450000000	1.0309333449
2.7500000000	1.0651898501
2.7550000000	1.0849302168
2.7600000000	1.0878715327
2.7650000000	1.0734265647
2.7700000000	1.0429109574
2.7750000000	0.9992766792
2.7800000000	0.9464387835
2.7850000000	0.8885622152
2.7900000000	0.8293677194
2.7950000000	0.7718341943
2.8000000000	0.7180628240
2.8050000000	0.6633854701
2.8100000000	0.6161857924
2.8150000000	0.5763561239
2.8200000000	0.5432703999
2.8250000000	0.5160965406
2.8300000000	0.4939998464
2.8350000000	0.4762689317
2.8400000000	0.4621475464
2.8450000000	0.4516866311
2.8500000000	0.4443319663
2.8550000000	0.4398770508
2.8600000000	0.4381757954
2.8650000000	0.4391127855
2.8700000000	0.4425852797
2.8750000000	0.4484881400
2.8800000000	0.4566997347
2.8850000000	0.4670688285
2.8900000000	0.4794092182
2.8950000000	0.4934934851
2.9000000000	0.5090518829
2.9050000000	0.5294896332
2.9100000000	0.5504726753
2.9150000000	0.5711918143
2.9200000000	0.5906739801
2.9250000000	0.6077909218
2.9300000000	0.6214822385
2.9350000000	0.6303362054
2.9400000000	0.6336456849
2.9450000000	0.6310485718
2.9500000000	0.6227580178
2.9550000000	0.6095303805
2.9600000000	0.5925176637
2.9650000000	0.5730563086
2.9700000000	0.5524577511
2.9750000000	0.5318598728
2.9800000000	0.5121451598
2.9850000000	0.4939292399
2.9900000000	0.4775909614
2.9950000000	0.4633233022
3.0000000000	0.4511884830
