# energy (eV)    P(omega), $W$ = 300 nm, $h$ = 300 nm, $s$ = 20 nm, $d/W = 5$, $E_{\rm e}$ = 200 keV
0.2000000000	0.0917559683
0.2050000000	0.0930740645
0.2100000000	0.0943130485
0.2150000000	0.0954753939
0.2200000000	0.0965632334
0.2250000000	0.0975783304
0.2300000000	0.0985219800
0.2350000000	0.0993949914
0.2400000000	0.1001975961
0.2450000000	0.1009292490
0.2500000000	0.1015887405
0.2550000000	0.1021737454
0.2600000000	0.1026808662
0.2650000000	0.1031053669
0.2700000000	0.1034407553
0.2750000000	0.1036785326
0.2800000000	0.1038076825
0.2850000000	0.1038141196
0.2900000000	0.1036797473
0.2950000000	0.1033817472
0.3000000000	0.1028907346
0.3050000000	0.1021695871
0.3100000000	0.1011706467
0.3150000000	0.1066212751
0.3200000000	0.1130955891
0.3250000000	0.1212798740
0.3300000000	0.1322318310
0.3350000000	0.1458686643
0.3400000000	0.1637281712
0.3450000000	0.1854091739
0.3500000000	0.2137835562
0.3550000000	0.2513468722
0.3600000000	0.3004298239
0.3650000000	0.3688889580
0.3700000000	0.4592457714
0.3750000000	0.5850311720
0.3800000000	0.7670833319
0.3850000000	1.0509294018
0.3900000000	1.4996836375
0.3950000000	2.2625053890
0.4000000000	3.7176915737
0.4050000000	6.9823608616
0.4100000000	15.8968129734
0.4150000000	51.0592694462
0.4200000000	32.5005399841
0.4250000000	-61.3508287794
0.4300000000	17.0964813669
0.4350000000	10.6674868836
0.4400000000	6.5309139497
0.4450000000	4.3026858151
0.4500000000	3.0191101680
0.4550000000	2.2287292179
0.4600000000	1.7136652127
0.4650000000	1.3624981454
0.4700000000	1.1141861021
0.4750000000	0.9345435110
0.4800000000	0.8013252091
0.4850000000	0.7010808880
0.4900000000	0.6245793786
0.4950000000	0.5656210707
0.5000000000	0.5199695930
0.5050000000	0.4845130443
0.5100000000	0.4572516885
0.5150000000	0.4367140791
0.5200000000	0.4213530688
0.5250000000	0.4104795720
0.5300000000	0.4033478450
0.5350000000	0.3994140088
0.5400000000	0.3982777648
0.5450000000	0.3996049204
0.5500000000	0.4032959272
0.5550000000	0.4091643665
0.5600000000	0.4171194090
0.5650000000	0.4271226946
0.5700000000	0.4391417588
0.5750000000	0.4532626044
0.5800000000	0.4696250315
0.5850000000	0.4883208981
0.5900000000	0.5095249787
0.5950000000	0.5334540135
0.6000000000	0.5603837447
0.6050000000	0.5907094342
0.6100000000	0.6248118356
0.6150000000	0.6632076973
0.6200000000	0.7065867611
0.6250000000	0.7556094288
0.6300000000	0.8112517982
0.6350000000	0.8747305260
0.6400000000	0.9473120593
0.6450000000	1.0308235320
0.6500000000	1.1276680910
0.6550000000	1.2403478880
0.6600000000	1.3727071278
0.6650000000	1.5296822484
0.6700000000	1.7170767500
0.6750000000	1.9437369245
0.6800000000	2.2215734413
0.6850000000	2.5661777533
0.6900000000	3.0017180049
0.6950000000	3.5619841628
0.7000000000	4.3006832431
0.7050000000	5.2999166970
0.7100000000	6.6988387683
0.7150000000	8.7451912132
0.7200000000	11.9002930202
0.7250000000	17.1394935302
0.7300000000	26.7597391104
0.7350000000	47.3521774002
0.7400000000	103.8500371650
0.7450000000	344.7717988583
0.7500000000	1068.8945574417
0.7550000000	269.1054832155
0.7600000000	89.1894063146
0.7650000000	42.7674756473
0.7700000000	24.8915297704
0.7750000000	16.2588959530
0.7800000000	11.4512750012
0.7850000000	8.5117983140
0.7900000000	6.5814976603
0.7950000000	5.2497339648
0.8000000000	4.2920508044
0.8050000000	3.5785494030
0.8100000000	3.0342791610
0.8150000000	2.6026579649
0.8200000000	2.2619042475
0.8250000000	1.9874563927
0.8300000000	1.7625655277
0.8350000000	1.5776232327
0.8400000000	1.4225514040
0.8450000000	1.2923978134
0.8500000000	1.1823714371
0.8550000000	1.0873967540
0.8600000000	1.0063185849
0.8650000000	0.9370803662
0.8700000000	0.8758842844
0.8750000000	0.8238554628
0.8800000000	0.7797477522
0.8850000000	0.7401985986
0.8900000000	0.7085574857
0.8950000000	0.6797704004
0.9000000000	0.6570473667
0.9050000000	0.6415715448
0.9100000000	0.6273979505
0.9150000000	0.6190129182
0.9200000000	0.6185150887
0.9250000000	0.6182530587
0.9300000000	0.6096076295
0.9350000000	0.5825387467
0.9400000000	0.4297355647
0.9450000000	-0.2665664085
0.9500000000	-3.9449014644
0.9550000000	-22.6153458868
0.9600000000	5.3417219638
0.9650000000	9.3886591487
0.9700000000	4.1670346689
0.9750000000	2.1885822061
0.9800000000	1.3719446606
0.9850000000	0.9898952260
0.9900000000	0.7696548185
0.9950000000	0.6360616403
1.0000000000	0.5507461506
1.0050000000	0.4966814117
1.0100000000	0.4547208209
1.0150000000	0.4240480095
1.0200000000	0.4033973914
1.0250000000	0.3860190201
1.0300000000	0.3727876371
1.0350000000	0.3627423023
1.0400000000	0.3563259360
1.0450000000	0.3509312632
1.0500000000	0.3473008850
1.0550000000	0.3452268959
1.0600000000	0.3451888967
1.0650000000	0.3458523753
1.0700000000	0.3477561725
1.0750000000	0.3509066043
1.0800000000	0.3556568600
1.0850000000	0.3616959048
1.0900000000	0.3706973669
1.0950000000	0.3814020082
1.1000000000	0.3941855992
1.1050000000	0.4088840313
1.1100000000	0.4259773903
1.1150000000	0.4458444981
1.1200000000	0.4689501698
1.1250000000	0.4958249618
1.1300000000	0.5272706154
1.1350000000	0.5642553644
1.1400000000	0.6078999233
1.1450000000	0.6601684964
1.1500000000	0.7232646659
1.1550000000	0.8003422638
1.1600000000	0.8958500617
1.1650000000	1.0155776160
1.1700000000	1.1702835751
1.1750000000	1.3743263146
1.1800000000	1.6514084662
1.1850000000	2.0404682242
1.1900000000	2.6149999550
1.1950000000	3.5158677457
1.2000000000	5.0426459582
1.2050000000	7.9263699207
1.2100000000	14.2684896325
1.2150000000	31.4133342011
1.2200000000	77.0440797776
1.2250000000	69.2874316701
1.2300000000	27.7202825536
1.2350000000	13.0697075399
1.2400000000	7.5232742271
1.2450000000	4.9814517414
1.2500000000	3.6460491897
1.2550000000	2.8815688709
1.2600000000	2.4234393917
1.2650000000	2.1445892817
1.2700000000	1.9888691715
1.2750000000	1.9200538089
1.2800000000	1.9217623351
1.2850000000	1.9879887849
1.2900000000	2.1205334823
1.2950000000	2.3269485788
1.3000000000	2.6309580345
1.3050000000	3.0634455174
1.3100000000	3.6802715527
1.3150000000	4.5776789117
1.3200000000	5.9279785432
1.3250000000	8.0602282572
1.3300000000	11.6926419294
1.3350000000	18.4927990821
1.3400000000	33.0256609136
1.3450000000	69.1117022898
1.3500000000	146.8174896472
1.3550000000	137.0172943497
1.3600000000	63.2092958352
1.3650000000	31.0616194929
1.3700000000	17.8134452550
1.3750000000	11.4545767280
1.3800000000	7.9872484444
1.3850000000	5.8989129565
1.3900000000	4.5536641271
1.3950000000	3.6364383236
1.4000000000	2.9851025308
1.4050000000	2.5081580261
1.4100000000	2.1507367821
1.4150000000	1.8810381821
1.4200000000	1.6782264449
1.4250000000	1.5423903938
1.4300000000	1.4926527584
1.4350000000	1.5203423269
1.4400000000	1.1710056562
1.4450000000	0.1010051108
1.4500000000	-1.6361503857
1.4550000000	-0.4587452962
1.4600000000	1.9812535169
1.4650000000	1.0726400963
1.4700000000	-1.0129304183
1.4750000000	-4.4331211613
1.4800000000	-1.9730253357
1.4850000000	3.2428476716
1.4900000000	2.6286651046
1.4950000000	1.7014604082
1.5000000000	1.1954768715
1.5050000000	0.9230225472
1.5100000000	0.7677316820
1.5150000000	0.6734235443
1.5200000000	0.6125020667
1.5250000000	0.5746496963
1.5300000000	0.5457348500
1.5350000000	0.5258040695
1.5400000000	0.5126756411
1.5450000000	0.5051789778
1.5500000000	0.5025583604
1.5550000000	0.5048329916
1.5600000000	0.5133490348
1.5650000000	0.5274154194
1.5700000000	0.5501914113
1.5750000000	0.5855306395
1.5800000000	0.6406688381
1.5850000000	0.7296907703
1.5900000000	0.8822708790
1.5950000000	1.1640764329
1.6000000000	1.7138160087
1.6050000000	2.6227891781
1.6100000000	3.0437574928
1.6150000000	2.2545890051
1.6200000000	1.5142617399
1.6250000000	1.1234722086
1.6300000000	0.9272571455
1.6350000000	0.8262393193
1.6400000000	0.7750376773
1.6450000000	0.7525600896
1.6500000000	0.7482443006
1.6550000000	0.7571423888
1.6600000000	0.7763013790
1.6650000000	0.8043728030
1.6700000000	0.8408439692
1.6750000000	0.8857178911
1.6800000000	0.9393957009
1.6850000000	1.0024996650
1.6900000000	1.0755799526
1.6950000000	1.1575982824
1.7000000000	1.2471778965
1.7050000000	1.3389812257
1.7100000000	1.4437357165
1.7150000000	1.7040740427
1.7200000000	2.1608367331
1.7250000000	2.5793390781
1.7300000000	3.0284741085
1.7350000000	3.5219800788
1.7400000000	4.0062241204
1.7450000000	4.6282065202
1.7500000000	5.5688009385
1.7550000000	6.9687801145
1.7600000000	9.0634093919
1.7650000000	12.2922987445
1.7700000000	17.4934728003
1.7750000000	26.2560983174
1.7800000000	41.1874381366
1.7850000000	63.2076729930
1.7900000000	78.5501846647
1.7950000000	66.8870023497
1.8000000000	44.5151698703
1.8050000000	28.1123505250
1.8100000000	18.5351456615
1.8150000000	12.9215694931
1.8200000000	9.4668985295
1.8250000000	7.2272243495
1.8300000000	5.7065635956
1.8350000000	4.6332183598
1.8400000000	3.8512363349
1.8450000000	3.2660137695
1.8500000000	2.8179294638
1.8550000000	2.4696769484
1.8600000000	2.1952316150
1.8650000000	1.9769066811
1.8700000000	1.8021229219
1.8750000000	1.6616452277
1.8800000000	1.5481481461
1.8850000000	1.4551587668
1.8900000000	1.3752184170
1.8950000000	1.2971970344
1.9000000000	1.2018752423
1.9050000000	1.0214245926
1.9100000000	0.7730778985
1.9150000000	0.6415457209
1.9200000000	1.5688326523
1.9250000000	4.1317102751
1.9300000000	6.1642458652
1.9350000000	6.0694283819
1.9400000000	4.7737689476
1.9450000000	3.5175904932
1.9500000000	2.6356093417
1.9550000000	2.0577078906
1.9600000000	1.6758125565
1.9650000000	1.4202037478
1.9700000000	1.2356744076
1.9750000000	1.1004074157
1.9800000000	0.9971365937
1.9850000000	0.9133349331
1.9900000000	0.8394168485
1.9950000000	0.7670165228
2.0000000000	0.6949143135
2.0050000000	0.6488509480
2.0100000000	0.6752435944
2.0150000000	0.7479482565
2.0200000000	0.7927788554
2.0250000000	0.8046904396
2.0300000000	0.8073760203
2.0350000000	0.8122589511
2.0400000000	0.8235838939
2.0450000000	0.8424330939
2.0500000000	0.8695086995
2.0550000000	0.9054483416
2.0600000000	0.9502525193
2.0650000000	1.0012073650
2.0700000000	1.0515825855
2.0750000000	1.0963344064
2.0800000000	1.1399132528
2.0850000000	1.1915229657
2.0900000000	1.2573330380
2.0950000000	1.3399414780
2.1000000000	1.4421429131
2.1050000000	1.5630118232
2.1100000000	1.7110430022
2.1150000000	1.8924462732
2.1200000000	2.1159303216
2.1250000000	2.3937104710
2.1300000000	2.7430054925
2.1350000000	3.1883985245
2.1400000000	3.7653867921
2.1450000000	4.5258675133
2.1500000000	5.5454568127
2.1550000000	6.9311720908
2.1600000000	8.8199788187
2.1650000000	11.3278697216
2.1700000000	14.4084442947
2.1750000000	17.4711829728
2.1800000000	19.3635837093
2.1850000000	19.4619520432
2.1900000000	18.6015955985
2.1950000000	17.9321168085
2.2000000000	17.6352552575
2.2050000000	16.8104542192
2.2100000000	15.0592760144
2.2150000000	12.9061715346
2.2200000000	10.9732896009
2.2250000000	9.3758624383
2.2300000000	7.9693335835
2.2350000000	6.6977075172
2.2400000000	5.6054742029
2.2450000000	4.7315562567
2.2500000000	4.0616205502
2.2550000000	3.5583515323
2.2600000000	3.1815247708
2.2650000000	2.8908335514
2.2700000000	2.6427075264
2.2750000000	2.3942218723
2.2800000000	2.1267097854
2.2850000000	1.8721654293
2.2900000000	1.6962749506
2.2950000000	1.6362173774
2.3000000000	1.6577229918
2.3050000000	1.6905422743
2.3100000000	1.6933119935
2.3150000000	1.6663685598
2.3200000000	1.6276173716
2.3250000000	1.5955525381
2.3300000000	1.5796371020
2.3350000000	1.5814970315
2.3400000000	1.5958329212
2.3450000000	1.6106505378
2.3500000000	1.6108467216
2.3550000000	1.5867857846
2.3600000000	1.5411946935
2.3650000000	1.4859895920
2.3700000000	1.4334532553
2.3750000000	1.3909214267
2.3800000000	1.3607767358
2.3850000000	1.3423444865
2.3900000000	1.3340871006
2.3950000000	1.3342237213
2.4000000000	1.3432395657
2.4050000000	1.3641036133
2.4100000000	1.3978111680
2.4150000000	1.4457399340
2.4200000000	1.5087179915
2.4250000000	1.5881942958
2.4300000000	1.6862819138
2.4350000000	1.8058154216
2.4400000000	1.9504525910
2.4450000000	2.1248637892
2.4500000000	2.3349414103
2.4550000000	2.5880916717
2.4600000000	2.8934140638
2.4650000000	3.2618261897
2.4700000000	3.7058494002
2.4750000000	4.2380262509
2.4800000000	4.8713104068
2.4850000000	5.6108299049
2.4900000000	6.4493568681
2.4950000000	7.3568839073
2.5000000000	8.2699497999
2.5050000000	9.1240830398
2.5100000000	9.7011085884
2.5150000000	9.8751902674
2.5200000000	9.6163416422
2.5250000000	9.0044663956
2.5300000000	8.1787666337
2.5350000000	7.2734962930
2.5400000000	6.3835022060
2.5450000000	5.5623729157
2.5500000000	4.8339378410
2.5550000000	4.2036213680
2.5600000000	3.6627570376
2.5650000000	3.2080269651
2.5700000000	2.8287253619
2.5750000000	2.5181503365
2.5800000000	2.2712958201
2.5850000000	2.0827198899
2.5900000000	1.9434720725
2.5950000000	1.8409688332
2.6000000000	1.7621080116
2.6050000000	1.7060629128
2.6100000000	1.6575350236
2.6150000000	1.6157551185
2.6200000000	1.5815486514
2.6250000000	1.5558300896
2.6300000000	1.5392100716
2.6350000000	1.5320001758
2.6400000000	1.5343813480
2.6450000000	1.5465219857
2.6500000000	1.5687516738
2.6550000000	1.6011627251
2.6600000000	1.6442525473
2.6650000000	1.6985236056
2.6700000000	1.7645931482
2.6750000000	1.8432091908
2.6800000000	1.9352007844
2.6850000000	2.0414160284
2.6900000000	2.1625496394
2.6950000000	2.2990045746
2.7000000000	2.4506427423
2.7050000000	2.6347107239
2.7100000000	2.8355961640
2.7150000000	3.0493875631
2.7200000000	3.2703957968
2.7250000000	3.4914737541
2.7300000000	3.7045567459
2.7350000000	3.9011272549
2.7400000000	4.0723268305
2.7450000000	4.2102920128
2.7500000000	4.3028252669
2.7550000000	4.3425422975
2.7600000000	4.3238399999
2.7650000000	4.2460666264
2.7700000000	4.1144345299
2.7750000000	3.9393871252
2.7800000000	3.7345367274
2.7850000000	3.5143241594
2.7900000000	3.2917063389
2.7950000000	3.0770735251
2.8000000000	2.8777726416
2.8050000000	2.6761268388
2.8100000000	2.5035443608
2.8150000000	2.3595622870
2.8200000000	2.2418629021
2.8250000000	2.1473914567
2.8300000000	2.0730708057
2.8350000000	2.0162674907
2.8400000000	1.9742092475
2.8450000000	1.9469926031
2.8500000000	1.9326028410
2.8550000000	1.9302723023
2.8600000000	1.9394277646
2.8650000000	1.9595528429
2.8700000000	1.9900699098
2.8750000000	2.0302461374
2.8800000000	2.0791207902
2.8850000000	2.1354444234
2.8900000000	2.1977151330
2.8950000000	2.2642342647
2.9000000000	2.3332154741
2.9050000000	2.4161104363
2.9100000000	2.4956336004
2.9150000000	2.5692834784
2.9200000000	2.6344346997
2.9250000000	2.6881083747
2.9300000000	2.7275615508
2.9350000000	2.7485286710
2.9400000000	2.7491686220
2.9450000000	2.7286971010
2.9500000000	2.6882952864
2.9550000000	2.6310339044
2.9600000000	2.5613452496
2.9650000000	2.4842514899
2.9700000000	2.4046090433
2.9750000000	2.3265682352
2.9800000000	2.2533091980
2.9850000000	2.1870016544
2.9900000000	2.1289506277
2.9950000000	2.0797687379
3.0000000000	2.0395848954
