# energy (eV)    P(omega), $W$ = 300 nm, $h$ = 300 nm, $s$ = 20 nm, $d/W = 5$, $E_{\rm e}$ = 200 keV
0.2000000000	0.0727243116
0.2050000000	0.0737689744
0.2100000000	0.0747509547
0.2150000000	0.0756722120
0.2200000000	0.0765344358
0.2250000000	0.0773390227
0.2300000000	0.0780869984
0.2350000000	0.0787790037
0.2400000000	0.0794152211
0.2450000000	0.0799952184
0.2500000000	0.0805180362
0.2550000000	0.0809818313
0.2600000000	0.0813839106
0.2650000000	0.0817205203
0.2700000000	0.0819865149
0.2750000000	0.0821751585
0.2800000000	0.0822777199
0.2850000000	0.0822830359
0.2900000000	0.0821767642
0.2950000000	0.0819408201
0.3000000000	0.0815519153
0.3050000000	0.0809806287
0.3100000000	0.0801891893
0.3150000000	0.0845090037
0.3200000000	0.0896401249
0.3250000000	0.0961264439
0.3300000000	0.1048062115
0.3350000000	0.1156138352
0.3400000000	0.1297680639
0.3450000000	0.1469509937
0.3500000000	0.1694386803
0.3550000000	0.1992089594
0.3600000000	0.2381090509
0.3650000000	0.2923655750
0.3700000000	0.3639770678
0.3750000000	0.4636673975
0.3800000000	0.6079518581
0.3850000000	0.8329129462
0.3900000000	1.1885721509
0.3950000000	1.7931462145
0.4000000000	2.9464557312
0.4050000000	5.5338783149
0.4100000000	12.5990668301
0.4150000000	40.4672870533
0.4200000000	25.7584313832
0.4250000000	-48.6242026300
0.4300000000	13.5500576484
0.4350000000	8.4546978017
0.4400000000	5.1762078252
0.4450000000	3.4101954998
0.4500000000	2.3928783119
0.4550000000	1.7664488983
0.4600000000	1.3582257770
0.4650000000	1.0799016636
0.4700000000	0.8830969950
0.4750000000	0.7407175376
0.4800000000	0.6351325473
0.4850000000	0.5556817817
0.4900000000	0.4950489236
0.4950000000	0.4483203640
0.5000000000	0.4121384939
0.5050000000	0.3840369163
0.5100000000	0.3624307089
0.5150000000	0.3461536557
0.5200000000	0.3339795240
0.5250000000	0.3253621774
0.5300000000	0.3197105603
0.5350000000	0.3165936149
0.5400000000	0.3156940807
0.5450000000	0.3167470896
0.5500000000	0.3196737570
0.5550000000	0.3243263388
0.5600000000	0.3306328594
0.5650000000	0.3385629268
0.5700000000	0.3480908254
0.5750000000	0.3592847369
0.5800000000	0.3722554903
0.5850000000	0.3870759110
0.5900000000	0.4038845510
0.5950000000	0.4228532263
0.6000000000	0.4442005244
0.6050000000	0.4682397709
0.6100000000	0.4952727955
0.6150000000	0.5257092290
0.6200000000	0.5600958352
0.6250000000	0.5989561181
0.6300000000	0.6430638377
0.6350000000	0.6933834426
0.6400000000	0.7509188553
0.6450000000	0.8171184542
0.6500000000	0.8938872283
0.6550000000	0.9832086495
0.6600000000	1.0881300366
0.6650000000	1.2125645495
0.6700000000	1.3611126533
0.6750000000	1.5407868713
0.6800000000	1.7610288799
0.6850000000	2.0341981475
0.6900000000	2.3794529544
0.6950000000	2.8235789044
0.7000000000	3.4091500149
0.7050000000	4.2012488606
0.7100000000	5.3101843570
0.7150000000	6.9323438002
0.7200000000	9.4334194385
0.7250000000	13.5865810736
0.7300000000	21.2126431082
0.7350000000	37.5364825986
0.7400000000	82.3229614910
0.7450000000	273.3044964727
0.7500000000	847.3261720635
0.7550000000	213.3236549453
0.7600000000	70.7017976429
0.7650000000	33.9024836523
0.7700000000	19.7319589757
0.7750000000	12.8887377169
0.7800000000	9.0776596722
0.7850000000	6.7474876473
0.7900000000	5.2173050101
0.7950000000	4.1615921256
0.8000000000	3.4024189971
0.8050000000	2.8368128254
0.8100000000	2.4053591038
0.8150000000	2.0632041992
0.8200000000	1.7930816042
0.8250000000	1.5755209191
0.8300000000	1.3972449876
0.8350000000	1.2506370998
0.8400000000	1.1277081207
0.8450000000	1.0245323522
0.8500000000	0.9373118693
0.8550000000	0.8620231729
0.8600000000	0.7977505630
0.8650000000	0.7428637897
0.8700000000	0.6943521760
0.8750000000	0.6531077103
0.8800000000	0.6181425497
0.8850000000	0.5867910520
0.8900000000	0.5617085585
0.8950000000	0.5388885013
0.9000000000	0.5208756685
0.9050000000	0.5086080501
0.9100000000	0.4973727182
0.9150000000	0.4907262750
0.9200000000	0.4903324707
0.9250000000	0.4901255455
0.9300000000	0.4832724378
0.9350000000	0.4618135672
0.9400000000	0.3406756511
0.9450000000	-0.2113350785
0.9500000000	-3.1274325624
0.9550000000	-17.9289421895
0.9600000000	4.2348027986
0.9650000000	7.4431381312
0.9700000000	3.3035435799
0.9750000000	1.7350659209
0.9800000000	1.0876513445
0.9850000000	0.7847697489
0.9900000000	0.6101671566
0.9950000000	0.5042568616
1.0000000000	0.4366202461
1.0050000000	0.3937587137
1.0100000000	0.3604930731
1.0150000000	0.3361761761
1.0200000000	0.3198047302
1.0250000000	0.3060274118
1.0300000000	0.2955377373
1.0350000000	0.2875738866
1.0400000000	0.2824870269
1.0450000000	0.2782100945
1.0500000000	0.2753318342
1.0550000000	0.2736874208
1.0600000000	0.2736570920
1.0650000000	0.2741828186
1.0700000000	0.2756917990
1.0750000000	0.2781890397
1.0800000000	0.2819545519
1.0850000000	0.2867416868
1.0900000000	0.2938772180
1.0950000000	0.3023628907
1.1000000000	0.3124966018
1.1050000000	0.3241481880
1.1100000000	0.3376982385
1.1150000000	0.3534470425
1.1200000000	0.3717630759
1.1250000000	0.3930668356
1.1300000000	0.4179938757
1.1350000000	0.4473116963
1.1400000000	0.4819086885
1.1450000000	0.5233417715
1.1500000000	0.5733577022
1.1550000000	0.6344564459
1.1600000000	0.7101644349
1.1650000000	0.8050709321
1.1700000000	0.9277039907
1.1750000000	1.0894451442
1.1800000000	1.3090828687
1.1850000000	1.6174824505
1.1900000000	2.0729011082
1.1950000000	2.7869980798
1.2000000000	3.9972385171
1.2050000000	6.2830960775
1.2100000000	11.3103390613
1.2150000000	24.9006446898
1.2200000000	61.0710829839
1.2250000000	54.9226771188
1.2300000000	21.9733909328
1.2350000000	10.3602204061
1.2400000000	5.9636936425
1.2450000000	3.9488562746
1.2500000000	2.8903234464
1.2550000000	2.2843507141
1.2600000000	1.9212185965
1.2650000000	1.7002007524
1.2700000000	1.5767899103
1.2750000000	1.5222720147
1.2800000000	1.5236638083
1.2850000000	1.5762065533
1.2900000000	1.6813302806
1.2950000000	1.8450252483
1.3000000000	2.0861039819
1.3050000000	2.4290568543
1.3100000000	2.9181790291
1.3150000000	3.6297868003
1.3200000000	4.7005145435
1.3250000000	6.3912898959
1.3300000000	9.2716212898
1.3350000000	14.6638193938
1.3400000000	26.1876801042
1.3450000000	54.8021834156
1.3500000000	116.4191913521
1.3550000000	108.6481907004
1.3600000000	50.1219834388
1.3650000000	24.6303992057
1.3700000000	14.1252210138
1.3750000000	9.0829367796
1.3800000000	6.3335079811
1.3850000000	4.6775560962
1.3900000000	3.6108375419
1.3950000000	2.8835214136
1.4000000000	2.3670441940
1.4050000000	1.9888518017
1.4100000000	1.7054369921
1.4150000000	1.4915844342
1.4200000000	1.3307743284
1.4250000000	1.2230820063
1.4300000000	1.1836833618
1.4350000000	1.2057146635
1.4400000000	0.9287610022
1.4450000000	0.0803715781
1.4500000000	-1.2968887034
1.4550000000	-0.3635228163
1.4600000000	1.5707939522
1.4650000000	0.8503444698
1.4700000000	-0.8033617172
1.4750000000	-3.5154326564
1.4800000000	-1.5646116859
1.4850000000	2.5714579154
1.4900000000	2.0844358661
1.4950000000	1.3491909154
1.5000000000	0.9479620434
1.5050000000	0.7319153637
1.5100000000	0.6087755025
1.5150000000	0.5339931344
1.5200000000	0.4856853715
1.5250000000	0.4556705877
1.5300000000	0.4327431738
1.5350000000	0.4169399194
1.5400000000	0.4065308392
1.5450000000	0.4005877784
1.5500000000	0.3985115174
1.5550000000	0.4003174400
1.5600000000	0.4070731684
1.5650000000	0.4182310615
1.5700000000	0.4362967577
1.5750000000	0.4643268806
1.5800000000	0.5080606253
1.5850000000	0.5786696480
1.5900000000	0.6996909294
1.5950000000	0.9232100859
1.6000000000	1.3592476030
1.6050000000	2.0802218059
1.6100000000	2.4141271588
1.6150000000	1.7881806642
1.6200000000	1.2009694417
1.6250000000	0.8910012382
1.6300000000	0.7353641073
1.6350000000	0.6552346672
1.6400000000	0.6146177539
1.6450000000	0.5967835244
1.6500000000	0.5933541394
1.6550000000	0.6004049551
1.6600000000	0.6155935921
1.6650000000	0.6378503218
1.6700000000	0.6667683012
1.6750000000	0.7023496849
1.6800000000	0.7449123301
1.6850000000	0.7949494054
1.6900000000	0.8528967211
1.6950000000	0.9179299249
1.7000000000	0.9889554495
1.7050000000	1.0617363349
1.7100000000	1.1447803079
1.7150000000	1.3512296087
1.7200000000	1.7134763002
1.7250000000	2.0453425439
1.7300000000	2.4014724521
1.7350000000	2.7927912712
1.7400000000	3.1767868378
1.7450000000	3.6700136210
1.7500000000	4.4158877558
1.7550000000	5.5260378515
1.7600000000	7.1870247836
1.7650000000	9.7474488428
1.7700000000	13.8718428217
1.7750000000	20.8203761191
1.7800000000	32.6605449386
1.7850000000	50.1220401826
1.7900000000	62.2882986310
1.7950000000	53.0397358733
1.8000000000	35.2994601809
1.8050000000	22.2924425405
1.8100000000	14.6979591699
1.8150000000	10.2465323477
1.8200000000	7.5070633999
1.8250000000	5.7310569675
1.8300000000	4.5252107941
1.8350000000	3.6740752950
1.8400000000	3.0539841891
1.8450000000	2.5899191411
1.8500000000	2.2346020972
1.8550000000	1.9584500570
1.8600000000	1.7408263377
1.8650000000	1.5677060121
1.8700000000	1.4291144251
1.8750000000	1.3177288868
1.8800000000	1.2277412509
1.8850000000	1.1540197756
1.8900000000	1.0906516266
1.8950000000	1.0288136218
1.9000000000	0.9532696061
1.9050000000	0.8102444022
1.9100000000	0.6134150100
1.9150000000	0.5092754955
1.9200000000	1.2448440168
1.9250000000	3.2774852311
1.9300000000	4.8895013699
1.9350000000	4.8142378317
1.9400000000	3.7864922545
1.9450000000	2.7900705574
1.9500000000	2.0904712119
1.9550000000	1.6320738624
1.9600000000	1.3291516875
1.9650000000	1.1264005109
1.9700000000	0.9800314822
1.9750000000	0.8727374652
1.9800000000	0.7908226626
1.9850000000	0.7243504157
1.9900000000	0.6657171706
1.9950000000	0.6082868544
2.0000000000	0.5510920884
2.0050000000	0.5145515634
2.0100000000	0.5354866628
2.0150000000	0.5931584980
2.0200000000	0.6287182246
2.0250000000	0.6381637527
2.0300000000	0.6402895199
2.0350000000	0.6441571957
2.0400000000	0.6531334882
2.0450000000	0.6680764529
2.0500000000	0.6895425126
2.0550000000	0.7180368837
2.0600000000	0.7535599377
2.0650000000	0.7939607952
2.0700000000	0.8339053543
2.0750000000	0.8693964297
2.0800000000	0.9039618672
2.0850000000	0.9448970353
2.0900000000	0.9970925093
2.0950000000	1.0626082041
2.1000000000	1.1436606283
2.1050000000	1.2395162215
2.1100000000	1.3569118334
2.1150000000	1.5007722981
2.1200000000	1.6780040741
2.1250000000	1.8982944863
2.1300000000	2.1752987624
2.1350000000	2.5285123337
2.1400000000	2.9860859677
2.1450000000	3.5891762769
2.1500000000	4.3977499605
2.1550000000	5.4966762872
2.1600000000	6.9945746157
2.1650000000	8.9834321946
2.1700000000	11.4264507946
2.1750000000	13.8553214918
2.1800000000	15.3560559761
2.1850000000	15.4340304199
2.1900000000	14.7516764769
2.1950000000	14.2206858327
2.2000000000	13.9852128325
2.2050000000	13.3311340463
2.2100000000	11.9424883395
2.2150000000	10.2351496951
2.2200000000	8.7024539656
2.2250000000	7.4357405346
2.2300000000	6.3203466872
2.2350000000	5.3118795237
2.2400000000	4.4456552253
2.2450000000	3.7525655967
2.2500000000	3.2212538335
2.2550000000	2.8221286211
2.2600000000	2.5232887462
2.2650000000	2.2927658997
2.2700000000	2.0960011605
2.2750000000	1.8989455565
2.2800000000	1.6867894569
2.2850000000	1.4849060064
2.2900000000	1.3453932956
2.2950000000	1.2977424175
2.3000000000	1.3147791783
2.3050000000	1.3407921216
2.3100000000	1.3429788808
2.3150000000	1.3216056449
2.3200000000	1.2908718630
2.3250000000	1.2654439358
2.3300000000	1.2528261886
2.3350000000	1.2543075045
2.3400000000	1.2656839300
2.3450000000	1.2774412171
2.3500000000	1.2775991083
2.3550000000	1.2585142897
2.3600000000	1.2223498642
2.3650000000	1.1785580746
2.3700000000	1.1368820260
2.3750000000	1.1031408041
2.3800000000	1.0792247142
2.3850000000	1.0645991000
2.3900000000	1.0580448086
2.3950000000	1.0581495949
2.4000000000	1.0652980738
2.4050000000	1.0818444163
2.4100000000	1.1085775711
2.4150000000	1.1465897375
2.4200000000	1.1965373289
2.4250000000	1.2595693721
2.4300000000	1.3373617142
2.4350000000	1.4321624419
2.4400000000	1.5468725211
2.4450000000	1.6851960064
2.4500000000	1.8518061102
2.4550000000	2.0525766361
2.4600000000	2.2947242946
2.4650000000	2.5869076928
2.4700000000	2.9390573306
2.4750000000	3.3611204348
2.4800000000	3.8633701153
2.4850000000	4.4498730028
2.4900000000	5.1148963979
2.4950000000	5.8346418902
2.5000000000	6.5587802585
2.5050000000	7.2361823269
2.5100000000	7.6938198693
2.5150000000	7.8318945825
2.5200000000	7.6266214395
2.5250000000	7.1413654895
2.5300000000	6.4865221482
2.5350000000	5.7685658900
2.5400000000	5.0627207185
2.5450000000	4.4114896489
2.5500000000	3.8337734412
2.5550000000	3.3338749388
2.5600000000	2.9049209586
2.5650000000	2.5442795934
2.5700000000	2.2434597993
2.5750000000	1.9971460670
2.5800000000	1.8013679322
2.5850000000	1.6518094185
2.5900000000	1.5413721132
2.5950000000	1.4600764003
2.6000000000	1.3975313741
2.6050000000	1.3530816466
2.6100000000	1.3145942484
2.6150000000	1.2814590854
2.6200000000	1.2543307415
2.6250000000	1.2339344530
2.6300000000	1.2207545133
2.6350000000	1.2150380338
2.6400000000	1.2169285484
2.6450000000	1.2265595993
2.6500000000	1.2441925949
2.6550000000	1.2699007664
2.6600000000	1.3040786233
2.6650000000	1.3471247089
2.6700000000	1.3995286103
2.6750000000	1.4618836062
2.6800000000	1.5348472578
2.6850000000	1.6190922036
2.6900000000	1.7151693895
2.6950000000	1.8233983105
2.7000000000	1.9436692891
2.7050000000	2.0896611279
2.7100000000	2.2489904393
2.7150000000	2.4185543629
2.7200000000	2.5938400958
2.7250000000	2.7691785652
2.7300000000	2.9381732430
2.7350000000	3.0940688942
2.7400000000	3.2298403869
2.7450000000	3.3392521097
2.7500000000	3.4126312954
2.7550000000	3.4441224538
2.7600000000	3.4292824954
2.7650000000	3.3675948920
2.7700000000	3.2631936140
2.7750000000	3.1243611521
2.7800000000	2.9618931356
2.7850000000	2.7872422473
2.7900000000	2.6106843531
2.7950000000	2.4404597527
2.8000000000	2.2823951454
2.8050000000	2.1224710101
2.8100000000	1.9855971669
2.8150000000	1.8714064921
2.8200000000	1.7780608163
2.8250000000	1.7031374518
2.8300000000	1.6441959434
2.8350000000	1.5991476981
2.8400000000	1.5657940665
2.8450000000	1.5442115743
2.8500000000	1.5328023691
2.8550000000	1.5309576168
2.8600000000	1.5382226837
2.8650000000	1.5541879979
2.8700000000	1.5783953931
2.8750000000	1.6102635717
2.8800000000	1.6490304568
2.8850000000	1.6937049542
2.8900000000	1.7430957002
2.8950000000	1.7958552981
2.9000000000	1.8505668170
2.9050000000	1.9163122338
2.9100000000	1.9793821579
2.9150000000	2.0377927953
2.9200000000	2.0894621988
2.9250000000	2.1320281339
2.9300000000	2.1633154687
2.9350000000	2.1799414516
2.9400000000	2.1804461009
2.9450000000	2.1642075219
2.9500000000	2.1321626131
2.9550000000	2.0867468188
2.9600000000	2.0314754078
2.9650000000	1.9703314644
2.9700000000	1.9071665876
2.9750000000	1.8452723656
2.9800000000	1.7871709260
2.9850000000	1.7345830413
2.9900000000	1.6885436938
2.9950000000	1.6495387160
3.0000000000	1.6176703219
