# energy (eV)    P(omega), $W$ = 300 nm, $h$ = 300 nm, $s$ = 20 nm, $d/W = 5$, $E_{\rm e}$ = 200 keV
0.2000000000	0.0539288063
0.2050000000	0.0547500326
0.2100000000	0.0555131900
0.2150000000	0.0562202176
0.2200000000	0.0568728611
0.2250000000	0.0574725617
0.2300000000	0.0580204705
0.2350000000	0.0585173888
0.2400000000	0.0589637247
0.2450000000	0.0593594211
0.2500000000	0.0597039004
0.2550000000	0.0599959196
0.2600000000	0.0602335446
0.2650000000	0.0604139004
0.2700000000	0.0605330798
0.2750000000	0.0605858500
0.2800000000	0.0605653877
0.2850000000	0.0604628859
0.2900000000	0.0602670801
0.2950000000	0.0599636178
0.3000000000	0.0595341805
0.3050000000	0.0589554234
0.3100000000	0.0581974460
0.3150000000	0.0616248950
0.3200000000	0.0656952305
0.3250000000	0.0708469721
0.3300000000	0.0777526862
0.3350000000	0.0863459822
0.3400000000	0.0975986348
0.3450000000	0.1112348787
0.3500000000	0.1290659573
0.3550000000	0.1526474318
0.3600000000	0.1834138137
0.3650000000	0.2262833024
0.3700000000	0.2827525828
0.3750000000	0.3612408163
0.3800000000	0.4746710451
0.3850000000	0.6513015143
0.3900000000	0.9301163930
0.3950000000	1.4033477331
0.4000000000	2.3048502652
0.4050000000	4.3245694262
0.4100000000	9.8314094112
0.4150000000	31.5207846552
0.4200000000	20.0966655292
0.4250000000	-37.7224415648
0.4300000000	10.4690667966
0.4350000000	6.5153594535
0.4400000000	3.9769140501
0.4450000000	2.6115266936
0.4500000000	1.8260537359
0.4550000000	1.3429901103
0.4600000000	1.0285621368
0.4650000000	0.8144149257
0.4700000000	0.6631301881
0.4750000000	0.5537548746
0.4800000000	0.4726784978
0.4850000000	0.4116703055
0.4900000000	0.3650888121
0.4950000000	0.3291485255
0.5000000000	0.3012614855
0.5050000000	0.2795309240
0.5100000000	0.2627333923
0.5150000000	0.2499672739
0.5200000000	0.2402961357
0.5250000000	0.2332928870
0.5300000000	0.2285034662
0.5350000000	0.2255943564
0.5400000000	0.2243193404
0.5450000000	0.2244728325
0.5500000000	0.2259856921
0.5550000000	0.2287407370
0.5600000000	0.2326755155
0.5650000000	0.2377601773
0.5700000000	0.2439659327
0.5750000000	0.2513351843
0.5800000000	0.2599365515
0.5850000000	0.2698139022
0.5900000000	0.2810552801
0.5950000000	0.2937734246
0.6000000000	0.3081114145
0.6050000000	0.3242803652
0.6100000000	0.3424790117
0.6150000000	0.3629810826
0.6200000000	0.3861520060
0.6250000000	0.4123417464
0.6300000000	0.4420686531
0.6350000000	0.4759785696
0.6400000000	0.5147426400
0.6450000000	0.5593312659
0.6500000000	0.6110193321
0.6550000000	0.6711332032
0.6600000000	0.7417133061
0.6650000000	0.8253749288
0.6700000000	0.9251921778
0.6750000000	1.0458552925
0.6800000000	1.1936685470
0.6850000000	1.3768872967
0.6900000000	1.6082969009
0.6950000000	1.9057746743
0.7000000000	2.2977138397
0.7050000000	2.8275088978
0.7100000000	3.5686725757
0.7150000000	4.6520476417
0.7200000000	6.3211549255
0.7250000000	9.0906644296
0.7300000000	14.1720899780
0.7350000000	25.0403768680
0.7400000000	54.8342361501
0.7450000000	181.7670542979
0.7500000000	562.6672555457
0.7550000000	141.4383076683
0.7600000000	46.8036255917
0.7650000000	22.4076618164
0.7700000000	13.0210216455
0.7750000000	8.4916117621
0.7800000000	5.9710813564
0.7850000000	4.4311369032
0.7900000000	3.4206356857
0.7950000000	2.7239810397
0.8000000000	2.2233679499
0.8050000000	1.8506613621
0.8100000000	1.5665555887
0.8150000000	1.3414383406
0.8200000000	1.1638277358
0.8250000000	1.0208640871
0.8300000000	0.9037952850
0.8350000000	0.8075670521
0.8400000000	0.7269233480
0.8450000000	0.6592683442
0.8500000000	0.6020874901
0.8550000000	0.5527574381
0.8600000000	0.5106479878
0.8650000000	0.4746743988
0.8700000000	0.4428977455
0.8750000000	0.4158545782
0.8800000000	0.3928900411
0.8850000000	0.3723030565
0.8900000000	0.3557484476
0.8950000000	0.3406899437
0.9000000000	0.3287106262
0.9050000000	0.3203767204
0.9100000000	0.3127338295
0.9150000000	0.3079930333
0.9200000000	0.3071720095
0.9250000000	0.3065066364
0.9300000000	0.3018028373
0.9350000000	0.2882482573
0.9400000000	0.2137712611
0.9450000000	-0.1238060515
0.9500000000	-1.9033759603
0.9550000000	-10.9226016465
0.9600000000	2.5761247906
0.9650000000	4.5215661015
0.9700000000	2.0045321341
0.9750000000	1.0521985510
0.9800000000	0.6595327393
0.9850000000	0.4759310029
0.9900000000	0.3701940262
0.9950000000	0.3060968054
1.0000000000	0.2651758930
1.0050000000	0.2392209441
1.0100000000	0.2191191512
1.0150000000	0.2044396151
1.0200000000	0.1945458855
1.0250000000	0.1862601326
1.0300000000	0.1799763796
1.0350000000	0.1752360816
1.0400000000	0.1722321269
1.0450000000	0.1697578719
1.0500000000	0.1681529513
1.0550000000	0.1673195848
1.0600000000	0.1674737126
1.0650000000	0.1680135063
1.0700000000	0.1691859891
1.0750000000	0.1709963074
1.0800000000	0.1736075386
1.0850000000	0.1769189337
1.0900000000	0.1817722000
1.0950000000	0.1875284313
1.1000000000	0.1943746996
1.1050000000	0.2022785820
1.1100000000	0.2114824901
1.1150000000	0.2221955176
1.1200000000	0.2346577796
1.1250000000	0.2492166276
1.1300000000	0.2662980613
1.1350000000	0.2864457609
1.1400000000	0.3102701708
1.1450000000	0.3389219026
1.1500000000	0.3736223604
1.1550000000	0.4161508756
1.1600000000	0.4690179531
1.1650000000	0.5354724090
1.1700000000	0.6216404231
1.1750000000	0.7356190744
1.1800000000	0.8908066149
1.1850000000	1.1092350821
1.1900000000	1.4323791453
1.1950000000	1.9399756510
1.2000000000	2.8012712023
1.2050000000	4.4292091955
1.2100000000	8.0103464351
1.2150000000	17.6875271979
1.2200000000	43.4148770939
1.2250000000	38.9683497382
1.2300000000	15.5088120185
1.2350000000	7.2459819285
1.2400000000	4.1157151083
1.2450000000	2.6768469650
1.2500000000	1.9158083045
1.2550000000	1.4743029768
1.2600000000	1.2030046305
1.2650000000	1.0300207451
1.2700000000	0.9228858851
1.2750000000	0.8604980136
1.2800000000	0.8324802972
1.2850000000	0.8338648957
1.2900000000	0.8633780434
1.2950000000	0.9223198886
1.3000000000	1.0186069644
1.3050000000	1.1622563259
1.3100000000	1.3725771513
1.3150000000	1.6831403186
1.3200000000	2.1545474875
1.3250000000	2.9021234407
1.3300000000	4.1792637305
1.3350000000	6.5726621353
1.3400000000	11.6884574488
1.3450000000	24.3855715587
1.3500000000	51.6970759672
1.3550000000	48.1823801509
1.3600000000	22.2110141169
1.3650000000	10.9119704355
1.3700000000	6.2584315567
1.3750000000	4.0256046048
1.3800000000	2.8082232600
1.3850000000	2.0748016181
1.3900000000	1.6018919363
1.3950000000	1.2790727441
1.4000000000	1.0491134866
1.4050000000	0.8797865200
1.4100000000	0.7513993670
1.4150000000	0.6518914224
1.4200000000	0.5722878922
1.4250000000	0.5085295254
1.4300000000	0.4569503260
1.4350000000	0.4045062006
1.4400000000	0.2384676879
1.4450000000	-0.1915213458
1.4500000000	-0.9781324781
1.4550000000	-0.3552394952
1.4600000000	0.8924652028
1.4650000000	0.5430882282
1.4700000000	-0.2317519254
1.4750000000	-1.4162493890
1.4800000000	-0.6173136456
1.4850000000	1.1117590634
1.4900000000	0.8994237915
1.4950000000	0.5860366032
1.5000000000	0.4145009714
1.5050000000	0.3213172060
1.5100000000	0.2678958173
1.5150000000	0.2350146603
1.5200000000	0.2133863834
1.5250000000	0.1996200093
1.5300000000	0.1886830975
1.5350000000	0.1806785359
1.5400000000	0.1748165700
1.5450000000	0.1706147893
1.5500000000	0.1677568565
1.5550000000	0.1660828732
1.5600000000	0.1658619514
1.5650000000	0.1664769984
1.5700000000	0.1684906073
1.5750000000	0.1722861044
1.5800000000	0.1786410690
1.5850000000	0.1890869159
1.5900000000	0.2068534179
1.5950000000	0.2390378945
1.6000000000	0.3004304282
1.6050000000	0.3998184686
1.6100000000	0.4439055150
1.6150000000	0.3585092252
1.6200000000	0.2812935227
1.6250000000	0.2429976318
1.6300000000	0.2262544909
1.6350000000	0.2202612778
1.6400000000	0.2201804999
1.6450000000	0.2238240132
1.6500000000	0.2301586075
1.6550000000	0.2387525050
1.6600000000	0.2494382805
1.6650000000	0.2622351313
1.6700000000	0.2772882619
1.6750000000	0.2948504717
1.6800000000	0.3152806770
1.6850000000	0.3390566916
1.6900000000	0.3667915764
1.6950000000	0.3990679153
1.7000000000	0.4371151882
1.7050000000	0.4831749869
1.7100000000	0.5399053591
1.7150000000	0.6204535761
1.7200000000	0.7320719517
1.7250000000	0.8673738698
1.7300000000	1.0372964902
1.7350000000	1.2188785794
1.7400000000	1.3791883248
1.7450000000	1.5785374222
1.7500000000	1.8878152761
1.7550000000	2.3546874968
1.7600000000	3.0567255691
1.7650000000	4.1404456771
1.7700000000	5.8861406483
1.7750000000	8.8254525871
1.7800000000	13.8290844623
1.7850000000	21.1964245206
1.7900000000	26.3047771440
1.7950000000	22.3634967980
1.8000000000	14.8562269175
1.8050000000	9.3620160167
1.8100000000	6.1572934608
1.8150000000	4.2800925636
1.8200000000	3.1251982984
1.8250000000	2.3764034279
1.8300000000	1.8676497418
1.8350000000	1.5080007514
1.8400000000	1.2452741599
1.8450000000	1.0477502435
1.8500000000	0.8954109091
1.8550000000	0.7756973865
1.8600000000	0.6797288676
1.8650000000	0.6013683662
1.8700000000	0.5360852277
1.8750000000	0.4803272422
1.8800000000	0.4309709682
1.8850000000	0.3848487304
1.8900000000	0.3379349376
1.8950000000	0.2841084865
1.9000000000	0.2130679186
1.9050000000	0.0921520701
1.9100000000	-0.0834260905
1.9150000000	-0.2725200003
1.9200000000	-0.1879535057
1.9250000000	0.3645233447
1.9300000000	0.8082940325
1.9350000000	0.8443072487
1.9400000000	0.6959790733
1.9450000000	0.5461077731
1.9500000000	0.4383464768
1.9550000000	0.3660462671
1.9600000000	0.3172662824
1.9650000000	0.2849713414
1.9700000000	0.2605153016
1.9750000000	0.2425665605
1.9800000000	0.2290474866
1.9850000000	0.2184903993
1.9900000000	0.2098494274
1.9950000000	0.2022773612
2.0000000000	0.1955698729
2.0050000000	0.1921520255
2.0100000000	0.1952871976
2.0150000000	0.2027833314
2.0200000000	0.2086837205
2.0250000000	0.2127063251
2.0300000000	0.2170010021
2.0350000000	0.2224952279
2.0400000000	0.2298967038
2.0450000000	0.2396660884
2.0500000000	0.2523571507
2.0550000000	0.2685315028
2.0600000000	0.2882158957
2.0650000000	0.3095402940
2.0700000000	0.3278654660
2.0750000000	0.3395068041
2.0800000000	0.3469797460
2.0850000000	0.3559023847
2.0900000000	0.3697526674
2.0950000000	0.3895936297
2.1000000000	0.4159970805
2.1050000000	0.4483590739
2.1100000000	0.4889375006
2.1150000000	0.5392998168
2.1200000000	0.6017723444
2.1250000000	0.6796991972
2.1300000000	0.7778485785
2.1350000000	0.9030595153
2.1400000000	1.0652175720
2.1450000000	1.2787723101
2.1500000000	1.5647581677
2.1550000000	1.9529055143
2.1600000000	2.4812263841
2.1650000000	3.1818663253
2.1700000000	4.0426488442
2.1750000000	4.9017177483
2.1800000000	5.4448792905
2.1850000000	5.5060253552
2.1900000000	5.3190421115
2.1950000000	5.1949039234
2.2000000000	5.1591535015
2.2050000000	4.9110320527
2.2100000000	4.3244502197
2.2150000000	3.5793623157
2.2200000000	2.8976303848
2.2250000000	2.3516032078
2.2300000000	1.9218337192
2.2350000000	1.5804799475
2.2400000000	1.3096532230
2.2450000000	1.0982676729
2.2500000000	0.9334121452
2.2550000000	0.8033431541
2.2600000000	0.6982581948
2.2650000000	0.6100013554
2.2700000000	0.5317197648
2.2750000000	0.4586035657
2.2800000000	0.3909928683
2.2850000000	0.3373756331
2.2900000000	0.3103248300
2.2950000000	0.3141740755
2.3000000000	0.3365207731
2.3050000000	0.3583598062
2.3100000000	0.3677862270
2.3150000000	0.3654044020
2.3200000000	0.3564266628
2.3250000000	0.3461741077
2.3300000000	0.3375222407
2.3350000000	0.3314676733
2.3400000000	0.3278039550
2.3450000000	0.3254642841
2.3500000000	0.3230243834
2.3550000000	0.3195734560
2.3600000000	0.3153641043
2.3650000000	0.3115010481
2.3700000000	0.3090794723
2.3750000000	0.3086345798
2.3800000000	0.3100756070
2.3850000000	0.3128534992
2.3900000000	0.3163565917
2.3950000000	0.3200617493
2.4000000000	0.3242812117
2.4050000000	0.3301782071
2.4100000000	0.3383440557
2.4150000000	0.3495285617
2.4200000000	0.3642417027
2.4250000000	0.3829474427
2.4300000000	0.4061662051
2.4350000000	0.4345503215
2.4400000000	0.4689391081
2.4450000000	0.5104153984
2.4500000000	0.5603573161
2.4550000000	0.6205083727
2.4600000000	0.6930215206
2.4650000000	0.7805017719
2.4700000000	0.8859666345
2.4750000000	1.0124876766
2.4800000000	1.1633872772
2.4850000000	1.3401593943
2.4900000000	1.5413409223
2.4950000000	1.7596551798
2.5000000000	1.9789364190
2.5050000000	2.1816049124
2.5100000000	2.3125343470
2.5150000000	2.3411991354
2.5200000000	2.2636521416
2.5250000000	2.1041561924
2.5300000000	1.8996242039
2.5350000000	1.6824341340
2.5400000000	1.4730940546
2.5450000000	1.2817399692
2.5500000000	1.1121594453
2.5550000000	0.9648337218
2.5600000000	0.8376253210
2.5650000000	0.7302553716
2.5700000000	0.6405815071
2.5750000000	0.5673356181
2.5800000000	0.5095273261
2.5850000000	0.4659297203
2.5900000000	0.4343279222
2.5950000000	0.4115155227
2.6000000000	0.3941388473
2.6050000000	0.3817455495
2.6100000000	0.3706175694
2.6150000000	0.3606180543
2.6200000000	0.3519968786
2.6250000000	0.3449997107
2.6300000000	0.3397748899
2.6350000000	0.3363867318
2.6400000000	0.3348689788
2.6450000000	0.3352597487
2.6500000000	0.3376408901
2.6550000000	0.3420261772
2.6600000000	0.3485306603
2.6650000000	0.3572559756
2.6700000000	0.3683218775
2.6750000000	0.3818704505
2.6800000000	0.3980598309
2.6850000000	0.4170627280
2.6900000000	0.4390460368
2.6950000000	0.4641610266
2.7000000000	0.4925124808
2.7050000000	0.5275142758
2.7100000000	0.5667442047
2.7150000000	0.6099329131
2.7200000000	0.6564982679
2.7250000000	0.7054705471
2.7300000000	0.7554236117
2.7350000000	0.8044145215
2.7400000000	0.8499520179
2.7450000000	0.8894061998
2.7500000000	0.9189593828
2.7550000000	0.9359892819
2.7600000000	0.9385264329
2.7650000000	0.9260642404
2.7700000000	0.8997377324
2.7750000000	0.8620936106
2.7800000000	0.8165094395
2.7850000000	0.7665783713
2.7900000000	0.7155103342
2.7950000000	0.6658752629
2.8000000000	0.6194858760
2.8050000000	0.5723148921
2.8100000000	0.5315950286
2.8150000000	0.4972333993
2.8200000000	0.4686898901
2.8250000000	0.4452466540
2.8300000000	0.4261835834
2.8350000000	0.4108869558
2.8400000000	0.3987043440
2.8450000000	0.3896796935
2.8500000000	0.3833348719
2.8550000000	0.3794917266
2.8600000000	0.3780242232
2.8650000000	0.3788327905
2.8700000000	0.3818287875
2.8750000000	0.3869215064
2.8800000000	0.3940060062
2.8850000000	0.4029518060
2.8900000000	0.4135982554
2.8950000000	0.4257491460
2.9000000000	0.4391717551
2.9050000000	0.4568038041
2.9100000000	0.4749062182
2.9150000000	0.4927808977
2.9200000000	0.5095883721
2.9250000000	0.5243552973
2.9300000000	0.5361668642
2.9350000000	0.5438051681
2.9400000000	0.5466601609
2.9450000000	0.5444194561
2.9500000000	0.5372669477
2.9550000000	0.5258551607
2.9600000000	0.5111779481
2.9650000000	0.4943882790
2.9700000000	0.4766175489
2.9750000000	0.4588474251
2.9800000000	0.4418392404
2.9850000000	0.4261241055
2.9900000000	0.4120288567
2.9950000000	0.3997199778
3.0000000000	0.3892511463
