# energy (eV)    P(omega), $W$ = 400 nm, $h$ = 300 nm, $s$ = 20 nm, $d/W = 5$, $E_{\rm e}$ = 200 keV
0.2000000000	0.1993016227
0.2050000000	0.2011654457
0.2100000000	0.2024360869
0.2150000000	0.2030925758
0.2200000000	0.2031047284
0.2250000000	0.2024309491
0.2300000000	0.2010159243
0.2350000000	0.1987872284
0.2400000000	0.1956511459
0.2450000000	0.1914868610
0.2500000000	0.1861392434
0.2550000000	0.1794087795
0.2600000000	0.1710378109
0.2650000000	0.1795652158
0.2700000000	0.2013373280
0.2750000000	0.2324572361
0.2800000000	0.2757551266
0.2850000000	0.3395118460
0.2900000000	0.4183460585
0.2950000000	0.5312195702
0.3000000000	0.6827097247
0.3050000000	0.9146608420
0.3100000000	1.2372593443
0.3150000000	1.8611786440
0.3200000000	2.8342326877
0.3250000000	3.4970770204
0.3300000000	4.4130661313
0.3350000000	5.7102642998
0.3400000000	7.7451627003
0.3450000000	11.2340143956
0.3500000000	18.1866054088
0.3550000000	34.2682051283
0.3600000000	84.1095823855
0.3650000000	0.5225666644
0.3700000000	38.8219117020
0.3750000000	51.0008518439
0.3800000000	23.7212741285
0.3850000000	13.3360871048
0.3900000000	8.5360637944
0.3950000000	6.0020647617
0.4000000000	4.5355090621
0.4050000000	3.5799103999
0.4100000000	2.9577701125
0.4150000000	2.5471083713
0.4200000000	2.2868537087
0.4250000000	2.0822922242
0.4300000000	1.8420143310
0.4350000000	1.6518464590
0.4400000000	1.5013796778
0.4450000000	1.3816366222
0.4500000000	1.2869393401
0.4550000000	1.2116665901
0.4600000000	1.1527120203
0.4650000000	1.1068202561
0.4700000000	1.0718295182
0.4750000000	1.0462197808
0.4800000000	1.0286671152
0.4850000000	1.0180160848
0.4900000000	1.0135717463
0.4950000000	1.0147983985
0.5000000000	1.0212349501
0.5050000000	1.0326652054
0.5100000000	1.0489077014
0.5150000000	1.0698492619
0.5200000000	1.0955142182
0.5250000000	1.1259181383
0.5300000000	1.1615130640
0.5350000000	1.2024828926
0.5400000000	1.2491788050
0.5450000000	1.3020701734
0.5500000000	1.3618240171
0.5550000000	1.4291696388
0.5600000000	1.5049967373
0.5650000000	1.5904548756
0.5700000000	1.6871347783
0.5750000000	1.7961979073
0.5800000000	1.9198511705
0.5850000000	2.0611152108
0.5900000000	2.2219906963
0.5950000000	2.4067599450
0.6000000000	2.6210776303
0.6050000000	2.8691275685
0.6100000000	3.1606315982
0.6150000000	3.5035811780
0.6200000000	3.9117622390
0.6250000000	4.4049663703
0.6300000000	5.0032796412
0.6350000000	5.7446130366
0.6400000000	6.6706278727
0.6450000000	7.8571422397
0.6500000000	9.4007712048
0.6550000000	11.4653182279
0.6600000000	14.3273063149
0.6650000000	18.4232119712
0.6700000000	24.6223363406
0.6750000000	34.5843483779
0.6800000000	52.1849914956
0.6850000000	87.4827331498
0.6900000000	175.1478510694
0.6950000000	491.1543771303
0.7000000000	2379.6480952382
0.7050000000	1155.7067466784
0.7100000000	296.5628181122
0.7150000000	125.9809764672
0.7200000000	68.7261252647
0.7250000000	43.1257704925
0.7300000000	29.5462463664
0.7350000000	21.5228157378
0.7400000000	16.3875363126
0.7450000000	12.9036834620
0.7500000000	10.4369832328
0.7550000000	8.6256593339
0.7600000000	7.2610206475
0.7650000000	6.2032674220
0.7700000000	5.3686511248
0.7750000000	4.6988808117
0.7800000000	4.1548127148
0.7850000000	3.7069778908
0.7900000000	3.3319459864
0.7950000000	3.0187945562
0.8000000000	2.7525973235
0.8050000000	2.5245938528
0.8100000000	2.3304922213
0.8150000000	2.1604105675
0.8200000000	2.0123491082
0.8250000000	1.8879922415
0.8300000000	1.7791029768
0.8350000000	1.6843841454
0.8400000000	1.6086977794
0.8450000000	1.5425586583
0.8500000000	1.4863300056
0.8550000000	1.4501645716
0.8600000000	1.4209033678
0.8650000000	1.3995149654
0.8700000000	1.4045473477
0.8750000000	1.4052348756
0.8800000000	1.3962022452
0.8850000000	1.3347126261
0.8900000000	1.0377822348
0.8950000000	-0.4442860575
0.9000000000	-8.3790805519
0.9050000000	-55.0752751730
0.9100000000	10.4676744046
0.9150000000	24.7871871623
0.9200000000	10.2807531132
0.9250000000	5.3453750837
0.9300000000	3.2625533134
0.9350000000	2.2684287213
0.9400000000	1.7328000657
0.9450000000	1.4363553166
0.9500000000	1.2265713497
0.9550000000	1.0869053053
0.9600000000	1.0014573506
0.9650000000	0.9320929327
0.9700000000	0.8842997010
0.9750000000	0.8542163870
0.9800000000	0.8398766678
0.9850000000	0.8460861488
0.9900000000	0.8695422437
0.9950000000	0.9265497841
1.0000000000	1.0474592678
1.0050000000	1.3163323581
1.0100000000	2.0109928191
1.0150000000	4.3665028328
1.0200000000	8.6177326975
1.0250000000	3.7045610159
1.0300000000	1.7283212758
1.0350000000	1.1420484266
1.0400000000	0.9112942746
1.0450000000	0.8017932131
1.0500000000	0.7447412512
1.0550000000	0.7127587210
1.0600000000	0.6954150256
1.0650000000	0.6874257373
1.0700000000	0.6858512742
1.0750000000	0.6894764004
1.0800000000	0.6965535860
1.0850000000	0.7077440593
1.0900000000	0.7253738254
1.0950000000	0.7465228788
1.1000000000	0.7713950913
1.1050000000	0.7998837826
1.1100000000	0.8324842013
1.1150000000	0.8695975344
1.1200000000	0.9117451459
1.1250000000	0.9594166033
1.1300000000	1.0137590962
1.1350000000	1.0757177657
1.1400000000	1.1465217838
1.1450000000	1.2278753489
1.1500000000	1.3212445999
1.1550000000	1.4306225888
1.1600000000	1.5591114738
1.1650000000	1.7117075316
1.1700000000	1.8940809898
1.1750000000	2.1082328589
1.1800000000	2.3672135747
1.1850000000	2.9874750135
1.1900000000	3.7658826962
1.1950000000	5.3511834802
1.2000000000	7.4231206956
1.2050000000	6.3676361641
1.2100000000	5.9590896604
1.2150000000	6.5666950574
1.2200000000	7.8169364609
1.2250000000	9.7602409958
1.2300000000	12.7245669262
1.2350000000	17.4177838922
1.2400000000	25.3237031694
1.2450000000	40.2062695637
1.2500000000	72.4225491967
1.2550000000	156.6318314496
1.2600000000	377.9722794265
1.2650000000	382.4755613538
1.2700000000	158.9203387124
1.2750000000	73.2632828854
1.2800000000	40.5144905140
1.2850000000	25.4342225509
1.2900000000	17.3973565013
1.2950000000	12.6485169852
1.3000000000	9.6221285352
1.3050000000	7.5819355753
1.3100000000	6.1398241803
1.3150000000	5.0933175670
1.3200000000	4.3117460970
1.3250000000	3.7158374173
1.3300000000	3.2565362322
1.3350000000	2.9020919327
1.3400000000	2.6330289874
1.3450000000	2.4376976412
1.3500000000	2.3211848834
1.3550000000	2.2993933589
1.3600000000	2.4226655142
1.3650000000	2.8260254641
1.3700000000	3.8921814879
1.3750000000	6.6413634073
1.3800000000	10.4285393235
1.3850000000	7.4191304360
1.3900000000	3.9934364228
1.3950000000	2.4660182899
1.4000000000	1.6939689847
1.4050000000	1.1551269435
1.4100000000	0.5627930235
1.4150000000	-0.4749907600
1.4200000000	-2.9691563430
1.4250000000	-9.7121162655
1.4300000000	-12.9361720580
1.4350000000	5.6983556034
1.4400000000	7.3418738627
1.4450000000	4.3653152397
1.4500000000	2.6897751586
1.4550000000	1.8430621480
1.4600000000	1.3719510994
1.4650000000	1.0486934036
1.4700000000	0.7720701483
1.4750000000	0.7637366560
1.4800000000	0.8780666515
1.4850000000	0.8045151999
1.4900000000	0.7326926010
1.4950000000	0.6841145882
1.5000000000	0.6508176913
1.5050000000	0.6287660730
1.5100000000	0.6141197028
1.5150000000	0.6077102777
1.5200000000	0.6039962784
1.5250000000	0.6059091107
1.5300000000	0.6144718281
1.5350000000	0.6320824872
1.5400000000	0.6638485216
1.5450000000	0.7208048561
1.5500000000	0.8275646642
1.5550000000	1.0332571769
1.5600000000	1.3437769433
1.5650000000	1.3898259419
1.5700000000	1.0965898223
1.5750000000	0.8849185334
1.5800000000	0.7848697212
1.5850000000	0.7420090028
1.5900000000	0.7277031502
1.5950000000	0.7293479303
1.6000000000	0.7412615257
1.6050000000	0.7610908472
1.6100000000	0.7872509362
1.6150000000	0.8191728307
1.6200000000	0.8571815350
1.6250000000	0.9015478351
1.6300000000	0.9529181911
1.6350000000	1.0122027416
1.6400000000	1.0805925917
1.6450000000	1.1596402125
1.6500000000	1.2513071589
1.6550000000	1.3580864526
1.6600000000	1.4832098929
1.6650000000	1.6308399421
1.6700000000	1.8048500728
1.6750000000	2.0154074346
1.6800000000	2.2710289026
1.6850000000	2.5852594454
1.6900000000	2.9771770988
1.6950000000	3.4745213245
1.7000000000	4.1185595522
1.7050000000	4.9994529097
1.7100000000	6.2147926811
1.7150000000	7.9564057569
1.7200000000	10.5659130410
1.7250000000	14.6419990231
1.7300000000	20.9376203810
1.7350000000	29.6982820181
1.7400000000	42.1798363347
1.7450000000	63.8547356892
1.7500000000	91.3222065862
1.7550000000	93.0590740633
1.7600000000	65.1884138553
1.7650000000	40.4680687117
1.7700000000	25.8212023629
1.7750000000	17.4914219841
1.7800000000	12.5532981172
1.7850000000	9.4817674815
1.7900000000	7.5133140986
1.7950000000	6.2687994704
1.8000000000	5.5534023595
1.8050000000	5.1138424576
1.8100000000	4.4657635422
1.8150000000	3.5783610001
1.8200000000	2.8714846949
1.8250000000	2.4585073158
1.8300000000	2.1542303423
1.8350000000	1.8909862791
1.8400000000	1.6744309674
1.8450000000	1.4983270216
1.8500000000	1.3527953121
1.8550000000	1.2297376151
1.8600000000	1.1129875751
1.8650000000	1.0122471936
1.8700000000	0.9070612834
1.8750000000	0.7513465762
1.8800000000	0.3961121194
1.8850000000	-0.3775314787
1.8900000000	-1.4141924579
1.8950000000	-1.5818280409
1.9000000000	0.1183351513
1.9050000000	1.6959445463
1.9100000000	1.8795900451
1.9150000000	1.5823651378
1.9200000000	1.2920143538
1.9250000000	1.0871982559
1.9300000000	0.9649767809
1.9350000000	0.8737608926
1.9400000000	0.8165155371
1.9450000000	0.7824096064
1.9500000000	0.7589949777
1.9550000000	0.7325957159
1.9600000000	0.7031805692
1.9650000000	0.6798727522
1.9700000000	0.6662328099
1.9750000000	0.6617443126
1.9800000000	0.6657071006
1.9850000000	0.6784140612
1.9900000000	0.7012414567
1.9950000000	0.7358770582
2.0000000000	0.7808452290
2.0050000000	0.8265198305
2.0100000000	0.8460499945
2.0150000000	0.8404404374
2.0200000000	0.8335083702
2.0250000000	0.8399132859
2.0300000000	0.8623205416
2.0350000000	0.9001193979
2.0400000000	0.9534115386
2.0450000000	1.0238363521
2.0500000000	1.1144049578
2.0550000000	1.2283217648
2.0600000000	1.3658598477
2.0650000000	1.5220606485
2.0700000000	1.6963675664
2.0750000000	1.9078171299
2.0800000000	2.1891411084
2.0850000000	2.5707887205
2.0900000000	3.0707498447
2.0950000000	3.6570962011
2.1000000000	4.1968505684
2.1050000000	4.5043703142
2.1100000000	4.4897961208
2.1150000000	4.3577242283
2.1200000000	4.3339594106
2.1250000000	4.5278245185
2.1300000000	4.9862590653
2.1350000000	5.7589661630
2.1400000000	6.9310600001
2.1450000000	8.6385314280
2.1500000000	11.0606954630
2.1550000000	14.3237243731
2.1600000000	18.1624299219
2.1650000000	21.3712295385
2.1700000000	22.1153869164
2.1750000000	19.7778329913
2.1800000000	15.9505693515
2.1850000000	12.2969144090
2.1900000000	9.4494731809
2.1950000000	7.4023574719
2.2000000000	5.9779307558
2.2050000000	5.0085631616
2.2100000000	4.3452108119
2.2150000000	3.8331061847
2.2200000000	3.3559817244
2.2250000000	2.8843261995
2.2300000000	2.4491917688
2.2350000000	2.0742839638
2.2400000000	1.7582956573
2.2450000000	1.4877475916
2.2500000000	1.2482515590
2.2550000000	1.0308837831
2.2600000000	0.8138092974
2.2650000000	0.6529003601
2.2700000000	0.5616195762
2.2750000000	0.5755645888
2.2800000000	0.6907756041
2.2850000000	0.8394071455
2.2900000000	0.9463546937
2.2950000000	0.9898897363
2.3000000000	0.9886139561
2.3050000000	0.9638617554
2.3100000000	0.9335176049
2.3150000000	0.9060078638
2.3200000000	0.8846068114
2.3250000000	0.8705964927
2.3300000000	0.8645627841
2.3350000000	0.8668375448
2.3400000000	0.8777163189
2.3450000000	0.8976064380
2.3500000000	0.9270343070
2.3550000000	0.9671046618
2.3600000000	1.0166748406
2.3650000000	1.0762270282
2.3700000000	1.1455647465
2.3750000000	1.2254300837
2.3800000000	1.3186403209
2.3850000000	1.4285998332
2.3900000000	1.5562478296
2.3950000000	1.6965335356
2.4000000000	1.8361124365
2.4050000000	1.9617106858
2.4100000000	2.0414033187
2.4150000000	2.0691337128
2.4200000000	2.0597969733
2.4250000000	2.0391510957
2.4300000000	2.0305634863
2.4350000000	2.0487353330
2.4400000000	2.1002418520
2.4450000000	2.1872667814
2.4500000000	2.3117084740
2.4550000000	2.4773980420
2.4600000000	2.6935474067
2.4650000000	2.9693070001
2.4700000000	3.3139404990
2.4750000000	3.7325241872
2.4800000000	4.2206565494
2.4850000000	4.7571101532
2.4900000000	5.2953707332
2.4950000000	5.7595517471
2.5000000000	6.0555378976
2.5050000000	6.0866919087
2.5100000000	5.8161114594
2.5150000000	5.3170407951
2.5200000000	4.7046326537
2.5250000000	4.0794029891
2.5300000000	3.5022737159
2.5350000000	2.9985712114
2.5400000000	2.5717163942
2.5450000000	2.2150972547
2.5500000000	1.9193214865
2.5550000000	1.6759605154
2.5600000000	1.4717332142
2.5650000000	1.3175271439
2.5700000000	1.2049269186
2.5750000000	1.1299092370
2.5800000000	1.0846795012
2.5850000000	1.0587302540
2.5900000000	1.0422860713
2.5950000000	1.0292985256
2.6000000000	1.0177705667
2.6050000000	1.0152364124
2.6100000000	1.0166344221
2.6150000000	1.0237743033
2.6200000000	1.0376100261
2.6250000000	1.0582848335
2.6300000000	1.0851421542
2.6350000000	1.1167297351
2.6400000000	1.1508288712
2.6450000000	1.1846429374
2.6500000000	1.2152252763
2.6550000000	1.2401762030
2.6600000000	1.2584144613
2.6650000000	1.2706902354
2.6700000000	1.2794589853
2.6750000000	1.2883189488
2.6800000000	1.3007530887
2.6850000000	1.3200996052
2.6900000000	1.3487450852
2.6950000000	1.3882332636
2.7000000000	1.4393691975
2.7050000000	1.5095999544
2.7100000000	1.5948182493
2.7150000000	1.6939462638
2.7200000000	1.8045913199
2.7250000000	1.9225708400
2.7300000000	2.0414962192
2.7350000000	2.1527175223
2.7400000000	2.2459408258
2.7450000000	2.3107445319
2.7500000000	2.3387877296
2.7550000000	2.3259707260
2.7600000000	2.2735821506
2.7650000000	2.1878581715
2.7700000000	2.0782144783
2.7750000000	1.9550095647
2.7800000000	1.8277048134
2.7850000000	1.7038289774
2.7900000000	1.5877392223
2.7950000000	1.4841733736
2.8000000000	1.3941212329
2.8050000000	1.3094490199
2.8100000000	1.2411821077
2.8150000000	1.1870238283
2.8200000000	1.1445029124
2.8250000000	1.1113808413
2.8300000000	1.0857893055
2.8350000000	1.0662195770
2.8400000000	1.0514316275
2.8450000000	1.0403998034
2.8500000000	1.0323072116
2.8550000000	1.0265962096
2.8600000000	1.0230223806
2.8650000000	1.0216755675
2.8700000000	1.0229249935
2.8750000000	1.0273133263
2.8800000000	1.0354148618
2.8850000000	1.0477104536
2.8900000000	1.0644904108
2.8950000000	1.0857918819
2.9000000000	1.1113524928
2.9050000000	1.1479164721
2.9100000000	1.1868213528
2.9150000000	1.2256446777
2.9200000000	1.2613362914
2.9250000000	1.2906421684
2.9300000000	1.3105652849
2.9350000000	1.3189013073
2.9400000000	1.3146837562
2.9450000000	1.2983739708
2.9500000000	1.2717308987
2.9550000000	1.2373859376
2.9600000000	1.1983049611
2.9650000000	1.1572915048
2.9700000000	1.1166549860
2.9750000000	1.0780674597
2.9800000000	1.0425730528
2.9850000000	1.0106975533
2.9900000000	0.9825924603
2.9950000000	0.9581741181
3.0000000000	0.9372350171
