# energy (eV)    P(omega), $W$ = 300 nm, $h$ = 300 nm, $s$ = 20 nm, $d/W = 5$, $E_{\rm e}$ = 200 keV
0.2000000000	0.1528691998
0.2050000000	0.1551978722
0.2100000000	0.1573622192
0.2150000000	0.1593677173
0.2200000000	0.1612193014
0.2250000000	0.1629210399
0.2300000000	0.1644761806
0.2350000000	0.1658869799
0.2400000000	0.1671545853
0.2450000000	0.1682788221
0.2500000000	0.1692580429
0.2550000000	0.1700887133
0.2600000000	0.1707653440
0.2650000000	0.1712797769
0.2700000000	0.1716209301
0.2750000000	0.1717739655
0.2800000000	0.1717195333
0.2850000000	0.1714326645
0.2900000000	0.1708814245
0.2950000000	0.1700251230
0.3000000000	0.1688118323
0.3050000000	0.1671753706
0.3100000000	0.1650309736
0.3150000000	0.1747470863
0.3200000000	0.1862856116
0.3250000000	0.2008894146
0.3300000000	0.2204648076
0.3350000000	0.2448240270
0.3400000000	0.2767216158
0.3450000000	0.3153765689
0.3500000000	0.3659230617
0.3550000000	0.4327710278
0.3600000000	0.5199877914
0.3650000000	0.6415156627
0.3700000000	0.8015997115
0.3750000000	1.0241083402
0.3800000000	1.3456796572
0.3850000000	1.8464279485
0.3900000000	2.6368815388
0.3950000000	3.9785351234
0.4000000000	6.5344113239
0.4050000000	12.2606539453
0.4100000000	27.8737009669
0.4150000000	89.3685506674
0.4200000000	56.9785970048
0.4250000000	-106.9562697752
0.4300000000	29.6843961657
0.4350000000	18.4743512352
0.4400000000	11.2768681702
0.4450000000	7.4054053780
0.4500000000	5.1782205833
0.4550000000	3.8084912004
0.4600000000	2.9169188468
0.4650000000	2.3096901047
0.4700000000	1.8807081132
0.4750000000	1.5705621473
0.4800000000	1.3406599782
0.4850000000	1.1676635547
0.4900000000	1.0355763815
0.4950000000	0.9336645486
0.5000000000	0.8545898807
0.5050000000	0.7929738836
0.5100000000	0.7453475036
0.5150000000	0.7091542463
0.5200000000	0.6817386000
0.5250000000	0.6618896642
0.5300000000	0.6483199241
0.5350000000	0.6400836655
0.5400000000	0.6364827865
0.5450000000	0.6369343921
0.5500000000	0.6412425922
0.5550000000	0.6490752197
0.5600000000	0.6602553200
0.5650000000	0.6746984499
0.5700000000	0.6923231333
0.5750000000	0.7132499157
0.5800000000	0.7376737020
0.5850000000	0.7657192389
0.5900000000	0.7976365583
0.5950000000	0.8337458781
0.6000000000	0.8744534491
0.6050000000	0.9203586867
0.6100000000	0.9720258874
0.6150000000	1.0302322293
0.6200000000	1.0960152451
0.6250000000	1.1703685244
0.6300000000	1.2547637868
0.6350000000	1.3510346346
0.6400000000	1.4610865955
0.6450000000	1.5876747598
0.6500000000	1.7344187132
0.6550000000	1.9050842769
0.6600000000	2.1054644861
0.6650000000	2.3429846189
0.6700000000	2.6263726352
0.6750000000	2.9689451183
0.6800000000	3.3886009074
0.6850000000	3.9087786285
0.6900000000	4.5657788805
0.6950000000	5.4103591922
0.7000000000	6.5231343613
0.7050000000	8.0273119431
0.7100000000	10.1316126966
0.7150000000	13.2075325161
0.7200000000	17.9464920226
0.7250000000	25.8097795157
0.7300000000	40.2372302005
0.7350000000	71.0952316392
0.7400000000	155.6885911978
0.7450000000	516.0900544940
0.7500000000	1597.5970466926
0.7550000000	401.5946289000
0.7600000000	132.8940450372
0.7650000000	63.6249853065
0.7700000000	36.9727109057
0.7750000000	24.1118989389
0.7800000000	16.9550576520
0.7850000000	12.5824845266
0.7900000000	9.7132142224
0.7950000000	7.7350848777
0.8000000000	6.3136016312
0.8050000000	5.2553007367
0.8100000000	4.4485775396
0.8150000000	3.8093490371
0.8200000000	3.3050147651
0.8250000000	2.8990601170
0.8300000000	2.5666340885
0.8350000000	2.2933851582
0.8400000000	2.0643890252
0.8450000000	1.8722749114
0.8500000000	1.7099028973
0.8550000000	1.5698235983
0.8600000000	1.4502480058
0.8650000000	1.3480960858
0.8700000000	1.2578615841
0.8750000000	1.1810688998
0.8800000000	1.1158585663
0.8850000000	1.0573994598
0.8900000000	1.0103921120
0.8950000000	0.9676329739
0.9000000000	0.9336188161
0.9050000000	0.9099583274
0.9100000000	0.8882598946
0.9150000000	0.8748042305
0.9200000000	0.8724823408
0.9250000000	0.8706021347
0.9300000000	0.8572493670
0.9350000000	0.8187523620
0.9400000000	0.6071866423
0.9450000000	-0.3518022476
0.9500000000	-5.4072793993
0.9550000000	-31.0297491868
0.9600000000	7.3184606595
0.9650000000	12.8453936694
0.9700000000	5.6947370456
0.9750000000	2.9892243051
0.9800000000	1.8736817881
0.9850000000	1.3520777272
0.9900000000	1.0516825139
0.9950000000	0.8695841483
1.0000000000	0.7533290790
1.0050000000	0.6795925143
1.0100000000	0.6224840517
1.0150000000	0.5807801228
1.0200000000	0.5526729656
1.0250000000	0.5291335856
1.0300000000	0.5112817693
1.0350000000	0.4978147812
1.0400000000	0.4892809000
1.0450000000	0.4822514455
1.0500000000	0.4776915926
1.0550000000	0.4753235508
1.0600000000	0.4757609791
1.0650000000	0.4772936324
1.0700000000	0.4806234575
1.0750000000	0.4857651251
1.0800000000	0.4931820155
1.0850000000	0.5025873486
1.0900000000	0.5163721261
1.0950000000	0.5327216313
1.1000000000	0.5521673468
1.1050000000	0.5746167232
1.1100000000	0.6007584232
1.1150000000	0.6311863317
1.1200000000	0.6665825406
1.1250000000	0.7079331416
1.1300000000	0.7564481489
1.1350000000	0.8136716942
1.1400000000	0.8813376152
1.1450000000	0.9627132415
1.1500000000	1.0612675947
1.1550000000	1.1820540117
1.1600000000	1.3322023789
1.1650000000	1.5209396721
1.1700000000	1.7656637777
1.1750000000	2.0893708894
1.1800000000	2.5301123261
1.1850000000	3.1504598370
1.1900000000	4.0682039017
1.1950000000	5.5097992292
1.2000000000	7.9559162456
1.2050000000	12.5793406195
1.2100000000	22.7499817751
1.2150000000	50.2338980493
1.2200000000	123.3021677095
1.2250000000	110.6749880759
1.2300000000	44.0478702312
1.2350000000	20.5805375120
1.2400000000	11.6902159281
1.2450000000	7.6036777448
1.2500000000	5.4422753941
1.2550000000	4.1884062188
1.2600000000	3.4179665490
1.2650000000	2.9267741123
1.2700000000	2.6226290843
1.2750000000	2.4456030757
1.2800000000	2.3662330449
1.2850000000	2.3704206682
1.2900000000	2.4545650605
1.2950000000	2.6223793909
1.3000000000	2.8963884253
1.3050000000	3.3050945991
1.3100000000	3.9034271904
1.3150000000	4.7868819436
1.3200000000	6.1278409884
1.3250000000	8.2543492596
1.3300000000	11.8871841967
1.3350000000	18.6951962378
1.3400000000	33.2470464082
1.3450000000	69.3639799066
1.3500000000	147.0518719815
1.3550000000	137.0550472147
1.3600000000	63.1795220145
1.3650000000	31.0392596856
1.3700000000	17.8021826376
1.3750000000	11.4508547461
1.3800000000	7.9879823620
1.3850000000	5.9017458125
1.3900000000	4.5565445362
1.3950000000	3.6382802166
1.4000000000	2.9841613704
1.4050000000	2.5025157663
1.4100000000	2.1373299932
1.4150000000	1.8543021765
1.4200000000	1.6279114789
1.4250000000	1.4466313973
1.4300000000	1.3000873074
1.4350000000	1.1512352315
1.4400000000	0.6792881480
1.4450000000	-0.5431434223
1.4500000000	-2.7790234339
1.4550000000	-1.0089487716
1.4600000000	2.5368526115
1.4650000000	1.5433333754
1.4700000000	-0.6603317388
1.4750000000	-4.0297723165
1.4800000000	-1.7566709741
1.4850000000	3.1625295889
1.4900000000	2.5585132975
1.4950000000	1.6669785160
1.5000000000	1.1789888668
1.5050000000	0.9138985278
1.5100000000	0.7619228186
1.5150000000	0.6683790091
1.5200000000	0.6068456347
1.5250000000	0.5676749013
1.5300000000	0.5365514528
1.5350000000	0.5137666298
1.5400000000	0.4970729307
1.5450000000	0.4850969591
1.5500000000	0.4769369638
1.5550000000	0.4721358153
1.5600000000	0.4714552815
1.5650000000	0.4731344240
1.5700000000	0.4787641986
1.5750000000	0.4894191828
1.5800000000	0.5072826988
1.5850000000	0.5366560538
1.5900000000	0.5866118809
1.5950000000	0.6770873715
1.6000000000	0.8496296283
1.6050000000	1.1289269527
1.6100000000	1.2528849064
1.6150000000	1.0131295424
1.6200000000	0.7963825817
1.6250000000	0.6889918180
1.6300000000	0.6421713686
1.6350000000	0.6255770587
1.6400000000	0.6256229865
1.6450000000	0.6361662355
1.6500000000	0.6543083615
1.6550000000	0.6788428987
1.6600000000	0.7093059469
1.6650000000	0.7457595660
1.6700000000	0.7886215601
1.6750000000	0.8386142683
1.6800000000	0.8967607835
1.6850000000	0.9644224212
1.6900000000	1.0433446680
1.6950000000	1.1351869596
1.7000000000	1.2434509596
1.7050000000	1.3745220170
1.7100000000	1.5359694846
1.7150000000	1.7651614898
1.7200000000	2.0826878196
1.7250000000	2.4675875762
1.7300000000	2.9509879859
1.7350000000	3.4675819384
1.7400000000	3.9237099403
1.7450000000	4.4909301910
1.7500000000	5.3709003071
1.7550000000	6.6992380494
1.7600000000	8.6966531738
1.7650000000	11.7800145293
1.7700000000	16.7468098286
1.7750000000	25.1096656318
1.7800000000	39.3459232228
1.7850000000	60.3074769207
1.7900000000	74.8419890937
1.7950000000	63.6286129630
1.8000000000	42.2691269897
1.8050000000	26.6370461539
1.8100000000	17.5189646947
1.8150000000	12.1779332988
1.8200000000	8.8920075152
1.8250000000	6.7615176438
1.8300000000	5.3139957418
1.8350000000	4.2907091412
1.8400000000	3.5431882086
1.8450000000	2.9811838687
1.8500000000	2.5477400837
1.8550000000	2.2071247746
1.8600000000	1.9340697585
1.8650000000	1.7111140804
1.8700000000	1.5253670233
1.8750000000	1.3667217507
1.8800000000	1.2262913890
1.8850000000	1.0950631922
1.8900000000	0.9615833600
1.8950000000	0.8084357849
1.9000000000	0.6063097975
1.9050000000	0.2622745757
1.9100000000	-0.2372905718
1.9150000000	-0.7753067636
1.9200000000	-0.5346444729
1.9250000000	1.0374252999
1.9300000000	2.3001878118
1.9350000000	2.4026637344
1.9400000000	1.9805634272
1.9450000000	1.5540678123
1.9500000000	1.2474056150
1.9550000000	1.0416569566
1.9600000000	0.9028412685
1.9650000000	0.8109377329
1.9700000000	0.7413423243
1.9750000000	0.6902650497
1.9800000000	0.6517933944
1.9850000000	0.6217506084
1.9900000000	0.5971602713
1.9950000000	0.5756112687
2.0000000000	0.5565223481
2.0050000000	0.5467960074
2.0100000000	0.5557212781
2.0150000000	0.5770579119
2.0200000000	0.5938500568
2.0250000000	0.6052950951
2.0300000000	0.6175123172
2.0350000000	0.6331414299
2.0400000000	0.6541957814
2.0450000000	0.6819852088
2.0500000000	0.7180840207
2.0550000000	0.7640889201
2.0600000000	0.8200763122
2.0650000000	0.8807310288
2.0700000000	0.9328662620
2.0750000000	0.9660090078
2.0800000000	0.9873106843
2.0850000000	1.0127425711
2.0900000000	1.0521928196
2.0950000000	1.1086850576
2.1000000000	1.1838480327
2.1050000000	1.2759654138
2.1100000000	1.3914637667
2.1150000000	1.5348052865
2.1200000000	1.7126116539
2.1250000000	1.9344009692
2.1300000000	2.2137443270
2.1350000000	2.5701065636
2.1400000000	3.0316228597
2.1450000000	3.6394184128
2.1500000000	4.4533596012
2.1550000000	5.5580624341
2.1600000000	7.0617148722
2.1650000000	9.0558095075
2.1700000000	11.5056987435
2.1750000000	13.9507351043
2.1800000000	15.4966985075
2.1850000000	15.6708210040
2.1900000000	15.1387526650
2.1950000000	14.7855533675
2.2000000000	14.6839170651
2.2050000000	13.9778326634
2.2100000000	12.3084181306
2.2150000000	10.1878531393
2.2200000000	8.2475928457
2.2250000000	6.6935397193
2.2300000000	5.4703301455
2.2350000000	4.4987304612
2.2400000000	3.7278511097
2.2450000000	3.1261569637
2.2500000000	2.6569068974
2.2550000000	2.2866765777
2.2600000000	1.9875645114
2.2650000000	1.7363544231
2.2700000000	1.5135389369
2.2750000000	1.3054249066
2.2800000000	1.1129780319
2.2850000000	0.9603570767
2.2900000000	0.8833502578
2.2950000000	0.8942954740
2.3000000000	0.9578933948
2.3050000000	1.0200489827
2.3100000000	1.0468759912
2.3150000000	1.0400932400
2.3200000000	1.0145360816
2.3250000000	0.9853499089
2.3300000000	0.9607193598
2.3350000000	0.9434811577
2.3400000000	0.9330478853
2.3450000000	0.9263836030
2.3500000000	0.9194349501
2.3550000000	0.9096100116
2.3600000000	0.8976277971
2.3650000000	0.8866325626
2.3700000000	0.8797414429
2.3750000000	0.8784778708
2.3800000000	0.8825834771
2.3850000000	0.8904955422
2.3900000000	0.9004732284
2.3950000000	0.9110275758
2.4000000000	0.9230470794
2.4050000000	0.9398427271
2.4100000000	0.9630967883
2.4150000000	0.9949432856
2.4200000000	1.0368339725
2.4250000000	1.0900897541
2.4300000000	1.1561923017
2.4350000000	1.2369988022
2.4400000000	1.3348987974
2.4450000000	1.4529750249
2.4500000000	1.5951508702
2.4550000000	1.7663899025
2.4600000000	1.9728212025
2.4650000000	2.2218610473
2.4700000000	2.5220994121
2.4750000000	2.8822807282
2.4800000000	3.3118629134
2.4850000000	3.8150982986
2.4900000000	4.3878212520
2.4950000000	5.0093163006
2.5000000000	5.6335629997
2.5050000000	6.2105161603
2.5100000000	6.5832463846
2.5150000000	6.6648553277
2.5200000000	6.4441060687
2.5250000000	5.9900676061
2.5300000000	5.4078210430
2.5350000000	4.7895384043
2.5400000000	4.1936008916
2.5450000000	3.6488632093
2.5500000000	3.1661081672
2.5550000000	2.7467057816
2.5600000000	2.3845718634
2.5650000000	2.0789125129
2.5700000000	1.8236293773
2.5750000000	1.6151127963
2.5800000000	1.4505435990
2.5850000000	1.3264292647
2.5900000000	1.2364646309
2.5950000000	1.1715216815
2.6000000000	1.1220530648
2.6050000000	1.0867709395
2.6100000000	1.0550907523
2.6150000000	1.0266230470
2.6200000000	1.0020794316
2.6250000000	0.9821596136
2.6300000000	0.9672862574
2.6350000000	0.9576426253
2.6400000000	0.9533248945
2.6450000000	0.9544414184
2.6500000000	0.9612250135
2.6550000000	0.9737145849
2.6600000000	0.9922375086
2.6650000000	1.0170830125
2.6700000000	1.0485919690
2.6750000000	1.0871688862
2.6800000000	1.1332640073
2.6850000000	1.1873691065
2.6900000000	1.2499594192
2.6950000000	1.3214656776
2.7000000000	1.4021863105
2.7050000000	1.5018408430
2.7100000000	1.6135332744
2.7150000000	1.7364968680
2.7200000000	1.8690744243
2.7250000000	2.0085052801
2.7300000000	2.1507291021
2.7350000000	2.2902144870
2.7400000000	2.4198687763
2.7450000000	2.5322040084
2.7500000000	2.6163512246
2.7550000000	2.6648438710
2.7600000000	2.6720744006
2.7650000000	2.6366000907
2.7700000000	2.5616522207
2.7750000000	2.4544809329
2.7800000000	2.3247024497
2.7850000000	2.1825469615
2.7900000000	2.0371532942
2.7950000000	1.8958387050
2.8000000000	1.7637641849
2.8050000000	1.6294634095
2.8100000000	1.5135292423
2.8150000000	1.4156974198
2.8200000000	1.3344302801
2.8250000000	1.2676841531
2.8300000000	1.2134089139
2.8350000000	1.1698573329
2.8400000000	1.1351719599
2.8450000000	1.1094779938
2.8500000000	1.0914141972
2.8550000000	1.0804733536
2.8600000000	1.0762966202
2.8650000000	1.0786005129
2.8700000000	1.0871325849
2.8750000000	1.1016346148
2.8800000000	1.1218078413
2.8850000000	1.1472807451
2.8900000000	1.1775959793
2.8950000000	1.2121949412
2.9000000000	1.2504150822
2.9050000000	1.3006210717
2.9100000000	1.3521667495
2.9150000000	1.4030644112
2.9200000000	1.4509237885
2.9250000000	1.4929734019
2.9300000000	1.5266084084
2.9350000000	1.5483609684
2.9400000000	1.5564939233
2.9450000000	1.5501176272
2.9500000000	1.5297556123
2.9550000000	1.4972656193
2.9600000000	1.4554774611
2.9650000000	1.4076739714
2.9700000000	1.3570766250
2.9750000000	1.3064805981
2.9800000000	1.2580537462
2.9850000000	1.2133084303
2.9900000000	1.1731752721
2.9950000000	1.1381284367
3.0000000000	1.1083208014
