# energy (eV)    P(omega), $W$ = 300 nm, $h$ = 300 nm, $s$ = 20 nm, $d/W = 5$, $E_{\rm e}$ = 200 keV
0.2000000000	0.1000521400
0.2050000000	0.1014892099
0.2100000000	0.1028401243
0.2150000000	0.1041075751
0.2200000000	0.1052938828
0.2250000000	0.1064009654
0.2300000000	0.1074302307
0.2350000000	0.1083825572
0.2400000000	0.1092581938
0.2450000000	0.1100565435
0.2500000000	0.1107762844
0.2550000000	0.1114148796
0.2600000000	0.1119686227
0.2650000000	0.1124323492
0.2700000000	0.1127989797
0.2750000000	0.1130592477
0.2800000000	0.1132011424
0.2850000000	0.1132093075
0.2900000000	0.1130640145
0.2950000000	0.1127403858
0.3000000000	0.1122063881
0.3050000000	0.1114215509
0.3100000000	0.1103339180
0.3150000000	0.1162759665
0.3200000000	0.1233339947
0.3250000000	0.1322560863
0.3300000000	0.1441952254
0.3350000000	0.1590612903
0.3400000000	0.1785306739
0.3450000000	0.2021662610
0.3500000000	0.2330987909
0.3550000000	0.2740489272
0.3600000000	0.3275578065
0.3650000000	0.4021904767
0.3700000000	0.5006966294
0.3750000000	0.6378278919
0.3800000000	0.8363028334
0.3850000000	1.1457566323
0.3900000000	1.6350003709
0.3950000000	2.4666559047
0.4000000000	4.0531642193
0.4050000000	7.6124783423
0.4100000000	17.3315634242
0.4150000000	55.6681589087
0.4200000000	35.4340104147
0.4250000000	-66.8902272011
0.4300000000	18.6405221780
0.4350000000	11.6310664071
0.4400000000	7.1209552266
0.4450000000	4.6914953938
0.4500000000	3.2919893174
0.4550000000	2.4302165774
0.4600000000	1.8686253824
0.4650000000	1.4857341560
0.4700000000	1.2149884428
0.4750000000	1.0191153798
0.4800000000	0.8738606324
0.4850000000	0.7645590909
0.4900000000	0.6811457613
0.4950000000	0.6168610158
0.5000000000	0.5670858123
0.5050000000	0.5284271184
0.5100000000	0.4987045779
0.5150000000	0.4763138517
0.5200000000	0.4595679607
0.5250000000	0.4477156294
0.5300000000	0.4399437315
0.5350000000	0.4356592759
0.5400000000	0.4344258199
0.5450000000	0.4358789943
0.5500000000	0.4399103353
0.5550000000	0.4463166116
0.5600000000	0.4549988577
0.5650000000	0.4659153077
0.5700000000	0.4790306422
0.5750000000	0.4944387330
0.5800000000	0.5122921578
0.5850000000	0.5326911884
0.5900000000	0.5558265545
0.5950000000	0.5819347609
0.6000000000	0.6113166882
0.6050000000	0.6444035904
0.6100000000	0.6816109191
0.6150000000	0.7235024894
0.6200000000	0.7708308665
0.6250000000	0.8243165931
0.6300000000	0.8850246685
0.6350000000	0.9542825384
0.6400000000	1.0334719994
0.6450000000	1.1245865774
0.6500000000	1.2302482734
0.6550000000	1.3531871214
0.6600000000	1.4975973944
0.6650000000	1.6688651793
0.6700000000	1.8733224873
0.6750000000	2.1206213296
0.6800000000	2.4237571840
0.6850000000	2.7997415960
0.6900000000	3.2749439842
0.6950000000	3.8862321083
0.7000000000	4.6922049057
0.7050000000	5.7824422982
0.7100000000	7.3087741881
0.7150000000	9.5415093541
0.7200000000	12.9839898635
0.7250000000	18.7004153379
0.7300000000	29.1969775590
0.7350000000	51.6652728100
0.7400000000	113.3099837697
0.7450000000	376.1802738422
0.7500000000	1166.2775392103
0.7550000000	293.6245456350
0.7600000000	97.3163582949
0.7650000000	46.6647519415
0.7700000000	27.1599964579
0.7750000000	17.7407490383
0.7800000000	12.4950363231
0.7850000000	9.2876917411
0.7900000000	7.1814805871
0.7950000000	5.7283473668
0.8000000000	4.6833832545
0.8050000000	3.9048527328
0.8100000000	3.3109755448
0.8150000000	2.8400131024
0.8200000000	2.4681994825
0.8250000000	2.1687348314
0.8300000000	1.9233437421
0.8350000000	1.7215424359
0.8400000000	1.5523341233
0.8450000000	1.4103153764
0.8500000000	1.2902585650
0.8550000000	1.1866253919
0.8600000000	1.0981555636
0.8650000000	1.0226052248
0.8700000000	0.9558300140
0.8750000000	0.8990580334
0.8800000000	0.8509295752
0.8850000000	0.8077751867
0.8900000000	0.7732503800
0.8950000000	0.7418396893
0.9000000000	0.7170464512
0.9050000000	0.7001620664
0.9100000000	0.6846985214
0.9150000000	0.6755520981
0.9200000000	0.6750133346
0.9250000000	0.6747316315
0.9300000000	0.6652997893
0.9350000000	0.6357593048
0.9400000000	0.4689873990
0.9450000000	-0.2909828738
0.9500000000	-4.3056873994
0.9550000000	-24.6835811722
0.9600000000	5.8302615264
0.9650000000	10.2473752428
0.9700000000	4.5481815554
0.9750000000	2.3887695541
0.9800000000	1.4974348273
0.9850000000	1.0804389231
0.9900000000	0.8400521175
0.9950000000	0.6942382880
1.0000000000	0.6011183578
1.0050000000	0.5421081246
1.0100000000	0.4963089599
1.0150000000	0.4628301051
1.0200000000	0.4402904233
1.0250000000	0.4213220496
1.0300000000	0.4068799389
1.0350000000	0.3959152271
1.0400000000	0.3889114998
1.0450000000	0.3830226454
1.0500000000	0.3790593233
1.0550000000	0.3767946002
1.0600000000	0.3767520501
1.0650000000	0.3774748090
1.0700000000	0.3795510891
1.0750000000	0.3829877808
1.0800000000	0.3881704294
1.0850000000	0.3947591981
1.0900000000	0.4045805530
1.0950000000	0.4162603145
1.1000000000	0.4302085880
1.1050000000	0.4462459310
1.1100000000	0.4648962704
1.1150000000	0.4865729015
1.1200000000	0.5117830474
1.1250000000	0.5411051701
1.1300000000	0.5754140760
1.1350000000	0.6157660492
1.1400000000	0.6633838412
1.1450000000	0.7204099245
1.1500000000	0.7892483787
1.1550000000	0.8733397619
1.1600000000	0.9775372948
1.1650000000	1.1081570039
1.1700000000	1.2769353015
1.1750000000	1.4995359272
1.1800000000	1.8018162898
1.1850000000	2.2262542189
1.1900000000	2.8530258615
1.1950000000	3.8358002389
1.2000000000	5.5013863721
1.2050000000	8.6472795176
1.2100000000	15.5659809291
1.2150000000	34.2695549698
1.2200000000	84.0490736378
1.2250000000	75.5877726768
1.2300000000	30.2414904471
1.2350000000	14.2588868813
1.2400000000	8.2081833789
1.2450000000	5.4352916956
1.2500000000	3.9785259381
1.2550000000	3.1446080859
1.2600000000	2.6449125590
1.2650000000	2.3408159385
1.2700000000	2.1710692025
1.2750000000	2.0961580477
1.2800000000	2.0982200361
1.2850000000	2.1707139766
1.2900000000	2.3156195131
1.2950000000	2.5411957426
1.3000000000	2.8733611132
1.3050000000	3.3458580135
1.3100000000	4.0197094502
1.3150000000	5.0000507013
1.3200000000	6.4751102640
1.3250000000	8.8043457257
1.3300000000	12.7723121978
1.3350000000	20.2006325057
1.3400000000	36.0759597074
1.3450000000	75.4954693943
1.3500000000	160.3795757325
1.3550000000	149.6745311782
1.3600000000	69.0484891505
1.3650000000	33.9310694195
1.3700000000	19.4590336001
1.3750000000	12.5127298317
1.3800000000	8.7250868721
1.3850000000	6.4438306081
1.3900000000	4.9743102910
1.3950000000	3.9723553274
1.4000000000	3.2608566363
1.4050000000	2.7398633762
1.4100000000	2.3494415433
1.4150000000	2.0548583675
1.4200000000	1.8333637248
1.4250000000	1.6850803692
1.4300000000	1.6309630684
1.4350000000	1.6616033326
1.4400000000	1.2802788258
1.4450000000	0.1118056221
1.4500000000	-1.7846555660
1.4550000000	-0.4998570225
1.4600000000	2.1629794695
1.4650000000	1.1706300914
1.4700000000	-1.1073250131
1.4750000000	-4.8435806340
1.4800000000	-2.1557966303
1.4850000000	3.5425901665
1.4900000000	2.8716475814
1.4950000000	1.8587075649
1.5000000000	1.3059405926
1.5050000000	1.0082999514
1.5100000000	0.8386552856
1.5150000000	0.7356324743
1.5200000000	0.6690834717
1.5250000000	0.6277360481
1.5300000000	0.5961535134
1.5350000000	0.5743860913
1.5400000000	0.5600505660
1.5450000000	0.5518685381
1.5500000000	0.5490146077
1.5550000000	0.5515105370
1.5600000000	0.5608277251
1.5650000000	0.5762129818
1.5700000000	0.6011198482
1.5750000000	0.6397623039
1.5800000000	0.7000524552
1.5850000000	0.7973916203
1.5900000000	0.9642280785
1.5950000000	1.2723678299
1.6000000000	1.8734881411
1.6050000000	2.8674332927
1.6100000000	3.3277767685
1.6150000000	2.4648466896
1.6200000000	1.6553003779
1.6250000000	1.2279596723
1.6300000000	1.0133803515
1.6350000000	0.9028958554
1.6400000000	0.8468824992
1.6450000000	0.8222759062
1.6500000000	0.8175257901
1.6550000000	0.8272213187
1.6600000000	0.8481326795
1.6650000000	0.8787845576
1.6700000000	0.9186153908
1.6750000000	0.9676272884
1.6800000000	1.0262573181
1.6850000000	1.0951839122
1.6900000000	1.1750057634
1.6950000000	1.2645832887
1.7000000000	1.3624029481
1.7050000000	1.4626107856
1.7100000000	1.5769324444
1.7150000000	1.8613903139
1.7200000000	2.3606357564
1.7250000000	2.8178697144
1.7300000000	3.3084284402
1.7350000000	3.8474826172
1.7400000000	4.3765290566
1.7450000000	5.0560966594
1.7500000000	6.0837257573
1.7550000000	7.6132067049
1.7600000000	9.9015731243
1.7650000000	13.4291004299
1.7700000000	19.1113288707
1.7750000000	28.6844172791
1.7800000000	44.9968020019
1.7850000000	69.0538332491
1.7900000000	85.8156360895
1.7950000000	73.0739074015
1.8000000000	48.6329027102
1.8050000000	30.7129189705
1.8100000000	20.2498576383
1.8150000000	14.1170374450
1.8200000000	10.3428141358
1.8250000000	7.8959731212
1.8300000000	6.2346549655
1.8350000000	5.0620309395
1.8400000000	4.2077236519
1.8450000000	3.5683792032
1.8500000000	3.0788619709
1.8550000000	2.6984152609
1.8600000000	2.3986082078
1.8650000000	2.1601193460
1.8700000000	1.9692077553
1.8750000000	1.8157868019
1.8800000000	1.6918573572
1.8850000000	1.5903535495
1.8900000000	1.5031356319
1.8950000000	1.4180579051
1.9000000000	1.3141456521
1.9050000000	1.1173538308
1.9100000000	0.8465703195
1.9150000000	0.7037109545
1.9200000000	1.7180791824
1.9250000000	4.5197925701
1.9300000000	6.7417099471
1.9350000000	6.6377308867
1.9400000000	5.2205706300
1.9450000000	3.8466282896
1.9500000000	2.8819779263
1.9550000000	2.2499187407
1.9600000000	1.8322400491
1.9650000000	1.5526787970
1.9700000000	1.3508643194
1.9750000000	1.2029267860
1.9800000000	1.0899814729
1.9850000000	0.9983268588
1.9900000000	0.9174781751
1.9950000000	0.8382844723
2.0000000000	0.7594120881
2.0050000000	0.7090185622
2.0100000000	0.7378854894
2.0150000000	0.8174125952
2.0200000000	0.8664425081
2.0250000000	0.8794555199
2.0300000000	0.8823696408
2.0350000000	0.8876815724
2.0400000000	0.9000327059
2.0450000000	0.9206046566
2.0500000000	0.9501626168
2.0550000000	0.9894010571
2.0600000000	1.0383204012
2.0650000000	1.0939618087
2.0700000000	1.1489874617
2.0750000000	1.1978996809
2.0800000000	1.2455540714
2.0850000000	1.3019897774
2.0900000000	1.3739381203
2.0950000000	1.4642361469
2.1000000000	1.5759392807
2.1050000000	1.7080382587
2.1100000000	1.8698172237
2.1150000000	2.0680635247
2.1200000000	2.3122949719
2.1250000000	2.6158613623
2.1300000000	2.9975802680
2.1350000000	3.4843171367
2.1400000000	4.1148648652
2.1450000000	4.9459388328
2.1500000000	6.0601755258
2.1550000000	7.5745284101
2.1600000000	9.6386796743
2.1650000000	12.3793923512
2.1700000000	15.7459544856
2.1750000000	19.0930082174
2.1800000000	21.1610162590
2.1850000000	21.2683354338
2.1900000000	20.3278162359
2.1950000000	19.5958421436
2.2000000000	19.2711667287
2.2050000000	18.3699071214
2.2100000000	16.4567176725
2.2150000000	14.1045492176
2.2200000000	11.9930354234
2.2250000000	10.2478771129
2.2300000000	8.7109753875
2.2350000000	7.3212075849
2.2400000000	6.1273690912
2.2450000000	5.1721232793
2.2500000000	4.4398577361
2.2550000000	3.8897999012
2.2600000000	3.4779825763
2.2650000000	3.1603391728
2.2700000000	2.8892240650
2.2750000000	2.6176869507
2.2800000000	2.3252966399
2.2850000000	2.0470200523
2.2900000000	1.8546740484
2.2950000000	1.7889233516
2.3000000000	1.8123324834
2.3050000000	1.8481261198
2.3100000000	1.8511026350
2.3150000000	1.8216265582
2.3200000000	1.7792642705
2.3250000000	1.7442259441
2.3300000000	1.7268518750
2.3350000000	1.7289160517
2.3400000000	1.7446204250
2.3450000000	1.7608453839
2.3500000000	1.7610712123
2.3550000000	1.7347584081
2.3600000000	1.6848896772
2.3650000000	1.6244988732
2.3700000000	1.5670210800
2.3750000000	1.5204809146
2.3800000000	1.4874861946
2.3850000000	1.4673016785
2.3900000000	1.4582481414
2.3950000000	1.4583796471
2.4000000000	1.4682255336
2.4050000000	1.4910286316
2.4100000000	1.5278747325
2.4150000000	1.5802675238
2.4200000000	1.6491105076
2.4250000000	1.7359869007
2.4300000000	1.8432064698
2.4350000000	1.9738677484
2.4400000000	2.1319691664
2.4450000000	2.3226160550
2.4500000000	2.5522494521
2.4550000000	2.8289651038
2.4600000000	3.1627096170
2.4650000000	3.5654168099
2.4700000000	4.0507734256
2.4750000000	4.6324889122
2.4800000000	5.3247212343
2.4850000000	6.1330738928
2.4900000000	7.0496442629
2.4950000000	8.0416320368
2.5000000000	9.0396742684
2.5050000000	9.9733103056
2.5100000000	10.6040756985
2.5150000000	10.7944253728
2.5200000000	10.5115657191
2.5250000000	9.8428097706
2.5300000000	8.9402963882
2.5350000000	7.9507728658
2.5400000000	6.9779256432
2.5450000000	6.0803446790
2.5500000000	5.2840873667
2.5550000000	4.5950872208
2.5600000000	4.0038714654
2.5650000000	3.5068106559
2.5700000000	3.0922003709
2.5750000000	2.7527132484
2.5800000000	2.4828761647
2.5850000000	2.2767403702
2.5900000000	2.1245227519
2.5950000000	2.0124696237
2.6000000000	1.9262605284
2.6050000000	1.8649931050
2.6100000000	1.8119452685
2.6150000000	1.7662760414
2.6200000000	1.7288873375
2.6250000000	1.7007786748
2.6300000000	1.6826175556
2.6350000000	1.6747445795
2.6400000000	1.6773576802
2.6450000000	1.6906408730
2.6500000000	1.7149545248
2.6550000000	1.7503996455
2.6600000000	1.7975200687
2.6650000000	1.8568652780
2.6700000000	1.9291102770
2.6750000000	2.0150729095
2.6800000000	2.1156596564
2.6850000000	2.2317976641
2.6900000000	2.3642461677
2.6950000000	2.5134451842
2.7000000000	2.6792429389
2.7050000000	2.8804952725
2.7100000000	3.1001292631
2.7150000000	3.3338657416
2.7200000000	3.5754817828
2.7250000000	3.8171609680
2.7300000000	4.0500852391
2.7350000000	4.2649437208
2.7400000000	4.4520553902
2.7450000000	4.6028288925
2.7500000000	4.7039361022
2.7550000000	4.7473099429
2.7600000000	4.7268291193
2.7650000000	4.6417830625
2.7700000000	4.4978699186
2.7750000000	4.3065049657
2.7800000000	4.0825669697
2.7850000000	3.8418402046
2.7900000000	3.5984871635
2.7950000000	3.3638648598
2.8000000000	3.1460038384
2.8050000000	2.9255805842
2.8100000000	2.7369287389
2.8150000000	2.5795423716
2.8200000000	2.4508879366
2.8250000000	2.3476263175
2.8300000000	2.2663938845
2.8350000000	2.2043118934
2.8400000000	2.1583500196
2.8450000000	2.1286136269
2.8500000000	2.1129004281
2.8550000000	2.1103712349
2.8600000000	2.1203993667
2.8650000000	2.1424201903
2.8700000000	2.1758020152
2.8750000000	2.2197432742
2.8800000000	2.2731931406
2.8850000000	2.3347849703
2.8900000000	2.4028759169
2.8950000000	2.4756081133
2.9000000000	2.5510278950
2.9050000000	2.6416519011
2.9100000000	2.7285832979
2.9150000000	2.8090882750
2.9200000000	2.8802980957
2.9250000000	2.9389580280
2.9300000000	2.9820711638
2.9350000000	3.0049759381
2.9400000000	3.0056607836
2.9450000000	2.9832690337
2.9500000000	2.9390924336
2.9550000000	2.8764880121
2.9600000000	2.8003010140
2.9650000000	2.7160214430
2.9700000000	2.6289579640
2.9750000000	2.5436473338
2.9800000000	2.4635657351
2.9850000000	2.3910848300
2.9900000000	2.3276310442
2.9950000000	2.2738738745
3.0000000000	2.2299541147
