# energy (eV)    P(omega), $W$ = 300 nm, $h$ = 300 nm, $s$ = 20 nm, $d/W = 5$, $E_{\rm e}$ = 200 keV
0.2000000000	0.0960927938
0.2050000000	0.0975560968
0.2100000000	0.0989159304
0.2150000000	0.1001757499
0.2200000000	0.1013386659
0.2250000000	0.1024072464
0.2300000000	0.1033835422
0.2350000000	0.1042689814
0.2400000000	0.1050642907
0.2450000000	0.1057693686
0.2500000000	0.1063831860
0.2550000000	0.1069035277
0.2600000000	0.1073269477
0.2650000000	0.1076483230
0.2700000000	0.1078606916
0.2750000000	0.1079547294
0.2800000000	0.1079182782
0.2850000000	0.1077356454
0.2900000000	0.1073867595
0.2950000000	0.1068460460
0.3000000000	0.1060808647
0.3050000000	0.1050496185
0.3100000000	0.1036990291
0.3150000000	0.1098062223
0.3200000000	0.1170589415
0.3250000000	0.1262385609
0.3300000000	0.1385434914
0.3350000000	0.1538554357
0.3400000000	0.1739059480
0.3450000000	0.1982036586
0.3500000000	0.2299759265
0.3550000000	0.2719945259
0.3600000000	0.3268155397
0.3650000000	0.4032024526
0.3700000000	0.5038221337
0.3750000000	0.6436762526
0.3800000000	0.8457917145
0.3850000000	1.1605204322
0.3900000000	1.6573263041
0.3950000000	2.5005529013
0.4000000000	4.1068939994
0.4050000000	7.7057281089
0.4100000000	17.5180847058
0.4150000000	56.1652756551
0.4200000000	35.8092229610
0.4250000000	-67.2157023247
0.4300000000	18.6543001481
0.4350000000	11.6093901973
0.4400000000	7.0862630867
0.4450000000	4.6533484769
0.4500000000	3.2537539073
0.4550000000	2.3930072067
0.4600000000	1.8327438398
0.4650000000	1.4511656985
0.4700000000	1.1815990266
0.4750000000	0.9867086465
0.4800000000	0.8422427187
0.4850000000	0.7335352813
0.4900000000	0.6505340555
0.4950000000	0.5864938646
0.5000000000	0.5368033515
0.5050000000	0.4980827614
0.5100000000	0.4681520924
0.5150000000	0.4454047997
0.5200000000	0.4281722997
0.5250000000	0.4156935815
0.5300000000	0.4071595752
0.5350000000	0.4019760042
0.5400000000	0.3997041464
0.5450000000	0.3999776791
0.5500000000	0.4026734045
0.5550000000	0.4075825216
0.5600000000	0.4145937511
0.5650000000	0.4236539048
0.5700000000	0.4347116841
0.5750000000	0.4478426442
0.5800000000	0.4631690560
0.5850000000	0.4807690856
0.5900000000	0.5007996144
0.5950000000	0.5234615282
0.6000000000	0.5490097733
0.6050000000	0.5778205267
0.6100000000	0.6102479059
0.6150000000	0.6467796563
0.6200000000	0.6880669181
0.6250000000	0.7347332780
0.6300000000	0.7877023606
0.6350000000	0.8481249659
0.6400000000	0.9171969767
0.6450000000	0.9966475099
0.6500000000	1.0887482269
0.6550000000	1.1958625196
0.6600000000	1.3216261367
0.6650000000	1.4706991457
0.6700000000	1.6485591659
0.6750000000	1.8635635292
0.6800000000	2.1269455496
0.6850000000	2.4534150901
0.6900000000	2.8657538261
0.6950000000	3.3958165744
0.7000000000	4.0941959913
0.7050000000	5.0382148615
0.7100000000	6.3588623396
0.7150000000	8.2892815034
0.7200000000	11.2633916127
0.7250000000	16.1982609444
0.7300000000	25.2526336855
0.7350000000	44.6183650614
0.7400000000	97.7067579363
0.7450000000	323.8828759459
0.7500000000	1002.5925488182
0.7550000000	252.0228359510
0.7600000000	83.3973692864
0.7650000000	39.9272507998
0.7700000000	23.2016001882
0.7750000000	15.1308393063
0.7800000000	10.6396143895
0.7850000000	7.8956534467
0.7900000000	6.0950846604
0.7950000000	4.8537456067
0.8000000000	3.9617245840
0.8050000000	3.2976146710
0.8100000000	2.7913787511
0.8150000000	2.3902519519
0.8200000000	2.0737752062
0.8250000000	1.8190343887
0.8300000000	1.6104344880
0.8350000000	1.4389695069
0.8400000000	1.2952739301
0.8450000000	1.1747223636
0.8500000000	1.0728342371
0.8550000000	0.9849351191
0.8600000000	0.9099020833
0.8650000000	0.8458022773
0.8700000000	0.7891808117
0.8750000000	0.7409937435
0.8800000000	0.7000742131
0.8850000000	0.6633911418
0.8900000000	0.6338931902
0.8950000000	0.6070610843
0.9000000000	0.5857156508
0.9050000000	0.5708658225
0.9100000000	0.5572472844
0.9150000000	0.5487998671
0.9200000000	0.5473369282
0.9250000000	0.5461513368
0.9300000000	0.5377698426
0.9350000000	0.5136175115
0.9400000000	0.3809100679
0.9450000000	-0.2206048669
0.9500000000	-3.3915463592
0.9550000000	-19.4625291886
0.9600000000	4.5902894826
0.9650000000	8.0567905420
0.9700000000	3.5717924411
0.9750000000	1.8748688391
0.9800000000	1.1751939578
0.9850000000	0.8480416587
0.9900000000	0.6596333373
0.9950000000	0.5454211661
1.0000000000	0.4725058956
1.0050000000	0.4262578537
1.0100000000	0.3904393072
1.0150000000	0.3642824551
1.0200000000	0.3466532330
1.0250000000	0.3318891979
1.0300000000	0.3206924436
1.0350000000	0.3122459077
1.0400000000	0.3068932900
1.0450000000	0.3024845228
1.0500000000	0.2996247870
1.0550000000	0.2981398516
1.0600000000	0.2984144920
1.0650000000	0.2993763349
1.0700000000	0.3014655410
1.0750000000	0.3046912807
1.0800000000	0.3093441345
1.0850000000	0.3152445827
1.0900000000	0.3238924293
1.0950000000	0.3341492334
1.1000000000	0.3463483313
1.1050000000	0.3604319504
1.1100000000	0.3768320342
1.1150000000	0.3959211590
1.1200000000	0.4181271764
1.1250000000	0.4440690187
1.1300000000	0.4745057586
1.1350000000	0.5104061587
1.1400000000	0.5528579463
1.1450000000	0.6039113519
1.1500000000	0.6657427487
1.1550000000	0.7415226590
1.1600000000	0.8357244546
1.1650000000	0.9541370765
1.1700000000	1.1076765290
1.1750000000	1.3107706866
1.1800000000	1.5872933818
1.1850000000	1.9765026540
1.1900000000	2.5523006283
1.1950000000	3.4567673393
1.2000000000	4.9914768207
1.2050000000	7.8922370991
1.2100000000	14.2733283238
1.2150000000	31.5167262070
1.2200000000	77.3593067612
1.2250000000	69.4362112216
1.2300000000	27.6345585549
1.2350000000	12.9113374940
1.2400000000	7.3336345792
1.2450000000	4.7697702889
1.2500000000	3.4137044315
1.2550000000	2.6270027966
1.2600000000	2.1435864574
1.2650000000	1.8353528752
1.2700000000	1.6444531209
1.2750000000	1.5332862733
1.2800000000	1.4833622323
1.2850000000	1.4858289804
1.2900000000	1.5384168162
1.2950000000	1.6434423855
1.3000000000	1.8150118004
1.3050000000	2.0709739863
1.3100000000	2.4457350892
1.3150000000	2.9991135502
1.3200000000	3.8390927412
1.3250000000	5.1711647016
1.3300000000	7.4468436035
1.3350000000	11.7115327381
1.3400000000	20.8271386957
1.3450000000	43.4515560504
1.3500000000	92.1166985630
1.3550000000	85.8540187048
1.3600000000	39.5768079711
1.3650000000	19.4435497237
1.3700000000	11.1516179533
1.3750000000	7.1730439701
1.3800000000	5.0038468714
1.3850000000	3.6969958050
1.3900000000	2.8543392817
1.3950000000	2.2791222490
1.4000000000	1.8693681445
1.4050000000	1.5676519759
1.4100000000	1.3388845910
1.4150000000	1.1615757138
1.4200000000	1.0197335085
1.4250000000	0.9061248532
1.4300000000	0.8142171596
1.4350000000	0.7207674568
1.4400000000	0.4249098123
1.4450000000	-0.3412692542
1.4500000000	-1.7429003284
1.4550000000	-0.6329901701
1.4600000000	1.5902483117
1.4650000000	0.9677084842
1.4700000000	-0.4129454103
1.4750000000	-2.5235478631
1.4800000000	-1.0999617109
1.4850000000	1.9809928522
1.4900000000	1.6026422455
1.4950000000	1.0442319793
1.5000000000	0.7385804842
1.5050000000	0.5725405717
1.5100000000	0.4773514197
1.5150000000	0.4187619621
1.5200000000	0.3802234934
1.5250000000	0.3556937893
1.5300000000	0.3362057672
1.5350000000	0.3219427603
1.5400000000	0.3114975393
1.5450000000	0.3040105157
1.5500000000	0.2989180201
1.5550000000	0.2959351301
1.5600000000	0.2955413567
1.5650000000	0.2966371160
1.5700000000	0.3002248463
1.5750000000	0.3069875428
1.5800000000	0.3183106723
1.5850000000	0.3369228654
1.5900000000	0.3685788395
1.5950000000	0.4259243940
1.6000000000	0.5353120580
1.6050000000	0.7123989904
1.6100000000	0.7909520533
1.6150000000	0.6387955498
1.6200000000	0.5012151966
1.6250000000	0.4329811428
1.6300000000	0.4031492199
1.6350000000	0.3924712694
1.6400000000	0.3923279944
1.6450000000	0.3988206334
1.6500000000	0.4101082539
1.6550000000	0.4254215397
1.6600000000	0.4444621948
1.6650000000	0.4672644444
1.6700000000	0.4940870333
1.6750000000	0.5253804230
1.6800000000	0.5617841573
1.6850000000	0.6041496404
1.6900000000	0.6535692705
1.6950000000	0.7110811566
1.7000000000	0.7788761038
1.7050000000	0.8609484254
1.7100000000	0.9620343471
1.7150000000	1.1055593440
1.7200000000	1.3044457904
1.7250000000	1.5455339648
1.7300000000	1.8483119298
1.7350000000	2.1718652636
1.7400000000	2.4575138095
1.7450000000	2.8127245665
1.7500000000	3.3638124579
1.7550000000	4.1957106698
1.7600000000	5.4466402529
1.7650000000	7.3776716808
1.7700000000	10.4882459290
1.7750000000	15.7256717799
1.7800000000	24.6414150069
1.7850000000	37.7689416696
1.7900000000	46.8712811874
1.7950000000	39.8484927949
1.8000000000	26.4716310024
1.8050000000	16.6817474357
1.8100000000	10.9713987147
1.8150000000	7.6265002214
1.8200000000	5.5686469115
1.8250000000	4.2344035537
1.8300000000	3.3278785972
1.8350000000	2.6870364726
1.8400000000	2.2188959257
1.8450000000	1.8669370315
1.8500000000	1.5954904592
1.8550000000	1.3821783076
1.8600000000	1.2111762656
1.8650000000	1.0715491123
1.8700000000	0.9552238715
1.8750000000	0.8558710097
1.8800000000	0.7679249892
1.8850000000	0.6857414450
1.8900000000	0.6021473155
1.8950000000	0.5062356167
1.9000000000	0.3796505379
1.9050000000	0.1641943515
1.9100000000	-0.1486630395
1.9150000000	-0.4856050444
1.9200000000	-0.3349263659
1.9250000000	0.6494981780
1.9300000000	1.4402261607
1.9350000000	1.5043984520
1.9400000000	1.2401074695
1.9450000000	0.9730664262
1.9500000000	0.7810568806
1.9550000000	0.6522319173
1.9600000000	0.5653153595
1.9650000000	0.5077720075
1.9700000000	0.4641959768
1.9750000000	0.4322147179
1.9800000000	0.4081262998
1.9850000000	0.3893156076
1.9900000000	0.3739191118
1.9950000000	0.3604272633
2.0000000000	0.3484759859
2.0050000000	0.3423862182
2.0100000000	0.3479724880
2.0150000000	0.3613290495
2.0200000000	0.3718424401
2.0250000000	0.3790101443
2.0300000000	0.3866627357
2.0350000000	0.3964527625
2.0400000000	0.4096412275
2.0450000000	0.4270489605
2.0500000000	0.4496627087
2.0550000000	0.4784831942
2.0600000000	0.5135580844
2.0650000000	0.5515552149
2.0700000000	0.5842080666
2.0750000000	0.6049511351
2.0800000000	0.6182665998
2.0850000000	0.6341651732
2.0900000000	0.6588441007
2.0950000000	0.6941975649
2.1000000000	0.7412444344
2.1050000000	0.7989085552
2.1100000000	0.8712131430
2.1150000000	0.9609511608
2.1200000000	1.0722677587
2.1250000000	1.2111216391
2.1300000000	1.3860090169
2.1350000000	1.6091160059
2.1400000000	1.8980571847
2.1450000000	2.2785794878
2.1500000000	2.7881631012
2.1550000000	3.4797830451
2.1600000000	4.4211710099
2.1650000000	5.6696054984
2.1700000000	7.2033898546
2.1750000000	8.7341208904
2.1800000000	9.7019530726
2.1850000000	9.8109070891
2.1900000000	9.4777327743
2.1950000000	9.2565391283
2.2000000000	9.1928386051
2.2050000000	8.7507229354
2.2100000000	7.7055194915
2.2150000000	6.3778807192
2.2200000000	5.1631327941
2.2250000000	4.1901916539
2.2300000000	3.4244062868
2.2350000000	2.8161660939
2.2400000000	2.3335951258
2.2450000000	1.9569392813
2.2500000000	1.6631925435
2.2550000000	1.4314297540
2.2600000000	1.2441843832
2.2650000000	1.0869239364
2.2700000000	0.9474377976
2.2750000000	0.8171557474
2.2800000000	0.6966839792
2.2850000000	0.6011467435
2.2900000000	0.5529470015
2.2950000000	0.5598064222
2.3000000000	0.5996253718
2.3050000000	0.6385396312
2.3100000000	0.6553363769
2.3150000000	0.6510925177
2.3200000000	0.6350956491
2.3250000000	0.6168271693
2.3300000000	0.6014107991
2.3350000000	0.5906223633
2.3400000000	0.5840940292
2.3450000000	0.5799249697
2.3500000000	0.5755774023
2.3550000000	0.5694284659
2.3600000000	0.5619282493
2.3650000000	0.5550451468
2.3700000000	0.5507305609
2.3750000000	0.5499381073
2.3800000000	0.5525060396
2.3850000000	0.5574560131
2.3900000000	0.5636981244
2.3950000000	0.5703002222
2.4000000000	0.5778186758
2.4050000000	0.5883261906
2.4100000000	0.6028764220
2.4150000000	0.6228054187
2.4200000000	0.6490218904
2.4250000000	0.6823525509
2.4300000000	0.7237247128
2.4350000000	0.7743007273
2.4400000000	0.8355761222
2.4450000000	0.9094803348
2.4500000000	0.9984689630
2.4550000000	1.1056486688
2.4600000000	1.2348556742
2.4650000000	1.3907317012
2.4700000000	1.5786534736
2.4750000000	1.8040940517
2.4800000000	2.0729734048
2.4850000000	2.3879535496
2.4900000000	2.7464274821
2.4950000000	3.1354293131
2.5000000000	3.5261541869
2.5050000000	3.8872777239
2.5100000000	4.1205733528
2.5150000000	4.1716492190
2.5200000000	4.0334722239
2.5250000000	3.7492750778
2.5300000000	3.3848309294
2.5350000000	2.9978322377
2.5400000000	2.6248211177
2.5450000000	2.2838582607
2.5500000000	1.9816924649
2.5550000000	1.7191812036
2.5600000000	1.4925158217
2.5650000000	1.3011994322
2.5700000000	1.1414146860
2.5750000000	1.0109020207
2.5800000000	0.9078967427
2.5850000000	0.8302126901
2.5900000000	0.7739032944
2.5950000000	0.7332552303
2.6000000000	0.7022927682
2.6050000000	0.6802098909
2.6100000000	0.6603815957
2.6150000000	0.6425640340
2.6200000000	0.6272024444
2.6250000000	0.6147345694
2.6300000000	0.6054247261
2.6350000000	0.5993875143
2.6400000000	0.5966830565
2.6450000000	0.5973792728
2.6500000000	0.6016220042
2.6550000000	0.6094357931
2.6600000000	0.6210256401
2.6650000000	0.6365726425
2.6700000000	0.6562901817
2.6750000000	0.6804314283
2.6800000000	0.7092781546
2.6850000000	0.7431381013
2.6900000000	0.7823086506
2.6950000000	0.8270593433
2.7000000000	0.8775768928
2.7050000000	0.9399442656
2.7100000000	1.0098455147
2.7150000000	1.0868007150
2.7200000000	1.1697726214
2.7250000000	1.2570333682
2.7300000000	1.3460418127
2.7350000000	1.4333359462
2.7400000000	1.5144767256
2.7450000000	1.5847780583
2.7500000000	1.6374374014
2.7550000000	1.6677822317
2.7600000000	1.6723032515
2.7650000000	1.6500977769
2.7700000000	1.6031882474
2.7750000000	1.5361124871
2.7800000000	1.4548887877
2.7850000000	1.3659195821
2.7900000000	1.2749244634
2.7950000000	1.1864826508
2.8000000000	1.1038241243
2.8050000000	1.0197729126
2.8100000000	0.9472165652
2.8150000000	0.8859895733
2.8200000000	0.8351295384
2.8250000000	0.7933573698
2.8300000000	0.7593899495
2.8350000000	0.7321337207
2.8400000000	0.7104261608
2.8450000000	0.6943455742
2.8500000000	0.6830400043
2.8550000000	0.6761920117
2.8600000000	0.6735770239
2.8650000000	0.6750176217
2.8700000000	0.6803558638
2.8750000000	0.6894301257
2.8800000000	0.7020534239
2.8850000000	0.7179932672
2.8900000000	0.7369634085
2.8950000000	0.7586142426
2.9000000000	0.7825310997
2.9050000000	0.8139485417
2.9100000000	0.8462041411
2.9150000000	0.8780539924
2.9200000000	0.9080022848
2.9250000000	0.9343146648
2.9300000000	0.9553610785
2.9350000000	0.9689714063
2.9400000000	0.9740586333
2.9450000000	0.9700661324
2.9500000000	0.9573215704
2.9550000000	0.9369876411
2.9600000000	0.9108352313
2.9650000000	0.8809187478
2.9700000000	0.8492541576
2.9750000000	0.8175906355
2.9800000000	0.7872847563
2.9850000000	0.7592828747
2.9900000000	0.7341673622
2.9950000000	0.7122348670
3.0000000000	0.6935810345
