# energy (eV)    P(omega), $W$ = 300 nm, $h$ = 300 nm, $s$ = 20 nm, $d/W = 5$, $E_{\rm e}$ = 200 keV
0.2000000000	0.1074646488
0.2050000000	0.1090758381
0.2100000000	0.1105831893
0.2150000000	0.1119900774
0.2200000000	0.1132993530
0.2250000000	0.1145134502
0.2300000000	0.1156342117
0.2350000000	0.1166628599
0.2400000000	0.1175998263
0.2450000000	0.1184447311
0.2500000000	0.1191961606
0.2550000000	0.1198514534
0.2600000000	0.1204066357
0.2650000000	0.1208559370
0.2700000000	0.1211915571
0.2750000000	0.1214031623
0.2800000000	0.1214773464
0.2850000000	0.1213968868
0.2900000000	0.1211397142
0.2950000000	0.1206778439
0.3000000000	0.1199755193
0.3050000000	0.1189871827
0.3100000000	0.1176545058
0.3150000000	0.1243307672
0.3200000000	0.1322596219
0.3250000000	0.1422873148
0.3300000000	0.1557153677
0.3350000000	0.1724301806
0.3400000000	0.1943183979
0.3450000000	0.2208685448
0.3500000000	0.2556013217
0.3550000000	0.3015601267
0.3600000000	0.3615706603
0.3650000000	0.4452336669
0.3700000000	0.5555553744
0.3750000000	0.7090232884
0.3800000000	0.9309902941
0.3850000000	1.2768691635
0.3900000000	1.8233059826
0.3950000000	2.7515360721
0.4000000000	4.5211478857
0.4050000000	8.4887479797
0.4100000000	19.3153637215
0.4150000000	61.9920184433
0.4200000000	39.4974300890
0.4250000000	-74.3574405951
0.4300000000	20.6793011271
0.4350000000	12.8875619115
0.4400000000	7.8788899601
0.4450000000	5.1826456263
0.4500000000	3.6304156689
0.4550000000	2.6751437993
0.4600000000	2.0529574429
0.4650000000	1.6289577742
0.4700000000	1.3292726731
0.4750000000	1.1125282482
0.4800000000	0.9518273652
0.4850000000	0.8309033906
0.4900000000	0.7385996517
0.4950000000	0.6674264789
0.5000000000	0.6122644797
0.5050000000	0.5693573895
0.5100000000	0.5362865744
0.5150000000	0.5112716405
0.5200000000	0.4924509399
0.5250000000	0.4789862065
0.5300000000	0.4699772067
0.5350000000	0.4647657888
0.5400000000	0.4628667703
0.5450000000	0.4638747492
0.5500000000	0.4676620005
0.5550000000	0.4740001318
0.5600000000	0.4827727696
0.5650000000	0.4939278511
0.5700000000	0.5074181346
0.5750000000	0.5233380180
0.5800000000	0.5418408592
0.5850000000	0.5630269786
0.5900000000	0.5870901731
0.5950000000	0.6142741243
0.6000000000	0.6448892641
0.6050000000	0.6793851105
0.6100000000	0.7181908659
0.6150000000	0.7618926369
0.6200000000	0.8112721898
0.6250000000	0.8670791648
0.6300000000	0.9304214162
0.6350000000	1.0026797296
0.6400000000	1.0852909754
0.6450000000	1.1803289160
0.6500000000	1.2905202975
0.6550000000	1.4187038135
0.6600000000	1.5692418191
0.6650000000	1.7477325771
0.6700000000	1.9607571039
0.6750000000	2.2183518015
0.6800000000	2.5340120131
0.6850000000	2.9254186120
0.6900000000	3.4199551884
0.6950000000	4.0559214114
0.7000000000	4.8941550183
0.7050000000	6.0276640084
0.7100000000	7.6140397637
0.7150000000	9.9338157407
0.7200000000	13.5092668756
0.7250000000	19.4444161187
0.7300000000	30.3387006083
0.7350000000	53.6498799943
0.7400000000	117.5830372115
0.7450000000	390.0980309773
0.7500000000	1208.5825651124
0.7550000000	304.0593467814
0.7600000000	100.7021091219
0.7650000000	48.2529398837
0.7700000000	28.0634743382
0.7750000000	18.3170688486
0.7800000000	12.8910762514
0.7850000000	9.5746385798
0.7900000000	7.3975189334
0.7950000000	5.8959750934
0.8000000000	4.8165460505
0.8050000000	4.0125948485
0.8100000000	3.3995240273
0.8150000000	2.9135202970
0.8200000000	2.5299456710
0.8250000000	2.2210895005
0.8300000000	1.9680832040
0.8350000000	1.7600620008
0.8400000000	1.5856764281
0.8450000000	1.4393425352
0.8500000000	1.3156472042
0.8550000000	1.2089014174
0.8600000000	1.1177757453
0.8650000000	1.0399394600
0.8700000000	0.9711636257
0.8750000000	0.9126613828
0.8800000000	0.8630229336
0.8850000000	0.8185191162
0.8900000000	0.7828242864
0.8950000000	0.7503528765
0.9000000000	0.7246235736
0.9050000000	0.7069145732
0.9100000000	0.6906867780
0.9150000000	0.6808572667
0.9200000000	0.6797075242
0.9250000000	0.6788628339
0.9300000000	0.6689335490
0.9350000000	0.6390634278
0.9400000000	0.4725141368
0.9450000000	-0.2846318799
0.9500000000	-4.2806682526
0.9550000000	-24.5501097802
0.9600000000	5.7930317849
0.9650000000	10.1768336879
0.9700000000	4.5139083583
0.9750000000	2.3696983373
0.9800000000	1.4851031201
0.9850000000	1.0713704803
0.9900000000	0.8329815451
0.9950000000	0.6884266072
1.0000000000	0.5961278151
1.0050000000	0.5376146169
1.0100000000	0.4922505665
1.0150000000	0.4591091102
1.0200000000	0.4367879070
1.0250000000	0.4180508325
1.0300000000	0.4038160267
1.0350000000	0.3930466230
1.0400000000	0.3861998474
1.0450000000	0.3805046611
1.0500000000	0.3767459555
1.0550000000	0.3747013346
1.0600000000	0.3748739838
1.0650000000	0.3758634542
1.0700000000	0.3782405644
1.0750000000	0.3820153106
1.0800000000	0.3875620979
1.0850000000	0.3946007756
1.0900000000	0.4049855670
1.0950000000	0.4173186129
1.1000000000	0.4320143020
1.1050000000	0.4489500765
1.1100000000	0.4686616991
1.1150000000	0.4915921411
1.1200000000	0.5182674555
1.1250000000	0.5493717783
1.1300000000	0.5858255416
1.1350000000	0.6287732016
1.1400000000	0.6795189457
1.1450000000	0.7404400960
1.1500000000	0.8141247410
1.1550000000	0.9043129921
1.1600000000	1.0162815513
1.1650000000	1.1568783310
1.1700000000	1.3389268094
1.1750000000	1.5794549550
1.1800000000	1.9066098834
1.1850000000	2.3666604847
1.1900000000	3.0468105350
1.1950000000	4.1144876253
1.2000000000	5.9254047109
1.2050000000	9.3475618281
1.2100000000	16.8756954936
1.2150000000	37.2246479164
1.2200000000	91.3579759746
1.2250000000	82.0845040077
1.2300000000	32.7468987065
1.2350000000	15.3616481989
1.2400000000	8.7765114266
1.2450000000	5.7530653769
1.2500000000	4.1582392039
1.2550000000	3.2380334355
1.2600000000	2.6783199547
1.2650000000	2.3280036473
1.2700000000	2.1194851877
1.2750000000	2.0089365651
1.2800000000	1.9755280232
1.2850000000	2.0102020951
1.2900000000	2.1123120371
1.2950000000	2.2871883395
1.3000000000	2.5563663300
1.3050000000	2.9474709046
1.3100000000	3.5119481123
1.3150000000	4.3387974120
1.3200000000	5.5879936994
1.3250000000	7.5644591207
1.3300000000	10.9359399728
1.3350000000	17.2506674029
1.3400000000	30.7470514872
1.3450000000	64.2523424515
1.3500000000	136.3640375583
1.3550000000	127.1821041837
1.3600000000	58.6505196726
1.3650000000	28.8172372576
1.3700000000	16.5262930545
1.3750000000	10.6278213605
1.3800000000	7.4116427531
1.3850000000	5.4742551954
1.3900000000	4.2255997095
1.3950000000	3.3736911429
1.4000000000	2.7677358565
1.4050000000	2.3227067666
1.4100000000	1.9871213364
1.4150000000	1.7302444043
1.4200000000	1.5304259032
1.4250000000	1.3820295274
1.4300000000	1.2883432350
1.4350000000	1.2276342834
1.4400000000	0.8467487312
1.4450000000	-0.2101934276
1.4500000000	-2.0467675861
1.4550000000	-0.6818058639
1.4600000000	2.0893459078
1.4650000000	1.2083036987
1.4700000000	-0.7800988112
1.4750000000	-3.9288765457
1.4800000000	-1.7340249665
1.4850000000	2.9665129691
1.4900000000	2.4014899369
1.4950000000	1.5578295508
1.5000000000	1.0965939177
1.5050000000	0.8469171495
1.5100000000	0.7039923177
1.5150000000	0.6163608079
1.5200000000	0.5589583237
1.5250000000	0.5225124583
1.5300000000	0.4937851356
1.5350000000	0.4729025580
1.5400000000	0.4577567657
1.5450000000	0.4470894867
1.5500000000	0.4400275298
1.5550000000	0.4362038857
1.5600000000	0.4363570364
1.5650000000	0.4389641344
1.5700000000	0.4456136204
1.5750000000	0.4575333029
1.5800000000	0.4771757821
1.5850000000	0.5093742760
1.5900000000	0.5643577099
1.5950000000	0.6647446328
1.6000000000	0.8582222964
1.6050000000	1.1758349285
1.6100000000	1.3243535286
1.6150000000	1.0574102642
1.6200000000	0.8097751584
1.6250000000	0.6840779126
1.6300000000	0.6266394468
1.6350000000	0.6032791384
1.6400000000	0.5985140927
1.6450000000	0.6052659248
1.6500000000	0.6200911954
1.6550000000	0.6415893963
1.6600000000	0.6690491645
1.6650000000	0.7023890174
1.6700000000	0.7418961681
1.6750000000	0.7881463122
1.6800000000	0.8419744619
1.6850000000	0.9044935684
1.6900000000	0.9769928305
1.6950000000	1.0602171485
1.7000000000	1.1559954919
1.7050000000	1.2667750321
1.7100000000	1.4010516924
1.7150000000	1.6270376342
1.7200000000	1.9684464772
1.7250000000	2.3370531407
1.7300000000	2.7751123710
1.7350000000	3.2492040799
1.7400000000	3.6872467606
1.7450000000	4.2394275408
1.7500000000	5.0856880193
1.7550000000	6.3548248945
1.7600000000	8.2588592537
1.7650000000	11.1962750166
1.7700000000	15.9281422626
1.7750000000	23.8980836992
1.7800000000	37.4724712217
1.7850000000	57.4763227593
1.7900000000	71.3819042375
1.7950000000	60.7359864748
1.8000000000	40.3834861421
1.8050000000	25.4740529734
1.8100000000	16.7727362817
1.8150000000	11.6738726916
1.8200000000	8.5361700160
1.8250000000	6.5016105703
1.8300000000	5.1194546406
1.8350000000	4.1428183936
1.8400000000	3.4299969347
1.8450000000	2.8949231814
1.8500000000	2.4832983146
1.8550000000	2.1610780179
1.8600000000	1.9043193888
1.8650000000	1.6965649985
1.8700000000	1.5258249060
1.8750000000	1.3829053009
1.8800000000	1.2599836875
1.8850000000	1.1494370150
1.8900000000	1.0418349806
1.8950000000	0.9228914538
1.9000000000	0.7683974255
1.9050000000	0.4993210022
1.9100000000	0.1129746553
1.9150000000	-0.2583078649
1.9200000000	0.1950634933
1.9250000000	2.0014075621
1.9300000000	3.4443491591
1.9350000000	3.4758580663
1.9400000000	2.7897212439
1.9450000000	2.1137858283
1.9500000000	1.6347433118
1.9550000000	1.3179062952
1.9600000000	1.1067866558
1.9650000000	0.9661038895
1.9700000000	0.8625629069
1.9750000000	0.7866389699
1.9800000000	0.7290109104
1.9850000000	0.6829939402
1.9900000000	0.6436105977
1.9950000000	0.6066408116
2.0000000000	0.5713277115
2.0050000000	0.5503169101
2.0100000000	0.5644261494
2.0150000000	0.6012282927
2.0200000000	0.6260665488
2.0250000000	0.6368173969
2.0300000000	0.6449766875
2.0350000000	0.6558639505
2.0400000000	0.6720577412
2.0450000000	0.6946454694
2.0500000000	0.7247289554
2.0550000000	0.7634036174
2.0600000000	0.8107333801
2.0650000000	0.8629619512
2.0700000000	0.9107360433
2.0750000000	0.9467551511
2.0800000000	0.9764610136
2.0850000000	1.0116705618
2.0900000000	1.0599063611
2.0950000000	1.1237848838
2.1000000000	1.2053252282
2.1050000000	1.3033113760
2.1100000000	1.4245693780
2.1150000000	1.5739956596
2.1200000000	1.7586264363
2.1250000000	1.9884448676
2.1300000000	2.2775927929
2.1350000000	2.6463045371
2.1400000000	3.1238020758
2.1450000000	3.7527983289
2.1500000000	4.5954962684
2.1550000000	5.7398740208
2.1600000000	7.2984979694
2.1650000000	9.3667718363
2.1700000000	11.9083562772
2.1750000000	14.4427671376
2.1800000000	16.0344636328
2.1850000000	16.1836495752
2.1900000000	15.5792598868
2.1950000000	15.1504063471
2.2000000000	15.0006562155
2.2050000000	14.2963482583
2.2100000000	12.6806752287
2.2150000000	10.6478173760
2.2200000000	8.7988772570
2.2250000000	7.3004604353
2.2300000000	6.0697444919
2.2350000000	5.0391683354
2.2400000000	4.1926873714
2.2450000000	3.5241993212
2.2500000000	3.0061721738
2.2550000000	2.6053042923
2.2600000000	2.2907392873
2.2650000000	2.0346454964
2.2700000000	1.8106607067
2.2750000000	1.5964857000
2.2800000000	1.3869074866
2.2850000000	1.2075013712
2.2900000000	1.1018768550
2.2950000000	1.0896144655
2.3000000000	1.1371121911
2.3050000000	1.1872093869
2.3100000000	1.2048666727
2.3150000000	1.1911762522
2.3200000000	1.1612823608
2.3250000000	1.1307520313
2.3300000000	1.1078500543
2.3350000000	1.0949863539
2.3400000000	1.0903418466
2.3450000000	1.0886286259
2.3500000000	1.0830366313
2.3550000000	1.0692152888
2.3600000000	1.0483682096
2.3650000000	1.0258022674
2.3700000000	1.0069119361
2.3750000000	0.9946967269
2.3800000000	0.9896409492
2.3850000000	0.9905447264
2.3900000000	0.9958746446
2.3950000000	1.0041594124
2.4000000000	1.0161307392
2.4050000000	1.0349015512
2.4100000000	1.0617893829
2.4150000000	1.0986188788
2.4200000000	1.1466501852
2.4250000000	1.2072351121
2.4300000000	1.2820341908
2.4350000000	1.3731765743
2.4400000000	1.4834016688
2.4450000000	1.6162216108
2.4500000000	1.7760874131
2.4550000000	1.9686164344
2.4600000000	2.2007126671
2.4650000000	2.4807020435
2.4700000000	2.8181613381
2.4750000000	3.2227483901
2.4800000000	3.7046499934
2.4850000000	4.2680928175
2.4900000000	4.9077883679
2.4950000000	5.6003940924
2.5000000000	6.2955353175
2.5050000000	6.9397974086
2.5100000000	7.3622460552
2.5150000000	7.4669950853
2.5200000000	7.2380049508
2.5250000000	6.7462878190
2.5300000000	6.1046990160
2.5350000000	5.4156355947
2.5400000000	4.7466848879
2.5450000000	4.1331219492
2.5500000000	3.5891551173
2.5550000000	3.1172261276
2.5600000000	2.7106038141
2.5650000000	2.3678070354
2.5700000000	2.0815563959
2.5750000000	1.8474541129
2.5800000000	1.6621390046
2.5850000000	1.5216441566
2.5900000000	1.4190336854
2.5950000000	1.3443525047
2.6000000000	1.2871934965
2.6050000000	1.2464058760
2.6100000000	1.2102441199
2.6150000000	1.1782235859
2.6200000000	1.1510963161
2.6250000000	1.1296339870
2.6300000000	1.1143318113
2.6350000000	1.1054280862
2.6400000000	1.1030473968
2.6450000000	1.1073162108
2.6500000000	1.1184944516
2.6550000000	1.1366396587
2.6600000000	1.1621498128
2.6650000000	1.1954037434
2.6700000000	1.2368470453
2.6750000000	1.2870014855
2.6800000000	1.3464251621
2.6850000000	1.4156875826
2.6900000000	1.4952928490
2.6950000000	1.5856266323
2.7000000000	1.6868292360
2.7050000000	1.8107407481
2.7100000000	1.9479370521
2.7150000000	2.0967422673
2.7200000000	2.2543409478
2.7250000000	2.4167309861
2.7300000000	2.5787338770
2.7350000000	2.7340137100
2.7400000000	2.8750352967
2.7450000000	2.9942810317
2.7500000000	3.0805857411
2.7550000000	3.1265590528
2.7600000000	3.1266197818
2.7650000000	3.0795381613
2.7700000000	2.9890629883
2.7750000000	2.8632891169
2.7800000000	2.7129010902
2.7850000000	2.5492636804
2.7900000000	2.3825588158
2.7950000000	2.2209483648
2.8000000000	2.0702077930
2.8050000000	1.9170900559
2.8100000000	1.7852808493
2.8150000000	1.6744860519
2.8200000000	1.5829757550
2.8250000000	1.5084494582
2.8300000000	1.4485865955
2.8350000000	1.4014124748
2.8400000000	1.3648255328
2.8450000000	1.3389549434
2.8500000000	1.3222560823
2.8550000000	1.3141455336
2.8600000000	1.3141928631
2.8650000000	1.3220315901
2.8700000000	1.3373057616
2.8750000000	1.3596083824
2.8800000000	1.3884410895
2.8850000000	1.4231736886
2.8900000000	1.4630553075
2.8950000000	1.5071930694
2.9000000000	1.5546083040
2.9050000000	1.6145571666
2.9100000000	1.6744666862
2.9150000000	1.7321982597
2.9200000000	1.7852981201
2.9250000000	1.8309335043
2.9300000000	1.8664671114
2.9350000000	1.8881965531
2.9400000000	1.8943596149
2.9450000000	1.8840944937
2.9500000000	1.8581042014
2.9550000000	1.8186000962
2.9600000000	1.7688697620
2.9650000000	1.7126976516
2.9700000000	1.6537874499
2.9750000000	1.5953312244
2.9800000000	1.5397977010
2.9850000000	1.4888931114
2.9900000000	1.4436696848
2.9950000000	1.4046364488
3.0000000000	1.3719415413
