# energy (eV)    P(omega), $W$ = 300 nm, $h$ = 300 nm, $s$ = 20 nm, $d/W = 5$, $E_{\rm e}$ = 200 keV
0.2000000000	0.0636991410
0.2050000000	0.0646536731
0.2100000000	0.0655461713
0.2150000000	0.0663786572
0.2200000000	0.0671528541
0.2250000000	0.0678702266
0.2300000000	0.0685318924
0.2350000000	0.0691385928
0.2400000000	0.0696906066
0.2450000000	0.0701877222
0.2500000000	0.0706291197
0.2550000000	0.0710132342
0.2600000000	0.0713377191
0.2650000000	0.0715991651
0.2700000000	0.0717929557
0.2750000000	0.0719129722
0.2800000000	0.0719512725
0.2850000000	0.0718976459
0.2900000000	0.0717390131
0.2950000000	0.0714587790
0.3000000000	0.0710357448
0.3050000000	0.0704428974
0.3100000000	0.0696456529
0.3150000000	0.0736046960
0.3200000000	0.0783065678
0.3250000000	0.0842534869
0.3300000000	0.0922176927
0.3350000000	0.1021310886
0.3400000000	0.1151128323
0.3450000000	0.1308584051
0.3500000000	0.1514560665
0.3550000000	0.1787100592
0.3600000000	0.2142947502
0.3650000000	0.2639027428
0.3700000000	0.3293128863
0.3750000000	0.4202989448
0.3800000000	0.5518880850
0.3850000000	0.7569256767
0.3900000000	1.0808341827
0.3950000000	1.6310225777
0.4000000000	2.6798629686
0.4050000000	5.0313097983
0.4100000000	11.4474491220
0.4150000000	36.7372242226
0.4200000000	23.4070667275
0.4250000000	-44.0574913736
0.4300000000	12.2510027233
0.4350000000	7.6341945805
0.4400000000	4.6666991310
0.4450000000	3.0693464295
0.4500000000	2.1497990395
0.4550000000	1.5839206677
0.4600000000	1.2153704383
0.4650000000	0.9642264711
0.4700000000	0.7867230239
0.4750000000	0.6583488463
0.4800000000	0.5631699450
0.4850000000	0.4915499625
0.4900000000	0.4368800280
0.4950000000	0.3947236199
0.5000000000	0.3620482279
0.5050000000	0.3366289443
0.5100000000	0.3170330606
0.5150000000	0.3022057898
0.5200000000	0.2910447679
0.5250000000	0.2830531788
0.5300000000	0.2776978771
0.5350000000	0.2745889268
0.5400000000	0.2734388461
0.5450000000	0.2740074793
0.5500000000	0.2762187737
0.5550000000	0.2799373349
0.5600000000	0.2850939425
0.5650000000	0.2916574799
0.5700000000	0.2995995837
0.5750000000	0.3089757289
0.5800000000	0.3198761041
0.5850000000	0.3323595391
0.5900000000	0.3465400911
0.5950000000	0.3625612686
0.6000000000	0.3806058774
0.6050000000	0.4009389192
0.6100000000	0.4238131942
0.6150000000	0.4495741118
0.6200000000	0.4786824305
0.6250000000	0.5115799063
0.6300000000	0.5489195030
0.6350000000	0.5915150469
0.6400000000	0.6402133148
0.6450000000	0.6962366074
0.6500000000	0.7611920162
0.6550000000	0.8367524709
0.6600000000	0.9254892032
0.6650000000	1.0307013824
0.6700000000	1.1562676493
0.6750000000	1.3081026632
0.6800000000	1.4941603627
0.6850000000	1.7248603564
0.6900000000	2.0163407143
0.6950000000	2.3911718197
0.7000000000	2.8852066683
0.7050000000	3.5532551581
0.7100000000	4.4881858465
0.7150000000	5.8553153252
0.7200000000	7.9624121571
0.7250000000	11.4600524389
0.7300000000	17.8800079800
0.7350000000	31.6168521017
0.7400000000	69.2905296114
0.7450000000	229.8700722506
0.7500000000	712.1387482788
0.7550000000	179.1539616292
0.7600000000	59.3316601608
0.7650000000	28.4283569822
0.7700000000	16.5329189345
0.7750000000	10.7905710152
0.7800000000	7.5937803272
0.7850000000	5.6399049762
0.7900000000	4.3572869684
0.7950000000	3.4726939879
0.8000000000	2.8367923115
0.8050000000	2.3631873459
0.8100000000	2.0020371416
0.8150000000	1.7157475861
0.8200000000	1.4897998812
0.8250000000	1.3078694540
0.8300000000	1.1588399156
0.8350000000	1.0363101043
0.8400000000	0.9335944123
0.8450000000	0.8474026496
0.8500000000	0.7745457946
0.8550000000	0.7116733807
0.8600000000	0.6580013201
0.8650000000	0.6121563723
0.8700000000	0.5716485893
0.8750000000	0.5371910204
0.8800000000	0.5079531434
0.8850000000	0.4817397712
0.8900000000	0.4607124766
0.8950000000	0.4415841036
0.9000000000	0.4264245103
0.9050000000	0.4159850712
0.9100000000	0.4064183819
0.9150000000	0.4006167952
0.9200000000	0.3999218389
0.9250000000	0.3994072621
0.9300000000	0.3935513814
0.9350000000	0.3759720648
0.9400000000	0.2780247332
0.9450000000	-0.1671857340
0.9500000000	-2.5167641396
0.9550000000	-14.4342575726
0.9600000000	3.4059794537
0.9650000000	5.9831271373
0.9700000000	2.6537481277
0.9750000000	1.3931542208
0.9800000000	0.8731077730
0.9850000000	0.6298804588
0.9900000000	0.4897378367
0.9950000000	0.4047586278
1.0000000000	0.3504991711
1.0050000000	0.3161001618
1.0100000000	0.2894322591
1.0150000000	0.2699496436
1.0200000000	0.2568271545
1.0250000000	0.2458125890
1.0300000000	0.2374449453
1.0350000000	0.2311147971
1.0400000000	0.2270903410
1.0450000000	0.2237437877
1.0500000000	0.2215360548
1.0550000000	0.2203364268
1.0600000000	0.2204403431
1.0650000000	0.2210255012
1.0700000000	0.2224271377
1.0750000000	0.2246510832
1.0800000000	0.2279173042
1.0850000000	0.2320622419
1.0900000000	0.2381767710
1.0950000000	0.2454381661
1.1000000000	0.2540901202
1.1050000000	0.2640616176
1.1100000000	0.2756676997
1.1150000000	0.2891693072
1.1200000000	0.3048758656
1.1250000000	0.3231914830
1.1300000000	0.3446578638
1.1350000000	0.3699492370
1.1400000000	0.3998334770
1.1450000000	0.4357121745
1.1500000000	0.4791095773
1.1550000000	0.5322291868
1.1600000000	0.5981797435
1.1650000000	0.6809950940
1.1700000000	0.7882314695
1.1750000000	0.9299202169
1.1800000000	1.1226446067
1.1850000000	1.3936634410
1.1900000000	1.7943504915
1.1950000000	2.4233463686
1.2000000000	3.4902109343
1.2050000000	5.5063019197
1.2100000000	9.9413033283
1.2150000000	21.9291093489
1.2200000000	53.8185429319
1.2250000000	48.3531041039
1.2300000000	19.2881356621
1.2350000000	9.0467070287
1.2400000000	5.1675029084
1.2450000000	3.3863796418
1.2500000000	2.4467801286
1.2550000000	1.9045370065
1.2600000000	1.5746017664
1.2650000000	1.3679642157
1.2700000000	1.2447874993
1.2750000000	1.1792427356
1.2800000000	1.1590382753
1.2850000000	1.1788102552
1.2900000000	1.2381350783
1.2950000000	1.3401002134
1.3000000000	1.4972890411
1.3050000000	1.7258395895
1.3100000000	2.0558332989
1.3150000000	2.5393167223
1.3200000000	3.2698535795
1.3250000000	4.4257761594
1.3300000000	6.3976452826
1.3350000000	10.0909807751
1.3400000000	17.9847139264
1.3450000000	37.5810770924
1.3500000000	79.7566230713
1.3550000000	74.3848728572
1.3600000000	34.3025223568
1.3650000000	16.8541000688
1.3700000000	9.6656320580
1.3750000000	6.2158766995
1.3800000000	4.3348816998
1.3850000000	3.2017909550
1.3900000000	2.4715017617
1.3950000000	1.9732494444
1.4000000000	1.6188358379
1.4050000000	1.3585320421
1.4100000000	1.1622212184
1.4150000000	1.0119145036
1.4200000000	0.8949255927
1.4250000000	0.8078992335
1.4300000000	0.7526049178
1.4350000000	0.7161730385
1.4400000000	0.4925941033
1.4450000000	-0.1269128131
1.4500000000	-1.2046635987
1.4550000000	-0.4023421086
1.4600000000	1.2259348657
1.4650000000	0.7100166557
1.4700000000	-0.4537772018
1.4750000000	-2.2951042855
1.4800000000	-1.0126044490
1.4850000000	1.7346776065
1.4900000000	1.4042750109
1.4950000000	0.9110766232
1.5000000000	0.6414371225
1.5050000000	0.4954684470
1.5100000000	0.4119117093
1.5150000000	0.3606813472
1.5200000000	0.3271259647
1.5250000000	0.3058271782
1.5300000000	0.2890428277
1.5350000000	0.2768494489
1.5400000000	0.2680156258
1.5450000000	0.2618069939
1.5500000000	0.2577156865
1.5550000000	0.2555299199
1.5600000000	0.2556865343
1.5650000000	0.2573019229
1.5700000000	0.2613172908
1.5750000000	0.2684711454
1.5800000000	0.2802347529
1.5850000000	0.2995054926
1.5900000000	0.3324131264
1.5950000000	0.3925090668
1.6000000000	0.5083534860
1.6050000000	0.6984850697
1.6100000000	0.7871661234
1.6150000000	0.6269584903
1.6200000000	0.4784058493
1.6250000000	0.4029128565
1.6300000000	0.3682879910
1.6350000000	0.3540452418
1.6400000000	0.3509054121
1.6450000000	0.3546244411
1.6500000000	0.3631367535
1.6550000000	0.3755949373
1.6600000000	0.3915674765
1.6650000000	0.4109972544
1.6700000000	0.4340462706
1.6750000000	0.4610472537
1.6800000000	0.4924863256
1.6850000000	0.5290122489
1.6900000000	0.5713787031
1.6950000000	0.6200226852
1.7000000000	0.6760157478
1.7050000000	0.7407960351
1.7100000000	0.8193119300
1.7150000000	0.9513127491
1.7200000000	1.1506994968
1.7250000000	1.3661885107
1.7300000000	1.6223950412
1.7350000000	1.8996052328
1.7400000000	2.1555482322
1.7450000000	2.4781218597
1.7500000000	2.9725993767
1.7550000000	3.7142512222
1.7600000000	4.8269638661
1.7650000000	6.5435966606
1.7700000000	9.3089030404
1.7750000000	13.9664964639
1.7800000000	21.8992005904
1.7850000000	33.5889607814
1.7900000000	41.7145433282
1.7950000000	35.4925537258
1.8000000000	23.5986195579
1.8050000000	14.8858029430
1.8100000000	9.8009732275
1.8150000000	6.8213610947
1.8200000000	4.9878031546
1.8250000000	3.7988899354
1.8300000000	2.9912183745
1.8350000000	2.4205155527
1.8400000000	2.0039734256
1.8450000000	1.6912963423
1.8500000000	1.4507537986
1.8550000000	1.2624513980
1.8600000000	1.1123964275
1.8650000000	0.9909709053
1.8700000000	0.8911669309
1.8750000000	0.8076095771
1.8800000000	0.7357243440
1.8850000000	0.6710518969
1.8900000000	0.6080739083
1.8950000000	0.5384309555
1.9000000000	0.4479582740
1.9050000000	0.2904277531
1.9100000000	0.0642184814
1.9150000000	-0.1534513598
1.9200000000	0.1102980540
1.9250000000	1.1641319172
1.9300000000	2.0059659255
1.9350000000	2.0246975387
1.9400000000	1.6252577780
1.9450000000	1.2317127967
1.9500000000	0.9527844649
1.9550000000	0.7682888847
1.9600000000	0.6453449463
1.9650000000	0.5634222230
1.9700000000	0.5031184639
1.9750000000	0.4588988176
1.9800000000	0.4253363160
1.9850000000	0.3985390834
1.9900000000	0.3756099386
1.9950000000	0.3540929329
2.0000000000	0.3335468010
2.0050000000	0.3213285389
2.0100000000	0.3295407888
2.0150000000	0.3509574082
2.0200000000	0.3654252294
2.0250000000	0.3717100036
2.0300000000	0.3764990909
2.0350000000	0.3828867329
2.0400000000	0.3923770509
2.0450000000	0.4056077722
2.0500000000	0.4232268454
2.0550000000	0.4458785697
2.0600000000	0.4735998666
2.0650000000	0.5041801914
2.0700000000	0.5321167597
2.0750000000	0.5531126313
2.0800000000	0.5703637404
2.0850000000	0.5908145560
2.0900000000	0.6188827817
2.0950000000	0.6561004582
2.1000000000	0.7036421931
2.1050000000	0.7607924084
2.1100000000	0.8315328698
2.1150000000	0.9187178373
2.1200000000	1.0264519350
2.1250000000	1.1605592681
2.1300000000	1.3292918095
2.1350000000	1.5444563753
2.1400000000	1.8231051278
2.1450000000	2.1901630307
2.1500000000	2.6819271030
2.1550000000	3.3497353992
2.1600000000	4.2592720098
2.1650000000	5.4662017560
2.1700000000	6.9493073583
2.1750000000	8.4281984843
2.1800000000	9.3569557156
2.1850000000	9.4439740946
2.1900000000	9.0913048632
2.1950000000	8.8410930184
2.2000000000	8.7536741430
2.2050000000	8.3424015187
2.2100000000	7.3990334496
2.2150000000	6.2120666667
2.2200000000	5.1324589217
2.2250000000	4.2576336035
2.2300000000	3.5393881026
2.2350000000	2.9382261994
2.2400000000	2.4445999986
2.2450000000	2.0548144909
2.2500000000	1.7527531521
2.2550000000	1.5189804761
2.2600000000	1.3355027172
2.2650000000	1.1860991314
2.2700000000	1.0554139680
2.2750000000	0.9304684929
2.2800000000	0.8082456318
2.2850000000	0.7036668802
2.2900000000	0.6421519628
2.2950000000	0.6350979548
2.3000000000	0.6628872816
2.3050000000	0.6921759489
2.3100000000	0.7025227522
2.3150000000	0.6945699519
2.3200000000	0.6771552986
2.3250000000	0.6593622150
2.3300000000	0.6460130016
2.3350000000	0.6385153059
2.3400000000	0.6358098077
2.3450000000	0.6348147496
2.3500000000	0.6315606777
2.3550000000	0.6235117866
2.3600000000	0.6113696286
2.3650000000	0.5982273205
2.3700000000	0.5872287189
2.3750000000	0.5801212616
2.3800000000	0.5771855867
2.3850000000	0.5777198637
2.3900000000	0.5808275968
2.3950000000	0.5856495460
2.4000000000	0.5926135763
2.4050000000	0.6035365454
2.4100000000	0.6191903310
2.4150000000	0.6406410199
2.4200000000	0.6686238240
2.4250000000	0.7039271009
2.4300000000	0.7475183863
2.4350000000	0.8006381089
2.4400000000	0.8648826228
2.4450000000	0.9422988386
2.4500000000	1.0354810209
2.4550000000	1.1477024888
2.4600000000	1.2829880706
2.4650000000	1.4461899430
2.4700000000	1.6428914947
2.4750000000	1.8787225480
2.4800000000	2.1596241042
2.4850000000	2.4880635223
2.4900000000	2.8609632438
2.4950000000	3.2647202500
2.5000000000	3.6699677372
2.5050000000	4.0455626909
2.5100000000	4.2918375361
2.5150000000	4.3528843026
2.5200000000	4.2193570107
2.5250000000	3.9326674838
2.5300000000	3.5586187373
2.5350000000	3.1569080693
2.5400000000	2.7669329603
2.5450000000	2.4092524094
2.5500000000	2.0921452463
2.5550000000	1.8170333661
2.5600000000	1.5799924682
2.5650000000	1.3801596239
2.5700000000	1.2132919166
2.5750000000	1.0768257205
2.5800000000	0.9688012446
2.5850000000	0.8869058392
2.5900000000	0.8270957285
2.5950000000	0.7835669884
2.6000000000	0.7502526708
2.6050000000	0.7264812053
2.6100000000	0.7054054882
2.6150000000	0.6867428465
2.6200000000	0.6709314276
2.6250000000	0.6584204413
2.6300000000	0.6494979812
2.6350000000	0.6443021633
2.6400000000	0.6429057122
2.6450000000	0.6453824352
2.6500000000	0.6518840016
2.6550000000	0.6624442814
2.6600000000	0.6772950557
2.6650000000	0.6966568101
2.6700000000	0.7207892546
2.6750000000	0.7499960825
2.6800000000	0.7846019854
2.6850000000	0.8249392627
2.6900000000	0.8713018799
2.6950000000	0.9239148439
2.7000000000	0.9828608433
2.7050000000	1.0550369902
2.7100000000	1.1349557829
2.7150000000	1.2216419471
2.7200000000	1.3134566589
2.7250000000	1.4080694604
2.7300000000	1.5024637139
2.7350000000	1.5929471160
2.7400000000	1.6751273888
2.7450000000	1.7446216236
2.7500000000	1.7949213526
2.7550000000	1.8217183780
2.7600000000	1.8217591669
2.7650000000	1.7943271014
2.7700000000	1.7416071434
2.7750000000	1.6683171897
2.7800000000	1.5806840768
2.7850000000	1.4853308021
2.7900000000	1.3881908274
2.7950000000	1.2940200833
2.8000000000	1.2061837598
2.8050000000	1.1169644827
2.8100000000	1.0401616461
2.8150000000	0.9756033871
2.8200000000	0.9222812302
2.8250000000	0.8788543989
2.8300000000	0.8439705459
2.8350000000	0.8164785417
2.8400000000	0.7951538599
2.8450000000	0.7800710372
2.8500000000	0.7703304834
2.8550000000	0.7655920492
2.8600000000	0.7656049367
2.8650000000	0.7701562749
2.8700000000	0.7790385935
2.8750000000	0.7920149008
2.8800000000	0.8087957428
2.8850000000	0.8290143315
2.8900000000	0.8522329228
2.8950000000	0.8779326683
2.9000000000	0.9055429289
2.9050000000	0.9404570667
2.9100000000	0.9753509112
2.9150000000	1.0089785880
2.9200000000	1.0399097682
2.9250000000	1.0664938745
2.9300000000	1.0871934127
2.9350000000	1.0998519229
2.9400000000	1.1034418564
2.9450000000	1.0974611202
2.9500000000	1.0823198285
2.9550000000	1.0593057547
2.9600000000	1.0303341691
2.9650000000	0.9976101363
2.9700000000	0.9632905548
2.9750000000	0.9292351643
2.9800000000	0.8968820840
2.9850000000	0.8672251972
2.9900000000	0.8408769549
2.9950000000	0.8181342961
3.0000000000	0.7990833384
