# energy (eV)    P(omega), $W$ = 300 nm, $h$ = 300 nm, $s$ = 20 nm, $d/W = 5$, $E_{\rm e}$ = 200 keV
0.2000000000	0.0882011013
0.2050000000	0.0894679844
0.2100000000	0.0906588991
0.2150000000	0.0917762194
0.2200000000	0.0928219917
0.2250000000	0.0937979077
0.2300000000	0.0947052090
0.2350000000	0.0955446708
0.2400000000	0.0963165131
0.2450000000	0.0970202099
0.2500000000	0.0976545966
0.2550000000	0.0982174368
0.2600000000	0.0987054635
0.2650000000	0.0991141240
0.2700000000	0.0994371775
0.2750000000	0.0996664549
0.2800000000	0.0997913679
0.2850000000	0.0997983787
0.2900000000	0.0996700948
0.2950000000	0.0993845849
0.3000000000	0.0989136085
0.3050000000	0.0982214875
0.3100000000	0.0972624181
0.3150000000	0.1025008646
0.3200000000	0.1087231468
0.3250000000	0.1165887799
0.3300000000	0.1271142348
0.3350000000	0.1402200387
0.3400000000	0.1573840898
0.3450000000	0.1782209941
0.3500000000	0.2054907892
0.3550000000	0.2415919646
0.3600000000	0.2887647096
0.3650000000	0.3545598520
0.3700000000	0.4414013502
0.3750000000	0.5622939516
0.3800000000	0.7372658339
0.3850000000	1.0100742903
0.3900000000	1.4413813693
0.3950000000	2.1745503918
0.4000000000	3.5731788262
0.4050000000	6.7109820250
0.4100000000	15.2790736199
0.4150000000	49.0755630897
0.4200000000	31.2377112017
0.4250000000	-58.9683881337
0.4300000000	16.4328533277
0.4350000000	10.2535278510
0.4400000000	6.2775584367
0.4450000000	4.1358277428
0.4500000000	2.9020716093
0.4550000000	2.1423635403
0.4600000000	1.6472853912
0.4650000000	1.3097429300
0.4700000000	1.0710639433
0.4750000000	0.8983899176
0.4800000000	0.7703390741
0.4850000000	0.6739831585
0.4900000000	0.6004492334
0.4950000000	0.5437782579
0.5000000000	0.4998982520
0.5050000000	0.4658180474
0.5100000000	0.4396155185
0.5150000000	0.4198763346
0.5200000000	0.4051133288
0.5250000000	0.3946641950
0.5300000000	0.3878121139
0.5350000000	0.3840343233
0.5400000000	0.3829460688
0.5450000000	0.3842261339
0.5500000000	0.3877788884
0.5550000000	0.3934251666
0.5600000000	0.4010777130
0.5650000000	0.4106996986
0.5700000000	0.4222599745
0.5750000000	0.4358412783
0.5800000000	0.4515780926
0.5850000000	0.4695587943
0.5900000000	0.4899514966
0.5950000000	0.5129646629
0.6000000000	0.5388635012
0.6050000000	0.5680281424
0.6100000000	0.6008247838
0.6150000000	0.6377504009
0.6200000000	0.6794683433
0.6250000000	0.7266137359
0.6300000000	0.7801253242
0.6350000000	0.8411731913
0.6400000000	0.9109753238
0.6450000000	0.9912889219
0.6500000000	1.0844251570
0.6550000000	1.1927904240
0.6600000000	1.3200817813
0.6650000000	1.4710467982
0.6700000000	1.6512668474
0.6750000000	1.8692497099
0.6800000000	2.1364502731
0.6850000000	2.4678633873
0.6900000000	2.8867324121
0.6950000000	3.4255544606
0.7000000000	4.1359816139
0.7050000000	5.0969741282
0.7100000000	6.4423624726
0.7150000000	8.4104103140
0.7200000000	11.4447883240
0.7250000000	16.4835344542
0.7300000000	25.7357290375
0.7350000000	45.5403955130
0.7400000000	99.8770579664
0.7450000000	331.5836226958
0.7500000000	1028.0126430126
0.7550000000	258.8143734877
0.7600000000	85.7790777264
0.7650000000	41.1323928128
0.7700000000	23.9400035329
0.7750000000	15.6374502528
0.7800000000	11.0136431182
0.7850000000	8.1865469213
0.7900000000	6.3300397785
0.7950000000	5.0491849609
0.8000000000	4.1281086419
0.8050000000	3.4418787263
0.8100000000	2.9184103889
0.8150000000	2.5032845362
0.8200000000	2.1755527372
0.8250000000	1.9115924073
0.8300000000	1.6952948300
0.8350000000	1.5174190984
0.8400000000	1.3682722001
0.8450000000	1.2430912991
0.8500000000	1.1372685324
0.8550000000	1.0459222389
0.8600000000	0.9679415153
0.8650000000	0.9013485086
0.8700000000	0.8424902688
0.8750000000	0.7924492272
0.8800000000	0.7500268768
0.8850000000	0.7119888761
0.8900000000	0.6815572267
0.8950000000	0.6538704964
0.9000000000	0.6320165536
0.9050000000	0.6171336280
0.9100000000	0.6035031029
0.9150000000	0.5954405975
0.9200000000	0.5949649880
0.9250000000	0.5947159997
0.9300000000	0.5864021227
0.9350000000	0.5603646164
0.9400000000	0.4133715997
0.9450000000	-0.2564649659
0.9500000000	-3.7950140309
0.9550000000	-21.7560133999
0.9600000000	5.1387661478
0.9650000000	9.0319813104
0.9700000000	4.0087399895
0.9750000000	2.1054465604
0.9800000000	1.3198297430
0.9850000000	0.9522922936
0.9900000000	0.7404170682
0.9950000000	0.6118978370
1.0000000000	0.5298226301
1.0050000000	0.4778114200
1.0100000000	0.4374444007
1.0150000000	0.4079364175
1.0200000000	0.3880701108
1.0250000000	0.3713515727
1.0300000000	0.3586224619
1.0350000000	0.3489583206
1.0400000000	0.3427853536
1.0450000000	0.3375950729
1.0500000000	0.3341019669
1.0550000000	0.3321060199
1.0600000000	0.3320686898
1.0650000000	0.3327059518
1.0700000000	0.3345362390
1.0750000000	0.3375656251
1.0800000000	0.3421339191
1.0850000000	0.3479416479
1.0900000000	0.3565986872
1.0950000000	0.3668938050
1.1000000000	0.3791884713
1.1050000000	0.3933245789
1.1100000000	0.4097639252
1.1150000000	0.4288708146
1.1200000000	0.4510923279
1.1250000000	0.4769384185
1.1300000000	0.5071801786
1.1350000000	0.5427486934
1.1400000000	0.5847217646
1.1450000000	0.6349879791
1.1500000000	0.6956664492
1.1550000000	0.7697899434
1.1600000000	0.8616364595
1.1650000000	0.9767734026
1.1700000000	1.1255461922
1.1750000000	1.3217620377
1.1800000000	1.5882136384
1.1850000000	1.9623442352
1.1900000000	2.5148271407
1.1950000000	3.3811181298
1.2000000000	4.8492915712
1.2050000000	7.6223204347
1.2100000000	13.7209890032
1.2150000000	30.2077324698
1.2200000000	74.0871229380
1.2250000000	66.6286042223
1.2300000000	26.6569714226
1.2350000000	12.5687078460
1.2400000000	7.2351629713
1.2450000000	4.7909233022
1.2500000000	3.5068125948
1.2550000000	2.7717238419
1.2600000000	2.3312407466
1.2650000000	2.0631700267
1.2700000000	1.9135213292
1.2750000000	1.8474630554
1.2800000000	1.8492486606
1.2850000000	1.9131105005
1.2900000000	2.0407910560
1.2950000000	2.2395672366
1.3000000000	2.5322794451
1.3050000000	2.9486625506
1.3100000000	3.5424932931
1.3150000000	4.4064228302
1.3200000000	5.7063293139
1.3250000000	7.7589877689
1.3300000000	11.2557956741
1.3350000000	17.8020758626
1.3400000000	31.7923645764
1.3450000000	66.5311900217
1.3500000000	141.3360996909
1.3550000000	131.9021029057
1.3600000000	60.8496190848
1.3650000000	29.9020656573
1.3700000000	17.1484523629
1.3750000000	11.0269597882
1.3800000000	7.6890656234
1.3850000000	5.6786879560
1.3900000000	4.3836594645
1.3950000000	3.5006769217
1.4000000000	2.8736610607
1.4050000000	2.4145292133
1.4100000000	2.0704635584
1.4150000000	1.8108546314
1.4200000000	1.6156520032
1.4250000000	1.4849597283
1.4300000000	1.4372338888
1.4350000000	1.4641729375
1.4400000000	1.1280816300
1.4450000000	0.0982936912
1.4500000000	-1.5731686304
1.4550000000	-0.4407071565
1.4600000000	1.9063547930
1.4650000000	1.0318054382
1.4700000000	-0.9757082539
1.4750000000	-4.2683001002
1.4800000000	-1.8997342944
1.4850000000	3.1219128223
1.4900000000	2.5306420958
1.4950000000	1.6379924093
1.5000000000	1.1508680493
1.5050000000	0.8885722790
1.5100000000	0.7390726851
1.5150000000	0.6482833168
1.5200000000	0.5896363625
1.5250000000	0.5531983157
1.5300000000	0.5253653957
1.5350000000	0.5061819630
1.5400000000	0.4935477818
1.5450000000	0.4863362013
1.5500000000	0.4838198129
1.5550000000	0.4860176746
1.5600000000	0.4942263376
1.5650000000	0.5077817837
1.5700000000	0.5297271102
1.5750000000	0.5637752637
1.5800000000	0.6168976539
1.5850000000	0.7026644898
1.5900000000	0.8496661674
1.5950000000	1.1211713598
1.6000000000	1.6508234574
1.6050000000	2.5265942095
1.6100000000	2.9322017200
1.6150000000	2.1718670735
1.6200000000	1.4585729479
1.6250000000	1.0820435882
1.6300000000	0.8929798496
1.6350000000	0.7956348952
1.6400000000	0.7462850620
1.6450000000	0.7246082756
1.6500000000	0.7204276151
1.6550000000	0.7289756185
1.6600000000	0.7474066023
1.6650000000	0.7744207789
1.6700000000	0.8095234964
1.6750000000	0.8527167957
1.6800000000	0.9043860203
1.6850000000	0.9651292498
1.6900000000	1.0354744491
1.6950000000	1.1144181994
1.7000000000	1.2006281914
1.7050000000	1.2889492469
1.7100000000	1.3897135387
1.7150000000	1.6403834866
1.7200000000	2.0803025789
1.7250000000	2.4832329897
1.7300000000	2.9155529480
1.7350000000	3.3906058563
1.7400000000	3.8568218380
1.7450000000	4.4556765967
1.7500000000	5.3612610717
1.7550000000	6.7091022908
1.7600000000	8.7257079038
1.7650000000	11.8343162076
1.7700000000	16.8417393570
1.7750000000	25.2779531760
1.7800000000	39.6531171627
1.7850000000	60.8531789661
1.7900000000	75.6243545198
1.7950000000	64.3957689505
1.8000000000	42.8573102659
1.8050000000	27.0654648667
1.8100000000	17.8449774013
1.8150000000	12.4404810370
1.8200000000	9.1144788141
1.8250000000	6.9582209733
1.8300000000	5.4941982175
1.8350000000	4.4608326104
1.8400000000	3.7079804770
1.8450000000	3.1445619800
1.8500000000	2.7131768338
1.8550000000	2.3779084570
1.8600000000	2.1137022359
1.8650000000	1.9035310846
1.8700000000	1.7352856386
1.8750000000	1.6000767093
1.8800000000	1.4908545129
1.8850000000	1.4013913975
1.8900000000	1.3245128824
1.8950000000	1.2495134793
1.9000000000	1.1579058534
1.9050000000	0.9844293636
1.9100000000	0.7457191415
1.9150000000	0.6196928511
1.9200000000	1.5133892836
1.9250000000	3.9820948369
1.9300000000	5.9399230403
1.9350000000	5.8483541965
1.9400000000	4.5997553909
1.9450000000	3.3892285729
1.9500000000	2.5393106047
1.9550000000	1.9824249636
1.9600000000	1.6144217033
1.9650000000	1.3681096002
1.9700000000	1.1902965423
1.9750000000	1.0599529246
1.9800000000	0.9604401373
1.9850000000	0.8796863269
1.9900000000	0.8084538618
1.9950000000	0.7386803326
2.0000000000	0.6691906513
2.0050000000	0.6247927479
2.0100000000	0.6502262677
2.0150000000	0.7202934688
2.0200000000	0.7634923631
2.0250000000	0.7749600352
2.0300000000	0.7775312282
2.0350000000	0.7822159156
2.0400000000	0.7931036370
2.0450000000	0.8112358005
2.0500000000	0.8372870292
2.0550000000	0.8718696617
2.0600000000	0.9149840899
2.0650000000	0.9640218880
2.0700000000	1.0125142557
2.0750000000	1.0556143818
2.0800000000	1.0976022670
2.0850000000	1.1473273954
2.0900000000	1.2107231062
2.0950000000	1.2902897275
2.1000000000	1.3887194577
2.1050000000	1.5051225922
2.1100000000	1.6476801299
2.1150000000	1.8223728652
2.1200000000	2.0375877153
2.1250000000	2.3050883454
2.1300000000	2.6414566106
2.1350000000	3.0703661179
2.1400000000	3.6260008293
2.1450000000	4.3583378622
2.1500000000	5.3401957777
2.1550000000	6.6746329089
2.1600000000	8.4935478227
2.1650000000	10.9086428027
2.1700000000	13.8752314397
2.1750000000	16.8246319870
2.1800000000	18.6469564120
2.1850000000	18.7415534849
2.1900000000	17.9128206403
2.1950000000	17.2678644188
2.2000000000	16.9818025951
2.2050000000	16.1876014984
2.2100000000	14.5016251444
2.2150000000	12.4287829439
2.2200000000	10.5680057755
2.2250000000	9.0300963729
2.2300000000	7.6757585484
2.2350000000	6.4511202304
2.2400000000	5.3991518580
2.2450000000	4.5574279411
2.2500000000	3.9121828376
2.2550000000	3.4274869520
2.2600000000	3.0645980783
2.2650000000	2.7846879161
2.2700000000	2.5457762933
2.2750000000	2.3064973374
2.2800000000	2.0488521848
2.2850000000	1.8036530142
2.2900000000	1.6341791511
2.2950000000	1.5762586683
2.3000000000	1.5969012497
2.3050000000	1.6284537367
2.3100000000	1.6310845668
2.3150000000	1.6051154552
2.3200000000	1.5677883490
2.3250000000	1.5369124297
2.3300000000	1.5215996834
2.3350000000	1.5234137911
2.3400000000	1.5372465921
2.3450000000	1.5515390300
2.3500000000	1.5517362974
2.3550000000	1.5285525055
2.3600000000	1.4846155925
2.3650000000	1.4314091148
2.3700000000	1.3807701016
2.3750000000	1.3397685651
2.3800000000	1.3107018726
2.3850000000	1.2929218047
2.3900000000	1.2849484655
2.3950000000	1.2850670699
2.4000000000	1.2937442104
2.4050000000	1.3138377215
2.4100000000	1.3463046984
2.4150000000	1.3924704784
2.4200000000	1.4531314458
2.4250000000	1.5296827560
2.4300000000	1.6241596724
2.4350000000	1.7392924701
2.4400000000	1.8786043608
2.4450000000	2.0465939032
2.4500000000	2.2489366309
2.4550000000	2.4927661406
2.4600000000	2.7868469296
2.4650000000	3.1416945612
2.4700000000	3.5693692170
2.4750000000	4.0819511608
2.4800000000	4.6919160085
2.4850000000	5.4042016237
2.4900000000	6.2118448802
2.4950000000	7.0859435539
2.5000000000	7.9653772038
2.5050000000	8.7880570988
2.5100000000	9.3438557619
2.5150000000	9.5115737584
2.5200000000	9.2623172499
2.5250000000	8.6730270846
2.5300000000	7.8777646096
2.5350000000	7.0058376921
2.5400000000	6.1486086025
2.5450000000	5.3577022086
2.5500000000	4.6560776217
2.5550000000	4.0489625439
2.5600000000	3.5280099195
2.5650000000	3.0900220641
2.5700000000	2.7246858768
2.5750000000	2.4255450597
2.5800000000	2.1877771003
2.5850000000	2.0061402616
2.5900000000	1.8720140122
2.5950000000	1.7732790222
2.6000000000	1.6973165282
2.6050000000	1.6433312098
2.6100000000	1.5965882225
2.6150000000	1.5563465562
2.6200000000	1.5234009968
2.6250000000	1.4986322851
2.6300000000	1.4826285907
2.6350000000	1.4756900312
2.6400000000	1.4779909944
2.6450000000	1.4896936351
2.6500000000	1.5111154754
2.6550000000	1.5423455038
2.6600000000	1.5838629007
2.6650000000	1.6361518055
2.6700000000	1.6998069525
2.6750000000	1.7755489568
2.6800000000	1.8641765297
2.6850000000	1.9665066169
2.6900000000	2.0832082494
2.6950000000	2.2146692229
2.7000000000	2.3607559323
2.7050000000	2.5380827081
2.7100000000	2.7316067862
2.7150000000	2.9375581082
2.7200000000	3.1504539661
2.7250000000	3.3634075031
2.7300000000	3.5686490507
2.7350000000	3.7579743556
2.7400000000	3.9228526126
2.7450000000	4.0557128650
2.7500000000	4.1448102065
2.7550000000	4.1830355724
2.7600000000	4.1649946226
2.7650000000	4.0900609491
2.7700000000	3.9632554135
2.7750000000	3.7946366960
2.7800000000	3.5973154099
2.7850000000	3.3852000801
2.7900000000	3.1707701500
2.7950000000	2.9640329827
2.8000000000	2.7720647805
2.8050000000	2.5778387087
2.8100000000	2.4116077739
2.8150000000	2.2729261575
2.8200000000	2.1595614229
2.8250000000	2.0685712897
2.8300000000	1.9969918832
2.8350000000	1.9422866041
2.8400000000	1.9017852644
2.8450000000	1.8755807295
2.8500000000	1.8617324459
2.8550000000	1.8595009698
2.8600000000	1.8683341144
2.8650000000	1.8877343795
2.8700000000	1.9171451937
2.8750000000	1.9558603345
2.8800000000	2.0029539628
2.8850000000	2.0572219919
2.8900000000	2.1172169958
2.8950000000	2.1813020741
2.9000000000	2.2477559058
2.9050000000	2.3276077555
2.9100000000	2.4042069244
2.9150000000	2.4751444178
2.9200000000	2.5378922748
2.9250000000	2.5895823449
2.9300000000	2.6275736711
2.9350000000	2.6477585263
2.9400000000	2.6483642619
2.9450000000	2.6286359211
2.9500000000	2.5897116362
2.9550000000	2.5345493998
2.9600000000	2.4674185687
2.9650000000	2.3931566363
2.9700000000	2.3164413327
2.9750000000	2.2412702308
2.9800000000	2.1707063842
2.9850000000	2.1068396000
2.9900000000	2.0509267932
2.9950000000	2.0035579182
3.0000000000	1.9648570540
