# energy (eV)    P(omega), $W$ = 300 nm, $h$ = 300 nm, $s$ = 20 nm, $d/W = 5$, $E_{\rm e}$ = 200 keV
0.2000000000	0.1164524548
0.2050000000	0.1182258538
0.2100000000	0.1198738762
0.2150000000	0.1214007080
0.2200000000	0.1228101179
0.2250000000	0.1241052171
0.2300000000	0.1252884900
0.2350000000	0.1263616667
0.2400000000	0.1273256270
0.2450000000	0.1281802473
0.2500000000	0.1289242797
0.2550000000	0.1295550393
0.2600000000	0.1300683492
0.2650000000	0.1304580006
0.2700000000	0.1307155559
0.2750000000	0.1308297153
0.2800000000	0.1307857438
0.2850000000	0.1305646237
0.2900000000	0.1301420304
0.2950000000	0.1294869704
0.3000000000	0.1285598873
0.3050000000	0.1273103701
0.3100000000	0.1256738515
0.3150000000	0.1330750799
0.3200000000	0.1418645538
0.3250000000	0.1529891965
0.3300000000	0.1679013309
0.3350000000	0.1864576185
0.3400000000	0.2107564943
0.3450000000	0.2402025126
0.3500000000	0.2787068512
0.3550000000	0.3296285960
0.3600000000	0.3960654756
0.3650000000	0.4886378540
0.3700000000	0.6105777949
0.3750000000	0.7800657242
0.3800000000	1.0250078594
0.3850000000	1.4064254467
0.3900000000	2.0085017550
0.3950000000	3.0304045328
0.4000000000	4.9771244884
0.4050000000	9.3385450340
0.4100000000	21.2301348575
0.4150000000	68.0666961319
0.4200000000	43.3972053060
0.4250000000	-81.4589630734
0.4300000000	22.6072663401
0.4350000000	14.0695191068
0.4400000000	8.5879187941
0.4450000000	5.6394543125
0.4500000000	3.9432752385
0.4550000000	2.9001289811
0.4600000000	2.2211404626
0.4650000000	1.7587019371
0.4700000000	1.4320110593
0.4750000000	1.1958211048
0.4800000000	1.0207410835
0.4850000000	0.8889972058
0.4900000000	0.7884070273
0.4950000000	0.7107960074
0.5000000000	0.6505755958
0.5050000000	0.6036498352
0.5100000000	0.5673767604
0.5150000000	0.5398093901
0.5200000000	0.5189255388
0.5250000000	0.5038029381
0.5300000000	0.4934610656
0.5350000000	0.4871797147
0.5400000000	0.4844271946
0.5450000000	0.4847595573
0.5500000000	0.4880275082
0.5550000000	0.4939780050
0.5600000000	0.5024761920
0.5650000000	0.5134576220
0.5700000000	0.5268601337
0.5750000000	0.5427753087
0.5800000000	0.5613513474
0.5850000000	0.5826829975
0.5900000000	0.6069604056
0.5950000000	0.6344270548
0.6000000000	0.6653919475
0.6050000000	0.7003110156
0.6100000000	0.7396134590
0.6150000000	0.7838904356
0.6200000000	0.8339311368
0.6250000000	0.8904913609
0.6300000000	0.9546905581
0.6350000000	1.0279235143
0.6400000000	1.1116396611
0.6450000000	1.2079347156
0.6500000000	1.3195619664
0.6550000000	1.4493858867
0.6600000000	1.6018130631
0.6650000000	1.7824915715
0.6700000000	1.9980603907
0.6750000000	2.2586487422
0.6800000000	2.5778715906
0.6850000000	2.9735575633
0.6900000000	3.4733184477
0.6950000000	4.1157628692
0.7000000000	4.9622100531
0.7050000000	6.1063766527
0.7100000000	7.7070239979
0.7150000000	10.0467259360
0.7200000000	13.6514010544
0.7250000000	19.6325540979
0.7300000000	30.6066258654
0.7350000000	54.0782698640
0.7400000000	118.4224643479
0.7450000000	392.5525740711
0.7500000000	1215.1633505013
0.7550000000	305.4572431199
0.7600000000	101.0795319671
0.7650000000	48.3927845652
0.7700000000	28.1209166916
0.7750000000	18.3389675201
0.7800000000	12.8954966281
0.7850000000	9.5697497473
0.7900000000	7.3874160614
0.7950000000	5.8828820182
0.8000000000	4.8017297697
0.8050000000	3.9968113024
0.8100000000	3.3832400034
0.8150000000	2.8970635119
0.8200000000	2.5134850416
0.8250000000	2.2047321046
0.8300000000	1.9519031539
0.8350000000	1.7440827101
0.8400000000	1.5699195245
0.8450000000	1.4238075123
0.8500000000	1.3003161102
0.8550000000	1.1937797664
0.8600000000	1.1028374884
0.8650000000	1.0251466124
0.8700000000	0.9565196898
0.8750000000	0.8981155288
0.8800000000	0.8485198631
0.8850000000	0.8040589043
0.8900000000	0.7683065833
0.8950000000	0.7357853386
0.9000000000	0.7099141628
0.9050000000	0.6919159454
0.9100000000	0.6754100819
0.9150000000	0.6651718587
0.9200000000	0.6633991748
0.9250000000	0.6619626315
0.9300000000	0.6518042186
0.9350000000	0.6225305741
0.9400000000	0.4616816501
0.9450000000	-0.2673902769
0.9500000000	-4.1107639931
0.9550000000	-23.5897843331
0.9600000000	5.5637138466
0.9650000000	9.7653349675
0.9700000000	4.3292374961
0.9750000000	2.2724592239
0.9800000000	1.4244089144
0.9850000000	1.0278795336
0.9900000000	0.7995166199
0.9950000000	0.6610841689
1.0000000000	0.5727062097
1.0050000000	0.5166506667
1.0100000000	0.4732363180
1.0150000000	0.4415325651
1.0200000000	0.4201648651
1.0250000000	0.4022699397
1.0300000000	0.3886987853
1.0350000000	0.3784610704
1.0400000000	0.3719733908
1.0450000000	0.3666297052
1.0500000000	0.3631635409
1.0550000000	0.3613637181
1.0600000000	0.3616966199
1.0650000000	0.3628624390
1.0700000000	0.3653946884
1.0750000000	0.3693044851
1.0800000000	0.3749440340
1.0850000000	0.3820957266
1.0900000000	0.3925774149
1.0950000000	0.4050092499
1.1000000000	0.4197952575
1.1050000000	0.4368654015
1.1100000000	0.4567432252
1.1150000000	0.4798803122
1.1200000000	0.5067952478
1.1250000000	0.5382381955
1.1300000000	0.5751291968
1.1350000000	0.6186424453
1.1400000000	0.6700963291
1.1450000000	0.7319758170
1.1500000000	0.8069187975
1.1550000000	0.8987681081
1.1600000000	1.0129457099
1.1650000000	1.1564681142
1.1700000000	1.3425660661
1.1750000000	1.5887269229
1.1800000000	1.9238870326
1.1850000000	2.3956291986
1.1900000000	3.0935267651
1.1950000000	4.1897882662
1.2000000000	6.0499375901
1.2050000000	9.5658136861
1.2100000000	17.3000385116
1.2150000000	38.1999695925
1.2200000000	93.7636897785
1.2250000000	84.1605301286
1.2300000000	33.4946506082
1.2350000000	15.6492958680
1.2400000000	8.8888109709
1.2450000000	5.7812655021
1.2500000000	4.1376392858
1.2550000000	3.1841148006
1.2600000000	2.5981896479
1.2650000000	2.2245964803
1.2700000000	1.9932193757
1.2750000000	1.8584840477
1.2800000000	1.7979797168
1.2850000000	1.8009776227
1.2900000000	1.8647272937
1.2950000000	1.9920372525
1.3000000000	2.2000062426
1.3050000000	2.5102698423
1.3100000000	2.9645330403
1.3150000000	3.6353039799
1.3200000000	4.6534730428
1.3250000000	6.2681243032
1.3300000000	9.0265535331
1.3350000000	14.1959301335
1.3400000000	25.2452699191
1.3450000000	52.6691068809
1.3500000000	111.6578160545
1.3550000000	104.0666282741
1.3600000000	47.9724242511
1.3650000000	23.5682026615
1.3700000000	13.5172632677
1.3750000000	8.6946947295
1.3800000000	6.0653350094
1.3850000000	4.4812550468
1.3900000000	3.4598415779
1.3950000000	2.7626008678
1.4000000000	2.2659235956
1.4050000000	1.9002029117
1.4100000000	1.6229060513
1.4150000000	1.4079839482
1.4200000000	1.2360523580
1.4250000000	1.0983438582
1.4300000000	0.9869404230
1.4350000000	0.8736692298
1.4400000000	0.5150580423
1.4450000000	-0.4136317765
1.4500000000	-2.1125534839
1.4550000000	-0.7672348029
1.4600000000	1.9275495054
1.4650000000	1.1729551268
1.4700000000	-0.5005739992
1.4750000000	-3.0589115415
1.4800000000	-1.3333210430
1.4850000000	2.4012311700
1.4900000000	1.9426186149
1.4950000000	1.2657476313
1.5000000000	0.8952554124
1.5050000000	0.6939918202
1.5100000000	0.5786091220
1.5150000000	0.5075902641
1.5200000000	0.4608758942
1.5250000000	0.4311419674
1.5300000000	0.4075191351
1.5350000000	0.3902295761
1.5400000000	0.3775674906
1.5450000000	0.3684908749
1.5500000000	0.3623163948
1.5550000000	0.3586985523
1.5600000000	0.3582183815
1.5650000000	0.3595427239
1.5700000000	0.3638861629
1.5750000000	0.3720757147
1.5800000000	0.3857891878
1.5850000000	0.4083310383
1.5900000000	0.4466704676
1.5950000000	0.5161220585
1.6000000000	0.6485997331
1.6050000000	0.8630647076
1.6100000000	0.9582005261
1.6150000000	0.7739390424
1.6200000000	0.6073323025
1.6250000000	0.5247084443
1.6300000000	0.4885925880
1.6350000000	0.4756745050
1.6400000000	0.4755160493
1.6450000000	0.4833958774
1.6500000000	0.4970847777
1.6550000000	0.5156514174
1.6600000000	0.5387349141
1.6650000000	0.5663771672
1.6700000000	0.5988920750
1.6750000000	0.6368258456
1.6800000000	0.6809538240
1.6850000000	0.7323081684
1.6900000000	0.7922131532
1.6950000000	0.8619273696
1.7000000000	0.9441068442
1.7050000000	1.0435943088
1.7100000000	1.1661308818
1.7150000000	1.3401039881
1.7200000000	1.5811745033
1.7250000000	1.8734057932
1.7300000000	2.2404185127
1.7350000000	2.6326142597
1.7400000000	2.9788628379
1.7450000000	3.4094305122
1.7500000000	4.0774301107
1.7550000000	5.0858132943
1.7600000000	6.6021243935
1.7650000000	8.9428194159
1.7700000000	12.7132947076
1.7750000000	19.0618288250
1.7800000000	29.8690284395
1.7850000000	45.7815354867
1.7900000000	56.8149250877
1.7950000000	48.3022738401
1.8000000000	32.0875403899
1.8050000000	20.2207521094
1.8100000000	13.2989632177
1.8150000000	9.2444500370
1.8200000000	6.7500262161
1.8250000000	5.1327249023
1.8300000000	4.0338816625
1.8350000000	3.2570854058
1.8400000000	2.6896290314
1.8450000000	2.2630020248
1.8500000000	1.9339678159
1.8550000000	1.6754010664
1.8600000000	1.4681203174
1.8650000000	1.2988704282
1.8700000000	1.1578656952
1.8750000000	1.0374337049
1.8800000000	0.9308280826
1.8850000000	0.8312068470
1.8900000000	0.7298749180
1.8950000000	0.6136109904
1.9000000000	0.4601644049
1.9050000000	0.1989890473
1.9100000000	-0.1802566334
1.9150000000	-0.5887051664
1.9200000000	-0.4060961388
1.9250000000	0.7871278661
1.9300000000	1.7455738889
1.9350000000	1.8233723141
1.9400000000	1.5030574755
1.9450000000	1.1794063978
1.9500000000	0.9466914830
1.9550000000	0.7905552720
1.9600000000	0.6852117142
1.9650000000	0.6154688625
1.9700000000	0.5626539864
1.9750000000	0.5238921593
1.9800000000	0.4946966606
1.9850000000	0.4718980038
1.9900000000	0.4532376418
1.9950000000	0.4368860758
2.0000000000	0.4224020285
2.0050000000	0.4150222347
2.0100000000	0.4217929502
2.0150000000	0.4379807595
2.0200000000	0.4507233010
2.0250000000	0.4594116692
2.0300000000	0.4686882633
2.0350000000	0.4805557856
2.0400000000	0.4965426438
2.0450000000	0.5176437931
2.0500000000	0.5450553292
2.0550000000	0.5799902952
2.0600000000	0.6225064859
2.0650000000	0.6685648532
2.0700000000	0.7081451817
2.0750000000	0.7332891242
2.0800000000	0.7494297294
2.0850000000	0.7687014401
2.0900000000	0.7986162287
2.0950000000	0.8414701344
2.1000000000	0.8984981850
2.1050000000	0.9683959432
2.1100000000	1.0560401460
2.1150000000	1.1648162883
2.1200000000	1.2997489246
2.1250000000	1.4680609038
2.1300000000	1.6800509156
2.1350000000	1.9504903902
2.1400000000	2.3007308346
2.1450000000	2.7619814319
2.1500000000	3.3796738165
2.1550000000	4.2180217014
2.1600000000	5.3591261443
2.1650000000	6.8724174397
2.1700000000	8.7315963771
2.1750000000	10.5870757090
2.1800000000	11.7602397791
2.1850000000	11.8923180848
2.1900000000	11.4884739849
2.1950000000	11.2203692294
2.2000000000	11.1431669926
2.2050000000	10.6072555227
2.2100000000	9.3402942460
2.2150000000	7.7309690254
2.2200000000	6.2584844951
2.2250000000	5.0791137346
2.2300000000	4.1508580721
2.2350000000	3.4135798507
2.2400000000	2.8286354510
2.2450000000	2.3720761907
2.2500000000	2.0160137889
2.2550000000	1.7350835022
2.2600000000	1.5081134590
2.2650000000	1.3174885600
2.2700000000	1.1484085162
2.2750000000	0.9904860565
2.2800000000	0.8444568732
2.2850000000	0.7286538189
2.2900000000	0.6702318377
2.2950000000	0.6785498665
2.3000000000	0.7268193230
2.3050000000	0.7739916230
2.3100000000	0.7943534439
2.3150000000	0.7892102191
2.3200000000	0.7698199865
2.3250000000	0.7476757084
2.3300000000	0.7289881756
2.3350000000	0.7159100489
2.3400000000	0.7079956458
2.3450000000	0.7029411958
2.3500000000	0.6976709106
2.3550000000	0.6902178919
2.3600000000	0.6811276564
2.3650000000	0.6727859123
2.3700000000	0.6675577562
2.3750000000	0.6665989180
2.3800000000	0.6697132217
2.3850000000	0.6757146892
2.3900000000	0.6832821418
2.3950000000	0.6912856493
2.4000000000	0.7003996362
2.4050000000	0.7131365999
2.4100000000	0.7307737736
2.4150000000	0.7549307130
2.4200000000	0.7867089639
2.4250000000	0.8271106456
2.4300000000	0.8772598029
2.4350000000	0.9385653756
2.4400000000	1.0128401585
2.4450000000	1.1024229105
2.4500000000	1.2102901726
2.4550000000	1.3402076725
2.4600000000	1.4968254760
2.4650000000	1.6857700455
2.4700000000	1.9135587452
2.4750000000	2.1868257930
2.4800000000	2.5127471265
2.4850000000	2.8945495807
2.4900000000	3.3290731823
2.4950000000	3.8006014335
2.5000000000	4.2742184141
2.5050000000	4.7119539941
2.5100000000	4.9947424163
2.5150000000	5.0566524908
2.5200000000	4.8891595091
2.5250000000	4.5446687623
2.5300000000	4.1029076755
2.5350000000	3.6338081006
2.5400000000	3.1816641504
2.5450000000	2.7683675903
2.5500000000	2.4020986676
2.5550000000	2.0838966611
2.5600000000	1.8091449146
2.5650000000	1.5772412344
2.5700000000	1.3835585172
2.5750000000	1.2253579122
2.5800000000	1.1005003900
2.5850000000	1.0063360138
2.5900000000	0.9380809474
2.5950000000	0.8888097510
2.6000000000	0.8512789054
2.6050000000	0.8245113528
2.6100000000	0.8004765896
2.6150000000	0.7788790508
2.6200000000	0.7602584500
2.6250000000	0.7451454118
2.6300000000	0.7338603385
2.6350000000	0.7265421485
2.6400000000	0.7232637164
2.6450000000	0.7241073664
2.6500000000	0.7292498680
2.6550000000	0.7387209529
2.6600000000	0.7527690996
2.6650000000	0.7716138057
2.6700000000	0.7955137079
2.6750000000	0.8247756760
2.6800000000	0.8597412528
2.6850000000	0.9007834683
2.6900000000	0.9482628075
2.6950000000	1.0025060140
2.7000000000	1.0637394515
2.7050000000	1.1393364634
2.7100000000	1.2240657309
2.7150000000	1.3173456464
2.7200000000	1.4179190621
2.7250000000	1.5236917005
2.7300000000	1.6315833836
2.7350000000	1.7373976653
2.7400000000	1.8357536824
2.7450000000	1.9209710227
2.7500000000	1.9848037960
2.7550000000	2.0215880192
2.7600000000	2.0270697443
2.7650000000	2.0001546988
2.7700000000	1.9432943698
2.7750000000	1.8619892868
2.7800000000	1.7635345630
2.7850000000	1.6556909415
2.7900000000	1.5453914782
2.7950000000	1.4381869046
2.8000000000	1.3379924579
2.8050000000	1.2361098095
2.8100000000	1.1481605874
2.8150000000	1.0739441762
2.8200000000	1.0122940020
2.8250000000	0.9616596154
2.8300000000	0.9204856863
2.8350000000	0.8874466599
2.8400000000	0.8611333832
2.8450000000	0.8416407813
2.8500000000	0.8279361516
2.8550000000	0.8196347141
2.8600000000	0.8164642568
2.8650000000	0.8182097261
2.8700000000	0.8246796881
2.8750000000	0.8356782439
2.8800000000	0.8509787710
2.8850000000	0.8702994842
2.8900000000	0.8932934484
2.8950000000	0.9195369309
2.9000000000	0.9485273232
2.9050000000	0.9866097720
2.9100000000	1.0257084576
2.9150000000	1.0643155573
2.9200000000	1.1006178746
2.9250000000	1.1325130484
2.9300000000	1.1580251471
2.9350000000	1.1745236071
2.9400000000	1.1806907567
2.9450000000	1.1758518471
2.9500000000	1.1604040410
2.9550000000	1.1357566807
2.9600000000	1.1040563449
2.9650000000	1.0677932843
2.9700000000	1.0294111602
2.9750000000	0.9910302429
2.9800000000	0.9542949163
2.9850000000	0.9203523135
2.9900000000	0.8899083648
2.9950000000	0.8633226612
3.0000000000	0.8407111451
