# energy (eV)    P(omega), $W$ = 300 nm, $h$ = 300 nm, $s$ = 20 nm, $d/W = 5$, $E_{\rm e}$ = 200 keV
0.2000000000	0.0735897977
0.2050000000	0.0746925176
0.2100000000	0.0757235480
0.2150000000	0.0766852252
0.2200000000	0.0775795419
0.2250000000	0.0784081910
0.2300000000	0.0791724652
0.2350000000	0.0798732216
0.2400000000	0.0805107834
0.2450000000	0.0810849068
0.2500000000	0.0815946453
0.2550000000	0.0820381921
0.2600000000	0.0824128362
0.2650000000	0.0827146398
0.2700000000	0.0829382697
0.2750000000	0.0830766576
0.2800000000	0.0831206283
0.2850000000	0.0830583858
0.2900000000	0.0828748197
0.2950000000	0.0825507583
0.3000000000	0.0820617105
0.3050000000	0.0813764686
0.3100000000	0.0804550784
0.3150000000	0.0850289327
0.3200000000	0.0904609737
0.3250000000	0.0973314298
0.3300000000	0.1065324849
0.3350000000	0.1179854320
0.3400000000	0.1329832440
0.3450000000	0.1511740535
0.3500000000	0.1749704349
0.3550000000	0.2064567925
0.3600000000	0.2475674484
0.3650000000	0.3048789938
0.3700000000	0.3804463329
0.3750000000	0.4855608614
0.3800000000	0.6375830085
0.3850000000	0.8744580860
0.3900000000	1.2486609333
0.3950000000	1.8842772495
0.4000000000	3.0959685378
0.4050000000	5.8125124292
0.4100000000	13.2248338389
0.4150000000	42.4410727100
0.4200000000	27.0412852516
0.4250000000	-50.8975176830
0.4300000000	14.1529169147
0.4350000000	8.8193324894
0.4400000000	5.3911358760
0.4450000000	3.5458001634
0.4500000000	2.4834989227
0.4550000000	1.8297729488
0.4600000000	1.4040093868
0.4650000000	1.1138786414
0.4700000000	0.9088204435
0.4750000000	0.7605182700
0.4800000000	0.6505644758
0.4850000000	0.5678267238
0.4900000000	0.5046701770
0.4950000000	0.4559695914
0.5000000000	0.4182216904
0.5050000000	0.3888561793
0.5100000000	0.3662179356
0.5150000000	0.3490884197
0.5200000000	0.3361941562
0.5250000000	0.3269611905
0.5300000000	0.3207736176
0.5350000000	0.3171809642
0.5400000000	0.3158511161
0.5450000000	0.3165066349
0.5500000000	0.3190596427
0.5550000000	0.3233537211
0.5600000000	0.3293088902
0.5650000000	0.3368891891
0.5700000000	0.3460618330
0.5750000000	0.3568908873
0.5800000000	0.3694805091
0.5850000000	0.3838986323
0.5900000000	0.4002769838
0.5950000000	0.4187813097
0.6000000000	0.4396227418
0.6050000000	0.4631073582
0.6100000000	0.4895271336
0.6150000000	0.5192810118
0.6200000000	0.5529011659
0.6250000000	0.5908978178
0.6300000000	0.6340251370
0.6350000000	0.6832230882
0.6400000000	0.7394696886
0.6450000000	0.8041766904
0.6500000000	0.8792002734
0.6550000000	0.9664726530
0.6600000000	1.0689635914
0.6650000000	1.1904835904
0.6700000000	1.3355124492
0.6750000000	1.5108815301
0.6800000000	1.7257775797
0.6850000000	1.9922351189
0.6900000000	2.3288934453
0.6950000000	2.7618210658
0.7000000000	3.3324277702
0.7050000000	4.1040182643
0.7100000000	5.1838544744
0.7150000000	6.7628747422
0.7200000000	9.1965472032
0.7250000000	13.2362772461
0.7300000000	20.6512368555
0.7350000000	36.5170848535
0.7400000000	80.0295685284
0.7450000000	265.4961050666
0.7500000000	822.5067529653
0.7550000000	206.9190192884
0.7600000000	68.5266718848
0.7650000000	32.8340194800
0.7700000000	19.0950580037
0.7750000000	12.4627831147
0.7800000000	8.7705697378
0.7850000000	6.5138947296
0.7900000000	5.0325058711
0.7950000000	4.0108260332
0.8000000000	3.2763782980
0.8050000000	2.7293789895
0.8100000000	2.3122618864
0.8150000000	1.9816068395
0.8200000000	1.7206448512
0.8250000000	1.5105215213
0.8300000000	1.3383977115
0.8350000000	1.1968802382
0.8400000000	1.0782474434
0.8450000000	0.9786992236
0.8500000000	0.8945523476
0.8550000000	0.8219371734
0.8600000000	0.7599480580
0.8650000000	0.7069989399
0.8700000000	0.6602140690
0.8750000000	0.6204169165
0.8800000000	0.5866482539
0.8850000000	0.5563727880
0.8900000000	0.5320869232
0.8950000000	0.5099942558
0.9000000000	0.4924852620
0.9050000000	0.4804276774
0.9100000000	0.4693781011
0.9150000000	0.4626769018
0.9200000000	0.4618733812
0.9250000000	0.4612782264
0.9300000000	0.4545145398
0.9350000000	0.4342118039
0.9400000000	0.3210937933
0.9450000000	-0.1930703477
0.9500000000	-2.9065419802
0.9550000000	-16.6697452631
0.9600000000	3.9334743803
0.9650000000	6.9097392295
0.9700000000	3.0647338149
0.9750000000	1.6089117316
0.9800000000	1.0083263011
0.9850000000	0.7274307959
0.9900000000	0.5655846637
0.9950000000	0.4674449962
1.0000000000	0.4047825529
1.0050000000	0.3650562309
1.0100000000	0.3342583637
1.0150000000	0.3117585471
1.0200000000	0.2966037921
1.0250000000	0.2838834540
1.0300000000	0.2742199670
1.0350000000	0.2669095307
1.0400000000	0.2622618472
1.0450000000	0.2583970964
1.0500000000	0.2558475526
1.0550000000	0.2544622578
1.0600000000	0.2545823873
1.0650000000	0.2552583391
1.0700000000	0.2568772508
1.0750000000	0.2594458536
1.0800000000	0.2632181730
1.0850000000	0.2680053762
1.0900000000	0.2750673195
1.0950000000	0.2834538168
1.1000000000	0.2934463054
1.1050000000	0.3049628226
1.1100000000	0.3183672035
1.1150000000	0.3339608260
1.1200000000	0.3521010441
1.1250000000	0.3732546440
1.1300000000	0.3980472523
1.1350000000	0.4272575850
1.1400000000	0.4617724931
1.1450000000	0.5032108269
1.1500000000	0.5533330276
1.1550000000	0.6146840836
1.1600000000	0.6908545087
1.1650000000	0.7865032630
1.1700000000	0.9103576622
1.1750000000	1.0740036215
1.1800000000	1.2965944123
1.1850000000	1.6096132265
1.1900000000	2.0723953378
1.1950000000	2.7988681527
1.2000000000	4.0310675226
1.2050000000	6.3595973069
1.2100000000	11.4819004100
1.2150000000	25.3274705741
1.2200000000	62.1587903583
1.2250000000	55.8462517879
1.2300000000	22.2770708408
1.2350000000	10.4485370746
1.2400000000	5.9681768829
1.2450000000	3.9110320481
1.2500000000	2.8258183066
1.2550000000	2.1995362735
1.2600000000	1.8184606523
1.2650000000	1.5797873207
1.2700000000	1.4375052047
1.2750000000	1.3617822325
1.2800000000	1.3384208892
1.2850000000	1.3612246873
1.2900000000	1.4297022862
1.2950000000	1.5474170224
1.3000000000	1.7288972473
1.3050000000	1.9927752114
1.3100000000	2.3737829748
1.3150000000	2.9320138841
1.3200000000	3.7754978673
1.3250000000	5.1101394836
1.3300000000	7.3868864674
1.3350000000	11.6512648548
1.3400000000	20.7654836901
1.3450000000	43.3917223934
1.3500000000	92.0881715464
1.3550000000	85.8857991765
1.3600000000	39.6061476175
1.3650000000	19.4599657821
1.3700000000	11.1600677411
1.3750000000	7.1769365398
1.3800000000	5.0051161869
1.3850000000	3.6968353490
1.3900000000	2.8536339131
1.3950000000	2.2783450489
1.4000000000	1.8691337584
1.4050000000	1.5685824078
1.4100000000	1.3419173666
1.4150000000	1.1683678073
1.4200000000	1.0332847590
1.4250000000	0.9327912744
1.4300000000	0.8689227863
1.4350000000	0.8268119657
1.4400000000	0.5686243497
1.4450000000	-0.1467330599
1.4500000000	-1.3912975553
1.4550000000	-0.4647274463
1.4600000000	1.4156770739
1.4650000000	0.8199598130
1.4700000000	-0.5238142819
1.4750000000	-2.6498212080
1.4800000000	-1.1690889185
1.4850000000	2.0028655119
1.4900000000	1.6213811993
1.4950000000	1.0519390978
1.5000000000	0.7406157232
1.5050000000	0.5720812340
1.5100000000	0.4756072365
1.5150000000	0.4164570716
1.5200000000	0.3777144296
1.5250000000	0.3531234069
1.5300000000	0.3337448172
1.5350000000	0.3196671645
1.5400000000	0.3094687112
1.5450000000	0.3023016265
1.5500000000	0.2975796601
1.5550000000	0.2950584242
1.5600000000	0.2952425424
1.5650000000	0.2971121361
1.5700000000	0.3017545313
1.5750000000	0.3100234197
1.5800000000	0.3236193519
1.5850000000	0.3458911441
1.5900000000	0.3839235238
1.5950000000	0.4533789587
1.6000000000	0.5872662456
1.6050000000	0.8070091116
1.6100000000	0.9094905264
1.6150000000	0.7243123594
1.6200000000	0.5526090289
1.6250000000	0.4653468340
1.6300000000	0.4253179282
1.6350000000	0.4088446076
1.6400000000	0.4052020093
1.6450000000	0.4094847751
1.6500000000	0.4193054322
1.6550000000	0.4336841586
1.6600000000	0.4521219619
1.6650000000	0.4745524307
1.6700000000	0.5011623186
1.6750000000	0.5323356039
1.6800000000	0.5686334600
1.6850000000	0.6108048517
1.6900000000	0.6597199738
1.6950000000	0.7158834607
1.7000000000	0.7805326436
1.7050000000	0.8553283885
1.7100000000	0.9459831415
1.7150000000	1.0983845792
1.7200000000	1.3285845115
1.7250000000	1.5773862078
1.7300000000	1.8732058421
1.7350000000	2.1932730812
1.7400000000	2.4887757653
1.7450000000	2.8612048499
1.7500000000	3.4321118722
1.7550000000	4.2884022065
1.7600000000	5.5731110168
1.7650000000	7.5550909214
1.7700000000	10.7478418711
1.7750000000	16.1253760435
1.7800000000	25.2842614727
1.7850000000	38.7809300338
1.7900000000	48.1624744875
1.7950000000	40.9787015589
1.8000000000	27.2462779668
1.8050000000	17.1866993335
1.8100000000	11.3158981700
1.8150000000	7.8757236652
1.8200000000	5.7587511123
1.8250000000	4.3860669800
1.8300000000	3.4535534039
1.8350000000	2.7946369236
1.8400000000	2.3137097387
1.8450000000	1.9527018959
1.8500000000	1.6749782663
1.8550000000	1.4575693511
1.8600000000	1.2843195034
1.8650000000	1.1441240377
1.8700000000	1.0288917639
1.8750000000	0.9324168261
1.8800000000	0.8494174715
1.8850000000	0.7747448435
1.8900000000	0.7020272562
1.8950000000	0.6216125981
1.9000000000	0.5171457353
1.9050000000	0.3352507616
1.9100000000	0.0740536609
1.9150000000	-0.1772974107
1.9200000000	0.1271600177
1.9250000000	1.3437985870
1.9300000000	2.3156864913
1.9350000000	2.3373296631
1.9400000000	1.8762247645
1.9450000000	1.4219224231
1.9500000000	1.0999308346
1.9550000000	0.8869506233
1.9600000000	0.7450247213
1.9650000000	0.6504536605
1.9700000000	0.5808389073
1.9750000000	0.5297916562
1.9800000000	0.4910470990
1.9850000000	0.4601125218
1.9900000000	0.4336435040
1.9950000000	0.4088049904
2.0000000000	0.3850875609
2.0050000000	0.3709837369
2.0100000000	0.3804637113
2.0150000000	0.4051862023
2.0200000000	0.4218879602
2.0250000000	0.4291442953
2.0300000000	0.4346747004
2.0350000000	0.4420509722
2.0400000000	0.4530095875
2.0450000000	0.4682869614
2.0500000000	0.4886314006
2.0550000000	0.5147870029
2.0600000000	0.5467963754
2.0650000000	0.5821065149
2.0700000000	0.6143622192
2.0750000000	0.6386008313
2.0800000000	0.6585130803
2.0850000000	0.6821187964
2.0900000000	0.7145196179
2.0950000000	0.7574845475
2.1000000000	0.8123694895
2.1050000000	0.8783480104
2.1100000000	0.9600169848
2.1150000000	1.0606715075
2.1200000000	1.1850503041
2.1250000000	1.3398772332
2.1300000000	1.5346791834
2.1350000000	1.7830870928
2.1400000000	2.1047876881
2.1450000000	2.5285568634
2.1500000000	3.0962994970
2.1550000000	3.8672853586
2.1600000000	4.9173466130
2.1650000000	6.3107479683
2.1700000000	8.0229934870
2.1750000000	9.7303720078
2.1800000000	10.8026196850
2.1850000000	10.9030808137
2.1900000000	10.4959252157
2.1950000000	10.2070580180
2.2000000000	10.1061315463
2.2050000000	9.6313031016
2.2100000000	8.5421559526
2.2150000000	7.1717660058
2.2200000000	5.9253238934
2.2250000000	4.9153152588
2.2300000000	4.0860966334
2.2350000000	3.3920659835
2.2400000000	2.8221908767
2.2450000000	2.3721986305
2.2500000000	2.0234801490
2.2550000000	1.7535969911
2.2600000000	1.5417759835
2.2650000000	1.3692912894
2.2700000000	1.2184160938
2.2750000000	1.0741681624
2.2800000000	0.9330655530
2.2850000000	0.8123350010
2.2900000000	0.7413221559
2.2950000000	0.7331834719
2.3000000000	0.7652699636
2.3050000000	0.7990865511
2.3100000000	0.8110341336
2.3150000000	0.8018544479
2.3200000000	0.7817507066
2.3250000000	0.7612096983
2.3300000000	0.7457987460
2.3350000000	0.7371430502
2.3400000000	0.7340197417
2.3450000000	0.7328711399
2.3500000000	0.7291147482
2.3550000000	0.7198231343
2.3600000000	0.7058061977
2.3650000000	0.6906347485
2.3700000000	0.6779381565
2.3750000000	0.6697336865
2.3800000000	0.6663452326
2.3850000000	0.6669624467
2.3900000000	0.6705502391
2.3950000000	0.6761165828
2.4000000000	0.6841554928
2.4050000000	0.6967645512
2.4100000000	0.7148350440
2.4150000000	0.7395978374
2.4200000000	0.7719017289
2.4250000000	0.8126568545
2.4300000000	0.8629801620
2.4350000000	0.9243036262
2.4400000000	0.9984701283
2.4450000000	1.0878426993
2.4500000000	1.1954162641
2.4550000000	1.3249696397
2.4600000000	1.4811492947
2.4650000000	1.6695567526
2.4700000000	1.8966377847
2.4750000000	2.1688917279
2.4800000000	2.4931773006
2.4850000000	2.8723431169
2.4900000000	3.3028365590
2.4950000000	3.7689538502
2.5000000000	4.2367924420
2.5050000000	4.6703990297
2.5100000000	4.9547113262
2.5150000000	5.0251858352
2.5200000000	4.8710333270
2.5250000000	4.5400624631
2.5300000000	4.1082402359
2.5350000000	3.6444844205
2.5400000000	3.1942772846
2.5450000000	2.7813529124
2.5500000000	2.4152685886
2.5550000000	2.0976657389
2.5600000000	1.8240139372
2.5650000000	1.5933170043
2.5700000000	1.4006767398
2.5750000000	1.2431335715
2.5800000000	1.1184250017
2.5850000000	1.0238811862
2.5900000000	0.9548337640
2.5950000000	0.9045823649
2.6000000000	0.8661229953
2.6050000000	0.8386803230
2.6100000000	0.8143497084
2.6150000000	0.7928048123
2.6200000000	0.7745514420
2.6250000000	0.7601081560
2.6300000000	0.7498075146
2.6350000000	0.7438089261
2.6400000000	0.7421963521
2.6450000000	0.7450550037
2.6500000000	0.7525599823
2.6550000000	0.7647504056
2.6600000000	0.7818938417
2.6650000000	0.8042448124
2.6700000000	0.8321031370
2.6750000000	0.8658193906
2.6800000000	0.9057683808
2.6850000000	0.9523337453
2.6900000000	1.0058548576
2.6950000000	1.0665914864
2.7000000000	1.1346391372
2.7050000000	1.2179599227
2.7100000000	1.3102191194
2.7150000000	1.4102909107
2.7200000000	1.5162834831
2.7250000000	1.6255065735
2.7300000000	1.7344777364
2.7350000000	1.8389344542
2.7400000000	1.9338060782
2.7450000000	2.0140327296
2.7500000000	2.0721007164
2.7550000000	2.1030364354
2.7600000000	2.1030838430
2.7650000000	2.0714156509
2.7700000000	2.0105542671
2.7750000000	1.9259462170
2.7800000000	1.8247799859
2.7850000000	1.7147013881
2.7900000000	1.6025602041
2.7950000000	1.4938468163
2.8000000000	1.3924460877
2.8050000000	1.2894489466
2.8100000000	1.2007856920
2.8150000000	1.1262578965
2.8200000000	1.0647013247
2.8250000000	1.0145681326
2.8300000000	0.9742971244
2.8350000000	0.9425593800
2.8400000000	0.9179412744
2.8450000000	0.9005288182
2.8500000000	0.8892835222
2.8550000000	0.8838126985
2.8600000000	0.8838268204
2.8650000000	0.8890801770
2.8700000000	0.8993332565
2.8750000000	0.9143124773
2.8800000000	0.9336837336
2.8850000000	0.9570236172
2.8900000000	0.9838267745
2.8950000000	1.0134943053
2.9000000000	1.0453674300
2.9050000000	1.0856723915
2.9100000000	1.1259540656
2.9150000000	1.1647741934
2.9200000000	1.2004815352
2.9250000000	1.2311706192
2.9300000000	1.2550664804
2.9350000000	1.2696796836
2.9400000000	1.2738239618
2.9450000000	1.2669196870
2.9500000000	1.2494403295
2.9550000000	1.2228724919
2.9600000000	1.1894271960
2.9650000000	1.1516500242
2.9700000000	1.1120308997
2.9750000000	1.0727167449
2.9800000000	1.0353677454
2.9850000000	1.0011312517
2.9900000000	0.9707142610
2.9950000000	0.9444595844
3.0000000000	0.9224666286
