# energy (eV)    P(omega), $W$ = 300 nm, $h$ = 300 nm, $s$ = 20 nm, $d/W = 5$, $E_{\rm e}$ = 200 keV
0.2000000000	0.0544716366
0.2050000000	0.0553011366
0.2100000000	0.0560719847
0.2150000000	0.0567861393
0.2200000000	0.0574453635
0.2250000000	0.0580511131
0.2300000000	0.0586045506
0.2350000000	0.0591064853
0.2400000000	0.0595573292
0.2450000000	0.0599570248
0.2500000000	0.0603049885
0.2550000000	0.0605999647
0.2600000000	0.0608399998
0.2650000000	0.0610221899
0.2700000000	0.0611425882
0.2750000000	0.0611959094
0.2800000000	0.0611752613
0.2850000000	0.0610717483
0.2900000000	0.0608739925
0.2950000000	0.0605674966
0.3000000000	0.0601337579
0.3050000000	0.0595491965
0.3100000000	0.0587836108
0.3150000000	0.0622455720
0.3200000000	0.0663568930
0.3250000000	0.0715605073
0.3300000000	0.0785357523
0.3350000000	0.0872155712
0.3400000000	0.0985815224
0.3450000000	0.1123550678
0.3500000000	0.1303656869
0.3550000000	0.1541846052
0.3600000000	0.1852607829
0.3650000000	0.2285619436
0.3700000000	0.2855998535
0.3750000000	0.3648784586
0.3800000000	0.4794509469
0.3850000000	0.6578601432
0.3900000000	0.9394828429
0.3950000000	1.4174799901
0.4000000000	2.3280615343
0.4050000000	4.3681216546
0.4100000000	9.9304232198
0.4150000000	31.8382456975
0.4200000000	20.2990706379
0.4250000000	-38.1023870503
0.4300000000	10.5745171299
0.4350000000	6.5809881297
0.4400000000	4.0169746715
0.4450000000	2.6378343867
0.4500000000	1.8444495598
0.4550000000	1.3565200704
0.4600000000	1.0389248314
0.4650000000	0.8226204621
0.4700000000	0.6698117747
0.4750000000	0.5593346703
0.4800000000	0.4774415661
0.4850000000	0.4158188035
0.4900000000	0.3687680701
0.4950000000	0.3324657432
0.5000000000	0.3042977927
0.5050000000	0.2823483447
0.5100000000	0.2653816263
0.5150000000	0.2524869395
0.5200000000	0.2427184171
0.5250000000	0.2356446672
0.5300000000	0.2308070537
0.5350000000	0.2278687009
0.5400000000	0.2265809112
0.5450000000	0.2267360282
0.5500000000	0.2282642159
0.5550000000	0.2310471120
0.5600000000	0.2350216361
0.5650000000	0.2401576385
0.5700000000	0.2464260402
0.5750000000	0.2538696721
0.5800000000	0.2625578469
0.5850000000	0.2725348756
0.5900000000	0.2838896907
0.5950000000	0.2967361698
0.6000000000	0.3112188360
0.6050000000	0.3275509343
0.6100000000	0.3459332056
0.6150000000	0.3666421409
0.6200000000	0.3900468551
0.6250000000	0.4165008441
0.6300000000	0.4465276880
0.6350000000	0.4807797465
0.6400000000	0.5199349361
0.6450000000	0.5649734500
0.6500000000	0.6171830364
0.6550000000	0.6779034437
0.6600000000	0.7491956877
0.6650000000	0.8337014444
0.6700000000	0.9345258415
0.6750000000	1.0564064420
0.6800000000	1.2057111330
0.6850000000	1.3907785730
0.6900000000	1.6245231282
0.6950000000	1.9250025079
0.7000000000	2.3208964382
0.7050000000	2.8560372951
0.7100000000	3.6046795975
0.7150000000	4.6989864037
0.7200000000	6.3849358493
0.7250000000	9.1823913521
0.7300000000	14.3150918325
0.7350000000	25.2930477336
0.7400000000	55.3875512441
0.7450000000	183.6012353131
0.7500000000	568.3451182981
0.7550000000	142.8655786170
0.7600000000	47.2759330792
0.7650000000	22.6337863864
0.7700000000	13.1524236782
0.7750000000	8.5773062482
0.7800000000	6.0313402708
0.7850000000	4.4758555846
0.7900000000	3.4551568973
0.7950000000	2.7514719187
0.8000000000	2.2458068242
0.8050000000	1.8693389936
0.8100000000	1.5823660936
0.8150000000	1.3549769969
0.8200000000	1.1755739634
0.8250000000	1.0311675322
0.8300000000	0.9129172688
0.8350000000	0.8157178939
0.8400000000	0.7342603228
0.8450000000	0.6659225331
0.8500000000	0.6081645979
0.8550000000	0.5583366940
0.8600000000	0.5158022633
0.8650000000	0.4794656187
0.8700000000	0.4473682650
0.8750000000	0.4200521703
0.8800000000	0.3968558701
0.8850000000	0.3760611166
0.8900000000	0.3593394388
0.8950000000	0.3441289647
0.9000000000	0.3320287576
0.9050000000	0.3236107589
0.9100000000	0.3158907489
0.9150000000	0.3111021289
0.9200000000	0.3102728515
0.9250000000	0.3096007949
0.9300000000	0.3048495401
0.9350000000	0.2911581447
0.9400000000	0.2159292569
0.9450000000	-0.1250562509
0.9500000000	-1.9225930666
0.9550000000	-11.0328796964
0.9600000000	2.6021341346
0.9650000000	4.5672178577
0.9700000000	2.0247708749
0.9750000000	1.0628220694
0.9800000000	0.6661916937
0.9850000000	0.4807362131
0.9900000000	0.3739316552
0.9950000000	0.3091872723
1.0000000000	0.2678532005
1.0050000000	0.2416361996
1.0100000000	0.2213314505
1.0150000000	0.2065037052
1.0200000000	0.1965100881
1.0250000000	0.1881406823
1.0300000000	0.1817934900
1.0350000000	0.1770053365
1.0400000000	0.1739710581
1.0450000000	0.1714718274
1.0500000000	0.1698507087
1.0550000000	0.1690089342
1.0600000000	0.1691646255
1.0650000000	0.1697098760
1.0700000000	0.1708942042
1.0750000000	0.1727228085
1.0800000000	0.1753604129
1.0850000000	0.1787052506
1.0900000000	0.1836075278
1.0950000000	0.1894218879
1.1000000000	0.1963372919
1.1050000000	0.2043209895
1.1100000000	0.2136178403
1.1150000000	0.2244390496
1.1200000000	0.2370271574
1.1250000000	0.2517330224
1.1300000000	0.2689869464
1.1350000000	0.2893381000
1.1400000000	0.3134030923
1.1450000000	0.3423441532
1.1500000000	0.3773950218
1.1550000000	0.4203529979
1.1600000000	0.4737539384
1.1650000000	0.5408794682
1.1700000000	0.6279176306
1.1750000000	0.7430472743
1.1800000000	0.8998019551
1.1850000000	1.1204361988
1.1900000000	1.4468435148
1.1950000000	1.9595659838
1.2000000000	2.8295593708
1.2050000000	4.4739372709
1.2100000000	8.0912392339
1.2150000000	17.8661473688
1.2200000000	43.8533137553
1.2250000000	39.3618866448
1.2300000000	15.6654356409
1.2350000000	7.3191600925
1.2400000000	4.1572808090
1.2450000000	2.7038815012
1.2500000000	1.9351570531
1.2550000000	1.4891929158
1.2600000000	1.2151546927
1.2650000000	1.0404238226
1.2700000000	0.9322070043
1.2750000000	0.8691890911
1.2800000000	0.8408884518
1.2850000000	0.8422870848
1.2900000000	0.8720983645
1.2950000000	0.9316355667
1.3000000000	1.0288951950
1.3050000000	1.1739954813
1.3100000000	1.3864406291
1.3150000000	1.7001406035
1.3200000000	2.1763091604
1.3250000000	2.9314358980
1.3300000000	4.2214757659
1.3350000000	6.6390483598
1.3400000000	11.8065150724
1.3450000000	24.6318746297
1.3500000000	52.2192352073
1.3550000000	48.6690397589
1.3600000000	22.4353534567
1.3650000000	11.0221852878
1.3700000000	6.3216439706
1.3750000000	4.0662646365
1.3800000000	2.8365872807
1.3850000000	2.0957577924
1.3900000000	1.6180715270
1.3950000000	1.2919917154
1.4000000000	1.0597097458
1.4050000000	0.8886724606
1.4100000000	0.7589884708
1.4150000000	0.6584753332
1.4200000000	0.5780675549
1.4250000000	0.5136647720
1.4300000000	0.4615636818
1.4350000000	0.4085882124
1.4400000000	0.2408720761
1.4450000000	-0.1934596470
1.4500000000	-0.9880172443
1.4550000000	-0.3588302577
1.4600000000	0.9014813312
1.4650000000	0.5485752911
1.4700000000	-0.2340914989
1.4750000000	-1.4305526501
1.4800000000	-0.6235481552
1.4850000000	1.1229876552
1.4900000000	0.9085077534
1.4950000000	0.5919553700
1.5000000000	0.4186872192
1.5050000000	0.3245622663
1.5100000000	0.2706012868
1.5150000000	0.2373879870
1.5200000000	0.2155412130
1.5250000000	0.2016357396
1.5300000000	0.1905882924
1.5350000000	0.1825027974
1.5400000000	0.1765815197
1.5450000000	0.1723371697
1.5500000000	0.1694502080
1.5550000000	0.1677591075
1.5600000000	0.1675356802
1.5650000000	0.1681565698
1.5700000000	0.1701900040
1.5750000000	0.1740230982
1.5800000000	0.1804411364
1.5850000000	0.1909907131
1.5900000000	0.2089336211
1.5950000000	0.2414375395
1.6000000000	0.3034391561
1.6050000000	0.4038129594
1.6100000000	0.4483373633
1.6150000000	0.3620949773
1.6200000000	0.2841146153
1.6250000000	0.2454400852
1.6300000000	0.2285321075
1.6350000000	0.2224807692
1.6400000000	0.2224006383
1.6450000000	0.2260819003
1.6500000000	0.2324811263
1.6550000000	0.2411622889
1.6600000000	0.2519563401
1.6650000000	0.2648827110
1.6700000000	0.2800880984
1.6750000000	0.2978278743
1.6800000000	0.3184645943
1.6850000000	0.3424809147
1.6900000000	0.3704961082
1.6950000000	0.4030986848
1.7000000000	0.4415306165
1.7050000000	0.4880563108
1.7100000000	0.5453606438
1.7150000000	0.6267222699
1.7200000000	0.7394664134
1.7250000000	0.8761347056
1.7300000000	1.0477743412
1.7350000000	1.2311911284
1.7400000000	1.3931201079
1.7450000000	1.5944825265
1.7500000000	1.9068841784
1.7550000000	2.3784721581
1.7600000000	3.0876014620
1.7650000000	4.1822682052
1.7700000000	5.9455964307
1.7750000000	8.9145983470
1.7800000000	13.9687718202
1.7850000000	21.4105291511
1.7900000000	26.5704807920
1.7950000000	22.5893892188
1.8000000000	15.0062883562
1.8050000000	9.4565804870
1.8100000000	6.2194871015
1.8150000000	4.3233246401
1.8200000000	3.1567647996
1.8250000000	2.4004063480
1.8300000000	1.8865137123
1.8350000000	1.5232318633
1.8400000000	1.2578514066
1.8450000000	1.0583322204
1.8500000000	0.9044540014
1.8550000000	0.7835311210
1.8600000000	0.6865930591
1.8650000000	0.6074408327
1.8700000000	0.5414980108
1.8750000000	0.4851764859
1.8800000000	0.4353212413
1.8850000000	0.3887325678
1.8900000000	0.3413441551
1.8950000000	0.2869729812
1.9000000000	0.2152133882
1.9050000000	0.0930739244
1.9100000000	-0.0842811832
1.9150000000	-0.2752904810
1.9200000000	-0.1898779101
1.9250000000	0.3681687917
1.9300000000	0.8164137751
1.9350000000	0.8527933082
1.9400000000	0.7029771359
1.9450000000	0.5516016858
1.9500000000	0.4427586000
1.9550000000	0.3697324138
1.9600000000	0.3204625239
1.9650000000	0.2878432727
1.9700000000	0.2631415317
1.9750000000	0.2450124637
1.9800000000	0.2313575824
1.9850000000	0.2206944794
1.9900000000	0.2119667946
1.9950000000	0.2043188294
2.0000000000	0.1975441998
2.0050000000	0.1940922545
2.0100000000	0.1972589157
2.0150000000	0.2048302070
2.0200000000	0.2107898968
2.0250000000	0.2148531447
2.0300000000	0.2191913280
2.0350000000	0.2247411924
2.0400000000	0.2322175642
2.0450000000	0.2420857580
2.0500000000	0.2549051476
2.0550000000	0.2712430299
2.0600000000	0.2911264276
2.0650000000	0.3126663859
2.0700000000	0.3311767343
2.0750000000	0.3429355814
2.0800000000	0.3504838062
2.0850000000	0.3594963332
2.0900000000	0.3734862874
2.0950000000	0.3935274501
2.1000000000	0.4201973957
2.1050000000	0.4528860689
2.1100000000	0.4938741519
2.1150000000	0.5447449196
2.1200000000	0.6078481772
2.1250000000	0.6865617984
2.1300000000	0.7857021235
2.1350000000	0.9121772295
2.1400000000	1.0759724821
2.1450000000	1.2916833272
2.1500000000	1.5805565643
2.1550000000	1.9726227183
2.1600000000	2.5062775882
2.1650000000	3.2139912665
2.1700000000	4.0834643620
2.1750000000	4.9512067014
2.1800000000	5.4998527273
2.1850000000	5.5616175755
2.1900000000	5.3727487582
2.1950000000	5.2473598516
2.2000000000	5.2112504299
2.2050000000	4.9606231881
2.2100000000	4.3681151452
2.2150000000	3.6154988185
2.2200000000	2.9268781831
2.2250000000	2.3753341465
2.2300000000	1.9412241832
2.2350000000	1.5964247183
2.2400000000	1.3228652038
2.2450000000	1.1093469260
2.2500000000	0.9428280173
2.2550000000	0.8114463734
2.2600000000	0.7053005832
2.2650000000	0.6161525203
2.2700000000	0.5370803275
2.2750000000	0.4632258567
2.2800000000	0.3949328610
2.2850000000	0.3407749830
2.2900000000	0.3134519228
2.2950000000	0.3173408294
2.3000000000	0.3399137846
2.3050000000	0.3619738172
2.3100000000	0.3714957711
2.3150000000	0.3690901354
2.3200000000	0.3600218777
2.3250000000	0.3496658278
2.3300000000	0.3409265316
2.3350000000	0.3348106806
2.3400000000	0.3311097794
2.3450000000	0.3287463230
2.3500000000	0.3262817368
2.3550000000	0.3227960813
2.3600000000	0.3185444962
2.3650000000	0.3146427923
2.3700000000	0.3121971464
2.3750000000	0.3117481207
2.3800000000	0.3132040109
2.3850000000	0.3160102028
2.3900000000	0.3195488449
2.3950000000	0.3232915159
2.4000000000	0.3275536139
2.4050000000	0.3335101230
2.4100000000	0.3417583475
2.4150000000	0.3530556753
2.4200000000	0.3679172420
2.4250000000	0.3868116970
2.4300000000	0.4102647149
2.4350000000	0.4389352083
2.4400000000	0.4736709598
2.4450000000	0.5155657271
2.4500000000	0.5660115370
2.4550000000	0.6267694914
2.4600000000	0.7000142652
2.4650000000	0.7883771557
2.4700000000	0.8949061154
2.4750000000	1.0227037164
2.4800000000	1.1751258753
2.4850000000	1.3536816460
2.4900000000	1.5568931847
2.4950000000	1.7774104047
2.5000000000	1.9989044030
2.5050000000	2.2036179876
2.5100000000	2.3358684450
2.5150000000	2.3648221177
2.5200000000	2.2864921408
2.5250000000	2.1253863591
2.5300000000	1.9187903049
2.5350000000	1.6994086602
2.5400000000	1.4879563631
2.5450000000	1.2946715945
2.5500000000	1.1233800732
2.5550000000	0.9745678705
2.5600000000	0.8460759357
2.5650000000	0.7376226064
2.5700000000	0.6470439151
2.5750000000	0.5730589698
2.5800000000	0.5146674061
2.5850000000	0.4706299349
2.5900000000	0.4387093257
2.5950000000	0.4156668063
2.6000000000	0.3981148523
2.6050000000	0.3855965440
2.6100000000	0.3743563008
2.6150000000	0.3642558913
2.6200000000	0.3555477139
2.6250000000	0.3484799166
2.6300000000	0.3432023358
2.6350000000	0.3397799359
2.6400000000	0.3382467988
2.6450000000	0.3386414266
2.6500000000	0.3410464927
2.6550000000	0.3454759085
2.6600000000	0.3520458836
2.6650000000	0.3608590762
2.6700000000	0.3720364465
2.6750000000	0.3857215103
2.6800000000	0.4020739976
2.6850000000	0.4212683604
2.6900000000	0.4434731797
2.6950000000	0.4688412551
2.7000000000	0.4974784348
2.7050000000	0.5328330118
2.7100000000	0.5724583954
2.7150000000	0.6160825416
2.7200000000	0.6631174749
2.7250000000	0.7125837221
2.7300000000	0.7630407702
2.7350000000	0.8125260806
2.7400000000	0.8585232418
2.7450000000	0.8983757863
2.7500000000	0.9282274700
2.7550000000	0.9454295157
2.7600000000	0.9479925580
2.7650000000	0.9354048748
2.7700000000	0.9088129445
2.7750000000	0.8707891676
2.7800000000	0.8247451941
2.7850000000	0.7743104343
2.7900000000	0.7227272135
2.7950000000	0.6725913990
2.8000000000	0.6257340014
2.8050000000	0.5780871151
2.8100000000	0.5369564213
2.8150000000	0.5022480969
2.8200000000	0.4734165774
2.8250000000	0.4497367726
2.8300000000	0.4304813094
2.8350000000	0.4150302729
2.8400000000	0.4027246526
2.8450000000	0.3936088387
2.8500000000	0.3871998739
2.8550000000	0.3833178090
2.8600000000	0.3818353390
2.8650000000	0.3826518890
2.8700000000	0.3856779274
2.8750000000	0.3908218344
2.8800000000	0.3979776163
2.8850000000	0.4070134822
2.8900000000	0.4177671692
2.8950000000	0.4300404982
2.9000000000	0.4435984054
2.9050000000	0.4614082625
2.9100000000	0.4796932839
2.9150000000	0.4977483232
2.9200000000	0.5147254308
2.9250000000	0.5296414306
2.9300000000	0.5415722723
2.9350000000	0.5492877545
2.9400000000	0.5521716661
2.9450000000	0.5499084635
2.9500000000	0.5426838921
2.9550000000	0.5311570570
2.9600000000	0.5163318364
2.9650000000	0.4993728308
2.9700000000	0.4814228499
2.9750000000	0.4634734650
2.9800000000	0.4462936909
2.9850000000	0.4304199972
2.9900000000	0.4161825188
2.9950000000	0.4037494201
3.0000000000	0.3931749211
