# energy (eV)    P(omega), $W$ = 300 nm, $h$ = 300 nm, $s$ = 20 nm, $d/W = 5$, $E_{\rm e}$ = 200 keV
0.2000000000	0.2132533111
0.2050000000	0.2164478343
0.2100000000	0.2194338518
0.2150000000	0.2222181664
0.2200000000	0.2248066076
0.2250000000	0.2272041154
0.2300000000	0.2294144768
0.2350000000	0.2314402022
0.2400000000	0.2332822649
0.2450000000	0.2349399808
0.2500000000	0.2364106357
0.2550000000	0.2376890152
0.2600000000	0.2387672782
0.2650000000	0.2396340302
0.2700000000	0.2402738305
0.2750000000	0.2406662067
0.2800000000	0.2407845806
0.2850000000	0.2405947648
0.2900000000	0.2400529800
0.2950000000	0.2391036597
0.3000000000	0.2376758291
0.3050000000	0.2356790444
0.3100000000	0.2329975133
0.3150000000	0.2462538996
0.3200000000	0.2619976307
0.3250000000	0.2819110067
0.3300000000	0.3085805322
0.3350000000	0.3417769320
0.3400000000	0.3852482205
0.3450000000	0.4379726727
0.3500000000	0.5069433974
0.3550000000	0.5982008430
0.3600000000	0.7173492425
0.3650000000	0.8834484936
0.3700000000	1.1024482637
0.3750000000	1.4070691110
0.3800000000	1.8476155146
0.3850000000	2.5340415207
0.3900000000	3.6183895682
0.3950000000	5.4601964588
0.4000000000	8.9711860910
0.4050000000	16.8424216300
0.4100000000	38.3191466260
0.4150000000	122.9688877260
0.4200000000	78.3500367521
0.4250000000	-147.4585300328
0.4300000000	41.0007183840
0.4350000000	25.5482314264
0.4400000000	15.6164753292
0.4450000000	10.2705426346
0.4500000000	7.1931373525
0.4550000000	5.2993883956
0.4600000000	4.0660400745
0.4650000000	3.2256090550
0.4700000000	2.6316204964
0.4750000000	2.2020416721
0.4800000000	1.8835470514
0.4850000000	1.6438872026
0.4900000000	1.4609452061
0.4950000000	1.3198742356
0.5000000000	1.2105259378
0.5050000000	1.1254548819
0.5100000000	1.0598664638
0.5150000000	1.0102305456
0.5200000000	0.9728587293
0.5250000000	0.9460879792
0.5300000000	0.9281342949
0.5350000000	0.9176926236
0.5400000000	0.9138007831
0.5450000000	0.9156550508
0.5500000000	0.9230002560
0.5550000000	0.9353831009
0.5600000000	0.9525714745
0.5650000000	0.9744607612
0.5700000000	1.0009553873
0.5750000000	1.0322402546
0.5800000000	1.0686160679
0.5850000000	1.1102786705
0.5900000000	1.1576085046
0.5950000000	1.2110843882
0.6000000000	1.2713162365
0.6050000000	1.3391886996
0.6100000000	1.4155453329
0.6150000000	1.5015390057
0.6200000000	1.5987076838
0.6250000000	1.7085257959
0.6300000000	1.8331728750
0.6350000000	1.9753654100
0.6400000000	2.1379297174
0.6450000000	2.3249457949
0.6500000000	2.5417779447
0.6550000000	2.7940099660
0.6600000000	3.0902246522
0.6650000000	3.4414335702
0.6700000000	3.8605831956
0.6750000000	4.3674148471
0.6800000000	4.9884781330
0.6850000000	5.7585504048
0.6900000000	6.7314966559
0.6950000000	7.9826497425
0.7000000000	9.6316770132
0.7050000000	11.8615153785
0.7100000000	14.9821282752
0.7150000000	19.5452829103
0.7200000000	26.5781911819
0.7250000000	38.2522119053
0.7300000000	59.6797420865
0.7350000000	105.5278807007
0.7400000000	231.2660750762
0.7450000000	767.2025193195
0.7500000000	2376.7408263089
0.7550000000	597.9065753423
0.7600000000	198.0082058473
0.7650000000	94.8720570004
0.7700000000	55.1729241176
0.7750000000	36.0089895290
0.7800000000	25.3404667652
0.7850000000	18.8199525209
0.7900000000	14.5396225462
0.7950000000	11.5876076060
0.8000000000	9.4655355607
0.8050000000	7.8850823179
0.8100000000	6.6799116744
0.8150000000	5.7245663581
0.8200000000	4.9705880100
0.8250000000	4.3635000280
0.8300000000	3.8662044524
0.8350000000	3.4573388736
0.8400000000	3.1145936220
0.8450000000	2.8269878160
0.8500000000	2.5838791793
0.8550000000	2.3740884997
0.8600000000	2.1949976761
0.8650000000	2.0420237523
0.8700000000	1.9068597802
0.8750000000	1.7918825463
0.8800000000	1.6943205390
0.8850000000	1.6068510118
0.8900000000	1.5366822999
0.8950000000	1.4728504347
0.9000000000	1.4222576677
0.9050000000	1.3874087037
0.9100000000	1.3554724454
0.9150000000	1.3360937067
0.9200000000	1.3337450775
0.9250000000	1.3319994681
0.9300000000	1.3124468991
0.9350000000	1.2538118371
0.9400000000	0.9272324561
0.9450000000	-0.5570925895
0.9500000000	-8.3903215214
0.9550000000	-48.1210938523
0.9600000000	11.3548387589
0.9650000000	19.9460381032
0.9700000000	8.8467531007
0.9750000000	4.6443306819
0.9800000000	2.9106803530
0.9850000000	2.0998513986
0.9900000000	1.6326727284
0.9950000000	1.3493878714
1.0000000000	1.1685097188
1.0050000000	1.0538362111
1.0100000000	0.9649368092
1.0150000000	0.8999901257
1.0200000000	0.8562441676
1.0250000000	0.8195266289
1.0300000000	0.7916331018
1.0350000000	0.7705321817
1.0400000000	0.7571169563
1.0450000000	0.7459630532
1.0500000000	0.7386061765
1.0550000000	0.7346105874
1.0600000000	0.7349605599
1.0650000000	0.7369164923
1.0700000000	0.7415953569
1.0750000000	0.7490165134
1.0800000000	0.7599130144
1.0850000000	0.7737414584
1.0900000000	0.7941396906
1.0950000000	0.8183635062
1.1000000000	0.8472253928
1.1050000000	0.8804902783
1.1100000000	0.9192084613
1.1150000000	0.9642506653
1.1200000000	1.0166486148
1.1250000000	1.0777525042
1.1300000000	1.1493690604
1.1350000000	1.2337481305
1.1400000000	1.3334512886
1.1450000000	1.4531572015
1.1500000000	1.5979514008
1.1550000000	1.7751869112
1.1600000000	1.9952374286
1.1650000000	2.2715627672
1.1700000000	2.6293798982
1.1750000000	3.1021618737
1.1800000000	3.7452471162
1.1850000000	4.6495960836
1.1900000000	5.9866372197
1.1950000000	8.0855309804
1.2000000000	11.6455553436
1.2050000000	18.3730478335
1.2100000000	33.1721280752
1.2150000000	73.1736123442
1.2200000000	179.5818498184
1.2250000000	161.3405918533
1.2300000000	64.3559134906
1.2350000000	30.1825675653
1.2400000000	17.2385710357
1.2450000000	11.2952941932
1.2500000000	8.1598990206
1.2550000000	6.3503056965
1.2600000000	5.2490499936
1.2650000000	4.5591221597
1.2700000000	4.1475718125
1.2750000000	3.9281979195
1.2800000000	3.8599523147
1.2850000000	3.9248926632
1.2900000000	4.1215378893
1.2950000000	4.4601071245
1.3000000000	4.9824250008
1.3050000000	5.7421260248
1.3100000000	6.8392293799
1.3150000000	8.4467973084
1.3200000000	10.8759609505
1.3250000000	14.7197259649
1.3300000000	21.2768694417
1.3350000000	33.5585718033
1.3400000000	59.8081713543
1.3450000000	124.9731593629
1.3500000000	265.2209901493
1.3550000000	247.3556445869
1.3600000000	114.0672980977
1.3650000000	56.0454339538
1.3700000000	32.1414706986
1.3750000000	20.6699556264
1.3800000000	14.4150689805
1.3850000000	10.6471916023
1.3900000000	8.2187441346
1.3950000000	6.5618875342
1.4000000000	5.3833268778
1.4050000000	4.5176978949
1.4100000000	3.8648422834
1.4150000000	3.3649219993
1.4200000000	2.9757160371
1.4250000000	2.6859815348
1.4300000000	2.5013782384
1.4350000000	2.3788737164
1.4400000000	1.6341480634
1.4450000000	-0.4280725806
1.4500000000	-4.0175850060
1.4550000000	-1.3434132268
1.4600000000	4.0827970749
1.4650000000	2.3662120591
1.4700000000	-1.5051141110
1.4750000000	-7.6277228975
1.4800000000	-3.3648046947
1.4850000000	5.7679238621
1.4900000000	4.6693139557
1.4950000000	3.0296146324
1.5000000000	2.1331596469
1.5050000000	1.6478572988
1.5100000000	1.3700601719
1.5150000000	1.1997404757
1.5200000000	1.0881894890
1.5250000000	1.0173966066
1.5300000000	0.9616174334
1.5350000000	0.9211109404
1.5400000000	0.8917849663
1.5450000000	0.8712006219
1.5500000000	0.8576743681
1.5550000000	0.8505078583
1.5600000000	0.8511634816
1.5650000000	0.8567173264
1.5700000000	0.8703235189
1.5750000000	0.8944788573
1.5800000000	0.9341498339
1.5850000000	0.9991133161
1.5900000000	1.1100494861
1.5950000000	1.3126722988
1.6000000000	1.7033084495
1.6050000000	2.3443953963
1.6100000000	2.6430183861
1.6150000000	2.1020830316
1.6200000000	1.6005960695
1.6250000000	1.3455623622
1.6300000000	1.2283375207
1.6350000000	1.1798016942
1.6400000000	1.1686467555
1.6450000000	1.1805493097
1.6500000000	1.2085359009
1.6550000000	1.2497319383
1.6600000000	1.3026708059
1.6650000000	1.3671433745
1.6700000000	1.4436761399
1.6750000000	1.5333672608
1.6800000000	1.6378282204
1.6850000000	1.7592113038
1.6900000000	1.9000202139
1.6950000000	2.0617061257
1.7000000000	2.2478277059
1.7050000000	2.4631605744
1.7100000000	2.7241282243
1.7150000000	3.1628208092
1.7200000000	3.8255523755
1.7250000000	4.5420057994
1.7300000000	5.3939212973
1.7350000000	6.3155739458
1.7400000000	7.1662643039
1.7450000000	8.2383449692
1.7500000000	9.8819057954
1.7550000000	12.3471502048
1.7600000000	16.0458562855
1.7650000000	21.7520384052
1.7700000000	30.9440542220
1.7750000000	46.4260528580
1.7800000000	72.7944768311
1.7850000000	111.6510301933
1.7900000000	138.6595484736
1.7950000000	117.9765639647
1.8000000000	78.4406728975
1.8050000000	49.4792609601
1.8100000000	32.5773913222
1.8150000000	22.6732782464
1.8200000000	16.5786290583
1.8250000000	12.6267599030
1.8300000000	9.9421213670
1.8350000000	8.0451526850
1.8400000000	6.6606030244
1.8450000000	5.6212904967
1.8500000000	4.8217445244
1.8550000000	4.1958373539
1.8600000000	3.6970563850
1.8650000000	3.2934314136
1.8700000000	2.9616676311
1.8750000000	2.6838969385
1.8800000000	2.4449111937
1.8850000000	2.2298840910
1.8900000000	2.0204668474
1.8950000000	1.7888645468
1.9000000000	1.4879806596
1.9050000000	0.9641227493
1.9100000000	0.2118628440
1.9150000000	-0.5122340248
1.9200000000	0.3634063943
1.9250000000	3.8646475349
1.9300000000	6.6615293225
1.9350000000	6.7240404346
1.9400000000	5.3976791425
1.9450000000	4.0908630203
1.9500000000	3.1646328542
1.9550000000	2.5519726301
1.9600000000	2.1437024487
1.9650000000	1.8716570933
1.9700000000	1.6713949486
1.9750000000	1.5245457454
1.9800000000	1.4130887233
1.9850000000	1.3241005260
1.9900000000	1.2479613710
1.9950000000	1.1765167102
2.0000000000	1.1083006392
2.0050000000	1.0677380005
2.0100000000	1.0950029662
2.0150000000	1.1661095574
2.0200000000	1.2141584553
2.0250000000	1.2350524192
2.0300000000	1.2509925157
2.0350000000	1.2722517971
2.0400000000	1.3038283337
2.0450000000	1.3478454659
2.0500000000	1.4064626493
2.0550000000	1.4818272481
2.0600000000	1.5740610924
2.0650000000	1.6757935787
2.0700000000	1.7686795172
2.0750000000	1.8383910931
2.0800000000	1.8955748626
2.0850000000	1.9633709589
2.0900000000	2.0564953881
2.0950000000	2.1800450444
2.1000000000	2.3379166342
2.1050000000	2.5277240945
2.1100000000	2.7626927823
2.1150000000	3.0522998741
2.1200000000	3.4101790998
2.1250000000	3.8556757145
2.1300000000	4.4162019792
2.1350000000	5.1309786121
2.1400000000	6.0566524108
2.1450000000	7.2760239586
2.1500000000	8.9096694164
2.1550000000	11.1281315776
2.1600000000	14.1496068452
2.1650000000	18.1590003956
2.1700000000	23.0858040197
2.1750000000	27.9985401359
2.1800000000	31.0836559881
2.1850000000	31.3724889760
2.1900000000	30.2006914310
2.1950000000	29.3692495936
2.2000000000	29.0785489555
2.2050000000	27.7119133382
2.2100000000	24.5775919610
2.2150000000	20.6340080654
2.2200000000	17.0471203601
2.2250000000	14.1407169179
2.2300000000	11.7547874684
2.2350000000	9.7580632730
2.2400000000	8.1186556924
2.2450000000	6.8241665583
2.2500000000	5.8210137919
2.2550000000	5.0446353136
2.2600000000	4.4352705329
2.2650000000	3.9390545024
2.2700000000	3.5049979492
2.2750000000	3.0900098691
2.2800000000	2.6840837380
2.2850000000	2.3367856948
2.2900000000	2.1325379088
2.2950000000	2.1091799433
2.3000000000	2.2015402742
2.3050000000	2.2988683430
2.3100000000	2.3332710883
2.3150000000	2.3068880267
2.3200000000	2.2490775024
2.3250000000	2.1900123387
2.3300000000	2.1457100443
2.3350000000	2.1208464768
2.3400000000	2.1119005863
2.3450000000	2.1086314414
2.3500000000	2.0978478135
2.3550000000	2.0711228655
2.3600000000	2.0307879452
2.3650000000	1.9871218169
2.3700000000	1.9505716940
2.3750000000	1.9269442445
2.3800000000	1.9171718187
2.3850000000	1.9189219050
2.3900000000	1.9292144949
2.3950000000	1.9451942690
2.4000000000	1.9682832974
2.4050000000	2.0045161195
2.4100000000	2.0564606219
2.4150000000	2.1276588791
2.4200000000	2.2205517283
2.4250000000	2.3377569501
2.4300000000	2.4824864569
2.4350000000	2.6588581721
2.4400000000	2.8721720809
2.4450000000	3.1292245249
2.4500000000	3.4386296091
2.4550000000	3.8112544426
2.4600000000	4.2604646044
2.4650000000	4.8023697153
2.4700000000	5.4555111226
2.4750000000	6.2385825388
2.4800000000	7.1713149055
2.4850000000	8.2619056640
2.4900000000	9.5001428993
2.4950000000	10.8408639435
2.5000000000	12.1865562497
2.5050000000	13.4338079685
2.5100000000	14.2516399176
2.5150000000	14.4543869226
2.5200000000	14.0110057864
2.5250000000	13.0590096194
2.5300000000	11.8169105038
2.5350000000	10.4829475903
2.5400000000	9.1879517698
2.5450000000	8.0001973637
2.5500000000	6.9471782290
2.5550000000	6.0336173259
2.5600000000	5.2464831088
2.5650000000	4.5829083208
2.5700000000	4.0288025591
2.5750000000	3.5756515466
2.5800000000	3.2169456883
2.5850000000	2.9450049546
2.5900000000	2.7464009499
2.5950000000	2.6018611175
2.6000000000	2.4912403452
2.6050000000	2.4123086599
2.6100000000	2.3423297610
2.6150000000	2.2803644731
2.6200000000	2.2278668580
2.6250000000	2.1863272982
2.6300000000	2.1567014511
2.6350000000	2.1394465860
2.6400000000	2.1348043593
2.6450000000	2.1430201043
2.6500000000	2.1645977290
2.6550000000	2.1996504134
2.6600000000	2.2489475772
2.6650000000	2.3132210258
2.6700000000	2.3933333235
2.6750000000	2.4902923051
2.6800000000	2.6051751373
2.6850000000	2.7390859696
2.6900000000	2.8930010594
2.6950000000	3.0676673941
2.7000000000	3.2633603909
2.7050000000	3.5029775534
2.7100000000	3.7683009713
2.7150000000	4.0560913125
2.7200000000	4.3609069012
2.7250000000	4.6750094792
2.7300000000	4.9883832534
2.7350000000	5.2887691035
2.7400000000	5.5615845346
2.7450000000	5.7922785743
2.7500000000	5.9592444376
2.7550000000	6.0481808995
2.7600000000	6.0482876963
2.7650000000	5.9571875021
2.7700000000	5.7821356585
2.7750000000	5.5387965878
2.7800000000	5.2478435524
2.7850000000	4.9312646586
2.7900000000	4.6087583173
2.7950000000	4.2961132588
2.8000000000	4.0045008413
2.8050000000	3.7083022200
2.8100000000	3.4533270983
2.8150000000	3.2390043074
2.8200000000	3.0619847650
2.8250000000	2.9178167498
2.8300000000	2.8020104221
2.8350000000	2.7107431762
2.8400000000	2.6399496456
2.8450000000	2.5898761595
2.8500000000	2.5575367962
2.8550000000	2.5418020707
2.8600000000	2.5418390060
2.8650000000	2.5569421813
2.8700000000	2.5864222601
2.8750000000	2.6294924483
2.8800000000	2.6851926539
2.8850000000	2.7523049566
2.8900000000	2.8293748704
2.8950000000	2.9146810259
2.9000000000	3.0063275673
2.9050000000	3.1222180390
2.9100000000	3.2380388332
2.9150000000	3.3496548480
2.9200000000	3.4523177625
2.9250000000	3.5405494834
2.9300000000	3.6092456603
2.9350000000	3.6512500976
2.9400000000	3.6631509221
2.9450000000	3.6432822617
2.9500000000	3.5930069781
2.9550000000	3.5165993785
2.9600000000	3.4204175846
2.9650000000	3.3117821036
2.9700000000	3.1978515875
2.9750000000	3.0847996931
2.9800000000	2.9774000643
2.9850000000	2.8789515567
2.9900000000	2.7914861580
2.9950000000	2.7159901210
3.0000000000	2.6527488984
