# energy (eV)    P(omega), $W$ = 300 nm, $h$ = 300 nm, $s$ = 20 nm, $d/W = 5$, $E_{\rm e}$ = 200 keV
0.2000000000	0.0558077969
0.2050000000	0.0566576455
0.2100000000	0.0574474036
0.2150000000	0.0581790780
0.2200000000	0.0588544748
0.2250000000	0.0594750856
0.2300000000	0.0600421013
0.2350000000	0.0605563511
0.2400000000	0.0610182571
0.2450000000	0.0614277603
0.2500000000	0.0617842628
0.2550000000	0.0620864783
0.2600000000	0.0623324051
0.2650000000	0.0625190681
0.2700000000	0.0626424239
0.2750000000	0.0626970572
0.2800000000	0.0626759069
0.2850000000	0.0625698592
0.2900000000	0.0623672570
0.2950000000	0.0620532475
0.3000000000	0.0616088741
0.3050000000	0.0610099784
0.3100000000	0.0602256180
0.3150000000	0.0637725011
0.3200000000	0.0679846727
0.3250000000	0.0733159312
0.3300000000	0.0804622778
0.3350000000	0.0893550112
0.3400000000	0.1009997674
0.3450000000	0.1151111763
0.3500000000	0.1335635944
0.3550000000	0.1579667892
0.3600000000	0.1898052651
0.3650000000	0.2341686040
0.3700000000	0.2926056583
0.3750000000	0.3738289775
0.3800000000	0.4912119486
0.3850000000	0.6739975602
0.3900000000	0.9625285381
0.3950000000	1.4522511028
0.4000000000	2.3851695332
0.4050000000	4.4752731374
0.4100000000	10.1740204304
0.4150000000	32.6192525914
0.4200000000	20.7970164641
0.4250000000	-39.0370615920
0.4300000000	10.8339174454
0.4350000000	6.7424248921
0.4400000000	4.1155145227
0.4450000000	2.7025429677
0.4500000000	1.8896958250
0.4550000000	1.3897970455
0.4600000000	1.0644109360
0.4650000000	0.8428004369
0.4700000000	0.6862432181
0.4750000000	0.5730560108
0.4800000000	0.4891539940
0.4850000000	0.4260195684
0.4900000000	0.3778146379
0.4950000000	0.3406217831
0.5000000000	0.3117628496
0.5050000000	0.2892749656
0.5100000000	0.2718920436
0.5150000000	0.2586810457
0.5200000000	0.2486729014
0.5250000000	0.2414256365
0.5300000000	0.2364693642
0.5350000000	0.2334589451
0.5400000000	0.2321395808
0.5450000000	0.2322985210
0.5500000000	0.2338642166
0.5550000000	0.2367154021
0.5600000000	0.2407874497
0.5650000000	0.2460494704
0.5700000000	0.2524716719
0.5750000000	0.2600979362
0.5800000000	0.2689992767
0.5850000000	0.2792210917
0.5900000000	0.2908544959
0.5950000000	0.3040161607
0.6000000000	0.3188541552
0.6050000000	0.3355869564
0.6100000000	0.3544202303
0.6150000000	0.3756372516
0.6200000000	0.3996161913
0.6250000000	0.4267192183
0.6300000000	0.4574827586
0.6350000000	0.4925751773
0.6400000000	0.5326910233
0.6450000000	0.5788345389
0.6500000000	0.6323250665
0.6550000000	0.6945352252
0.6600000000	0.7675765969
0.6650000000	0.8541556707
0.6700000000	0.9574537578
0.6750000000	1.0823246561
0.6800000000	1.2352924870
0.6850000000	1.4249004966
0.6900000000	1.6643799019
0.6950000000	1.9722314544
0.7000000000	2.3778385316
0.7050000000	2.9261089282
0.7100000000	3.6931189841
0.7150000000	4.8142743545
0.7200000000	6.5415882087
0.7250000000	9.4076787321
0.7300000000	14.6663090952
0.7350000000	25.9136073682
0.7400000000	56.7464752101
0.7450000000	188.1058662779
0.7500000000	582.2894072050
0.7550000000	146.3707758013
0.7600000000	48.4358464607
0.7650000000	23.1891063100
0.7700000000	13.4751188143
0.7750000000	8.7877510130
0.7800000000	6.1793197895
0.7850000000	4.5856712783
0.7900000000	3.5399297254
0.7950000000	2.8189798087
0.8000000000	2.3009081930
0.8050000000	1.9152036971
0.8100000000	1.6211898920
0.8150000000	1.3882217795
0.8200000000	1.2044170708
0.8250000000	1.0564676084
0.8300000000	0.9353160570
0.8350000000	0.8357318796
0.8400000000	0.7522757327
0.8450000000	0.6822612626
0.8500000000	0.6230862252
0.8550000000	0.5720357834
0.8600000000	0.5284577615
0.8650000000	0.4912295897
0.8700000000	0.4583447202
0.8750000000	0.4303584194
0.8800000000	0.4065929936
0.8850000000	0.3852880367
0.8900000000	0.3681560906
0.8950000000	0.3525724256
0.9000000000	0.3401753398
0.9050000000	0.3315508081
0.9100000000	0.3236413902
0.9150000000	0.3187352864
0.9200000000	0.3178856713
0.9250000000	0.3171971342
0.9300000000	0.3123293106
0.9350000000	0.2983019881
0.9400000000	0.2212272734
0.9450000000	-0.1281247413
0.9500000000	-1.9697664517
0.9550000000	-11.3035860260
0.9600000000	2.6659809475
0.9650000000	4.6792807710
0.9700000000	2.0744514120
0.9750000000	1.0888998712
0.9800000000	0.6825376188
0.9850000000	0.4925317295
0.9900000000	0.3831065718
0.9950000000	0.3167735946
1.0000000000	0.2744253335
1.0050000000	0.2475650624
1.0100000000	0.2267621083
1.0150000000	0.2115705440
1.0200000000	0.2013317204
1.0250000000	0.1927569602
1.0300000000	0.1862540313
1.0350000000	0.1813483944
1.0400000000	0.1782396665
1.0450000000	0.1756791143
1.0500000000	0.1740182199
1.0550000000	0.1731557917
1.0600000000	0.1733153037
1.0650000000	0.1738739332
1.0700000000	0.1750873208
1.0750000000	0.1769607927
1.0800000000	0.1796631147
1.0850000000	0.1830900226
1.0900000000	0.1881125836
1.0950000000	0.1940696066
1.1000000000	0.2011546889
1.1050000000	0.2093342768
1.1100000000	0.2188592374
1.1150000000	0.2299459585
1.1200000000	0.2428429312
1.1250000000	0.2579096225
1.1300000000	0.2755868924
1.1350000000	0.2964373861
1.1400000000	0.3210928419
1.1450000000	0.3507440060
1.1500000000	0.3866548891
1.1550000000	0.4306668895
1.1600000000	0.4853780845
1.1650000000	0.5541506175
1.1700000000	0.6433243623
1.1750000000	0.7612788452
1.1800000000	0.9218796839
1.1850000000	1.1479274444
1.1900000000	1.4823435437
1.1950000000	2.0076462575
1.2000000000	2.8989859546
1.2050000000	4.5837106151
1.2100000000	8.2897674132
1.2150000000	18.3045147893
1.2200000000	44.9293085184
1.2250000000	40.3276800097
1.2300000000	16.0498074897
1.2350000000	7.4987456405
1.2400000000	4.2592856573
1.2450000000	2.7702253602
1.2500000000	1.9826392956
1.2550000000	1.5257328869
1.2600000000	1.2449708251
1.2650000000	1.0659527615
1.2700000000	0.9550807728
1.2750000000	0.8905167201
1.2800000000	0.8615217962
1.2850000000	0.8629548831
1.2900000000	0.8934977953
1.2950000000	0.9544960417
1.3000000000	1.0541423535
1.3050000000	1.2028032554
1.3100000000	1.4204615592
1.3150000000	1.7418593376
1.3200000000	2.2297124492
1.3250000000	3.0033689909
1.3300000000	4.3250646988
1.3350000000	6.8019612527
1.3400000000	12.0962306035
1.3450000000	25.2363071522
1.3500000000	53.5006244588
1.3550000000	49.8633123908
1.3600000000	22.9858868749
1.3650000000	11.2926549046
1.3700000000	6.4767686091
1.3750000000	4.1660452844
1.3800000000	2.9061932895
1.3850000000	2.1471848342
1.3900000000	1.6577767853
1.3950000000	1.3236954095
1.4000000000	1.0857135493
1.4050000000	0.9104792361
1.4100000000	0.7776129725
1.4150000000	0.6746333744
1.4200000000	0.5922524917
1.4250000000	0.5262693396
1.4300000000	0.4728897348
1.4350000000	0.4186142848
1.4400000000	0.2467827295
1.4450000000	-0.1982065203
1.4500000000	-1.0122608239
1.4550000000	-0.3676350174
1.4600000000	0.9236017964
1.4650000000	0.5620360354
1.4700000000	-0.2398362097
1.4750000000	-1.4656569511
1.4800000000	-0.6388494825
1.4850000000	1.1505442514
1.4900000000	0.9308012920
1.4950000000	0.6064811030
1.5000000000	0.4289611634
1.5050000000	0.3325264967
1.5100000000	0.2772413763
1.5150000000	0.2432130564
1.5200000000	0.2208301807
1.5250000000	0.2065834730
1.5300000000	0.1952649211
1.5350000000	0.1869810006
1.5400000000	0.1809144001
1.5450000000	0.1765658714
1.5500000000	0.1736080320
1.5550000000	0.1718753884
1.5600000000	0.1716464183
1.5650000000	0.1722824626
1.5700000000	0.1743656818
1.5750000000	0.1782926725
1.5800000000	0.1848679555
1.5850000000	0.1956760137
1.5900000000	0.2140585478
1.5950000000	0.2473588316
1.6000000000	0.3108794718
1.6050000000	0.4137123579
1.6100000000	0.4593276206
1.6150000000	0.3709725838
1.6200000000	0.2910820310
1.6250000000	0.2514602657
1.6300000000	0.2341383231
1.6350000000	0.2279390192
1.6400000000	0.2278572417
1.6450000000	0.2316290444
1.6500000000	0.2381854412
1.6550000000	0.2470797301
1.6600000000	0.2581387293
1.6650000000	0.2713823556
1.6700000000	0.2869609111
1.6750000000	0.3051360382
1.6800000000	0.3262791921
1.6850000000	0.3508848757
1.6900000000	0.3795875612
1.6950000000	0.4129902062
1.7000000000	0.4523652702
1.7050000000	0.5000327522
1.7100000000	0.5587434138
1.7150000000	0.6421015622
1.7200000000	0.7576121111
1.7250000000	0.8976340482
1.7300000000	1.0734856068
1.7350000000	1.2614033168
1.7400000000	1.4273058853
1.7450000000	1.6336095317
1.7500000000	1.9536772128
1.7550000000	2.4368375099
1.7600000000	3.1633681759
1.7650000000	4.2848970115
1.7700000000	6.0914956599
1.7750000000	9.1333541130
1.7800000000	14.3115523052
1.7850000000	21.9359234873
1.7900000000	27.2224956565
1.7950000000	23.1437118957
1.8000000000	15.3745288077
1.8050000000	9.6886362431
1.8100000000	6.3721075696
1.8150000000	4.4294150206
1.8200000000	3.2342288654
1.8250000000	2.4593100630
1.8300000000	1.9328069630
1.8350000000	1.5606104994
1.8400000000	1.2887178368
1.8450000000	1.0843026187
1.8500000000	0.9266483528
1.8550000000	0.8027581169
1.8600000000	0.7034412611
1.8650000000	0.6223466846
1.8700000000	0.5547856532
1.8750000000	0.4970820084
1.8800000000	0.4460033093
1.8850000000	0.3982713241
1.8900000000	0.3497199521
1.8950000000	0.2940144345
1.9000000000	0.2204937498
1.9050000000	0.0953568189
1.9100000000	-0.0863508446
1.9150000000	-0.2820479920
1.9200000000	-0.1945404413
1.9250000000	0.3771989866
1.9300000000	0.8364425583
1.9350000000	0.8737151287
1.9400000000	0.7202238206
1.9450000000	0.5651348999
1.9500000000	0.4536216941
1.9550000000	0.3788040209
1.9600000000	0.3283254243
1.9650000000	0.2949059498
1.9700000000	0.2695982065
1.9750000000	0.2510243820
1.9800000000	0.2370345103
1.9850000000	0.2261098175
1.9900000000	0.2171680304
1.9950000000	0.2093324603
2.0000000000	0.2023916598
2.0050000000	0.1988550580
2.0100000000	0.2020994068
2.0150000000	0.2098564266
2.0200000000	0.2159623273
2.0250000000	0.2201252849
2.0300000000	0.2245699375
2.0350000000	0.2302560062
2.0400000000	0.2379158555
2.0450000000	0.2480262181
2.0500000000	0.2611601952
2.0550000000	0.2778990055
2.0600000000	0.2982703350
2.0650000000	0.3203388750
2.0700000000	0.3393034576
2.0750000000	0.3513508568
2.0800000000	0.3590843037
2.0850000000	0.3683179837
2.0900000000	0.3826512326
2.0950000000	0.4031841818
2.1000000000	0.4305085784
2.1050000000	0.4639993970
2.1100000000	0.5059932851
2.1150000000	0.5581123690
2.1200000000	0.6227641156
2.1250000000	0.7034092880
2.1300000000	0.8049824143
2.1350000000	0.9345610886
2.1400000000	1.1023757065
2.1450000000	1.3233798709
2.1500000000	1.6193417549
2.1550000000	2.0210288001
2.1600000000	2.5677789978
2.1650000000	3.2928592241
2.1700000000	4.1836682820
2.1750000000	5.0727041447
2.1800000000	5.6348134823
2.1850000000	5.6980941998
2.1900000000	5.5045910672
2.1950000000	5.3761256227
2.2000000000	5.3391304088
2.2050000000	5.0823529978
2.2100000000	4.4753049713
2.2150000000	3.7042195247
2.2200000000	2.9987001582
2.2250000000	2.4336213086
2.2300000000	1.9888585432
2.2350000000	1.6355981061
2.2400000000	1.3553258736
2.2450000000	1.1365682236
2.2500000000	0.9659632133
2.2550000000	0.8313576474
2.2600000000	0.7226071508
2.2650000000	0.6312714561
2.2700000000	0.5502588738
2.2750000000	0.4745920730
2.2800000000	0.4046232665
2.2850000000	0.3491364841
2.2900000000	0.3211430399
2.2950000000	0.3251274686
2.3000000000	0.3482544174
2.3050000000	0.3708558420
2.3100000000	0.3806114980
2.3150000000	0.3781468576
2.3200000000	0.3688560864
2.3250000000	0.3582459087
2.3300000000	0.3492921464
2.3350000000	0.3430261966
2.3400000000	0.3392344525
2.3450000000	0.3368129766
2.3500000000	0.3342879034
2.3550000000	0.3307167258
2.3600000000	0.3263608426
2.3650000000	0.3223634380
2.3700000000	0.3198578252
2.3750000000	0.3193978261
2.3800000000	0.3208894829
2.3850000000	0.3237645698
2.3900000000	0.3273900725
2.3950000000	0.3312246023
2.4000000000	0.3355912974
2.4050000000	0.3416939764
2.4100000000	0.3501446021
2.4150000000	0.3617191496
2.4200000000	0.3769453969
2.4250000000	0.3963034936
2.4300000000	0.4203320138
2.4350000000	0.4497060388
2.4400000000	0.4852941544
2.4450000000	0.5282169574
2.4500000000	0.5799006328
2.4550000000	0.6421494970
2.4600000000	0.7171915886
2.4650000000	0.8077227732
2.4700000000	0.9168657953
2.4750000000	1.0477993610
2.4800000000	1.2039617385
2.4850000000	1.3868990135
2.4900000000	1.5950970810
2.4950000000	1.8210254957
2.5000000000	2.0479546617
2.5050000000	2.2576916412
2.5100000000	2.3931873276
2.5150000000	2.4228514429
2.5200000000	2.3425993018
2.5250000000	2.1775401606
2.5300000000	1.9658745034
2.5350000000	1.7411095410
2.5400000000	1.5244685182
2.5450000000	1.3264408343
2.5500000000	1.1509460779
2.5550000000	0.9984822452
2.5600000000	0.8668373048
2.5650000000	0.7557226858
2.5700000000	0.6629213220
2.5750000000	0.5871208920
2.5800000000	0.5272964850
2.5850000000	0.4821784016
2.5900000000	0.4494745125
2.5950000000	0.4258665695
2.6000000000	0.4078839219
2.6050000000	0.3950584365
2.6100000000	0.3835423756
2.6150000000	0.3731941162
2.6200000000	0.3642722505
2.6250000000	0.3570310161
2.6300000000	0.3516239263
2.6350000000	0.3481175399
2.6400000000	0.3465467747
2.6450000000	0.3469510778
2.6500000000	0.3494151510
2.6550000000	0.3539532466
2.6600000000	0.3606844255
2.6650000000	0.3697138647
2.6700000000	0.3811654921
2.6750000000	0.3951863449
2.6800000000	0.4119400726
2.6850000000	0.4316054078
2.6900000000	0.4543550689
2.6950000000	0.4803456051
2.7000000000	0.5096854632
2.7050000000	0.5459075493
2.7100000000	0.5865052433
2.7150000000	0.6311998292
2.7200000000	0.6793889073
2.7250000000	0.7300689736
2.7300000000	0.7817641686
2.7350000000	0.8324637964
2.7400000000	0.8795896944
2.7450000000	0.9204202046
2.7500000000	0.9510044511
2.7550000000	0.9686286548
2.7600000000	0.9712546300
2.7650000000	0.9583580957
2.7700000000	0.9311136629
2.7750000000	0.8921568555
2.7800000000	0.8449830417
2.7850000000	0.7933106934
2.7900000000	0.7404616994
2.7950000000	0.6890956265
2.8000000000	0.6410884163
2.8050000000	0.5922723431
2.8100000000	0.5501323589
2.8150000000	0.5145723382
2.8200000000	0.4850333291
2.8250000000	0.4607724487
2.8300000000	0.4410444753
2.8350000000	0.4252142819
2.8400000000	0.4126066870
2.8450000000	0.4032671700
2.8500000000	0.3967009226
2.8550000000	0.3927235800
2.8600000000	0.3912047132
2.8650000000	0.3920412798
2.8700000000	0.3951415514
2.8750000000	0.4004116604
2.8800000000	0.4077430129
2.8850000000	0.4170005849
2.8900000000	0.4280181328
2.8950000000	0.4405926156
2.9000000000	0.4544832022
2.9050000000	0.4727300810
2.9100000000	0.4914637908
2.9150000000	0.5099618814
2.9200000000	0.5273555945
2.9250000000	0.5426376264
2.9300000000	0.5548612505
2.9350000000	0.5627660767
2.9400000000	0.5657207717
2.9450000000	0.5634020483
2.9500000000	0.5560002091
2.9550000000	0.5441905324
2.9600000000	0.5290015301
2.9650000000	0.5116263802
2.9700000000	0.4932359355
2.9750000000	0.4748460994
2.9800000000	0.4572447572
2.9850000000	0.4409815429
2.9900000000	0.4263946928
2.9950000000	0.4136564979
3.0000000000	0.4028225088
