# energy (eV)    P(omega), $W$ = 300 nm, $h$ = 300 nm, $s$ = 20 nm, $d/W = 5$, $E_{\rm e}$ = 200 keV
0.2000000000	0.2665453065
0.2050000000	0.2703740265
0.2100000000	0.2739728776
0.2150000000	0.2773490504
0.2200000000	0.2805087435
0.2250000000	0.2834570826
0.2300000000	0.2861978339
0.2350000000	0.2887333497
0.2400000000	0.2910643052
0.2450000000	0.2931891193
0.2500000000	0.2951042805
0.2550000000	0.2968030363
0.2600000000	0.2982755195
0.2650000000	0.2995079732
0.2700000000	0.3004815426
0.2750000000	0.3011715386
0.2800000000	0.3015459613
0.2850000000	0.3015638974
0.2900000000	0.3011727797
0.2950000000	0.3003063247
0.3000000000	0.2988791736
0.3050000000	0.2967834931
0.3100000000	0.2938808464
0.3150000000	0.3097140378
0.3200000000	0.3285208755
0.3250000000	0.3522949564
0.3300000000	0.3841087928
0.3350000000	0.4237217906
0.3400000000	0.4756010340
0.3450000000	0.5385810258
0.3500000000	0.6210041935
0.3550000000	0.7301196511
0.3600000000	0.8726975729
0.3650000000	1.0715598731
0.3700000000	1.3340306616
0.3750000000	1.6994146347
0.3800000000	2.2282425094
0.3850000000	3.0527616110
0.3900000000	4.3563053480
0.3950000000	6.5721499395
0.4000000000	10.7991677546
0.4050000000	20.2823475691
0.4100000000	46.1769146072
0.4150000000	148.3161071855
0.4200000000	94.4070109910
0.4250000000	-178.2098992935
0.4300000000	49.6611311021
0.4350000000	30.9863738253
0.4400000000	18.9706104916
0.4450000000	12.4981477226
0.4500000000	8.7696774321
0.4550000000	6.4738193509
0.4600000000	4.9776898634
0.4650000000	3.9576403901
0.4700000000	3.2363588811
0.4750000000	2.7145447018
0.4800000000	2.3275809295
0.4850000000	2.0363978189
0.4900000000	1.8141811606
0.4950000000	1.6429226588
0.5000000000	1.5103167220
0.5050000000	1.4073241154
0.5100000000	1.3281360779
0.5150000000	1.2684784381
0.5200000000	1.2238571585
0.5250000000	1.1922705936
0.5300000000	1.1715525614
0.5350000000	1.1601232268
0.5400000000	1.1568198040
0.5450000000	1.1606715702
0.5500000000	1.1713892920
0.5550000000	1.1884314646
0.5600000000	1.2115342379
0.5650000000	1.2405861426
0.5700000000	1.2754928173
0.5750000000	1.3165040634
0.5800000000	1.3640258503
0.5850000000	1.4183249749
0.5900000000	1.4799089909
0.5950000000	1.5494073934
0.6000000000	1.6276210299
0.6050000000	1.7156978798
0.6100000000	1.8147437674
0.6150000000	1.9262595196
0.6200000000	2.0522483996
0.6250000000	2.1946284298
0.6300000000	2.3562345694
0.6350000000	2.5406004184
0.6400000000	2.7514041898
0.6450000000	2.9939524998
0.6500000000	3.2752250576
0.6550000000	3.6024889705
0.6600000000	3.9869091148
0.6650000000	4.4428228114
0.6700000000	4.9870853737
0.6750000000	5.6453896278
0.6800000000	6.4523284967
0.6850000000	7.4531850686
0.6900000000	8.7181521275
0.6950000000	10.3453677765
0.7000000000	12.4908163041
0.7050000000	15.3929491460
0.7100000000	19.4559193539
0.7150000000	25.3992562583
0.7200000000	34.5627915320
0.7250000000	49.7792819798
0.7300000000	77.7198615134
0.7350000000	137.5275205628
0.7400000000	301.6170163839
0.7450000000	1001.3374647214
0.7500000000	3104.4392020979
0.7550000000	781.5745436662
0.7600000000	259.0363528708
0.7650000000	124.2111722860
0.7700000000	72.2933328137
0.7750000000	47.2212341159
0.7800000000	33.2582792093
0.7850000000	24.7210496134
0.7900000000	19.1148099536
0.7950000000	15.2469237073
0.8000000000	12.4654936662
0.8050000000	10.3932495056
0.8100000000	8.8125093296
0.8150000000	7.5589397680
0.8200000000	6.5692796163
0.8250000000	5.7721936749
0.8300000000	5.1190376676
0.8350000000	4.5819055022
0.8400000000	4.1315269934
0.8450000000	3.7535190373
0.8500000000	3.4339672888
0.8550000000	3.1581304001
0.8600000000	2.9226535344
0.8650000000	2.7215637104
0.8700000000	2.5438308245
0.8750000000	2.3927225412
0.8800000000	2.2646196420
0.8850000000	2.1497562699
0.8900000000	2.0578602101
0.8950000000	1.9742531617
0.9000000000	1.9082579017
0.9050000000	1.8633106082
0.9100000000	1.8221453939
0.9150000000	1.7977917580
0.9200000000	1.7963446704
0.9250000000	1.7955824226
0.9300000000	1.7704726700
0.9350000000	1.6918566882
0.9400000000	1.2480770072
0.9450000000	-0.7741572085
0.9500000000	-11.4569460695
0.9550000000	-65.6804661758
0.9600000000	15.5136777819
0.9650000000	27.2669452759
0.9700000000	12.1020830974
0.9750000000	6.3561805318
0.9800000000	3.9844690676
0.9850000000	2.8749058866
0.9900000000	2.2352750664
0.9950000000	1.8472885127
1.0000000000	1.5995118896
1.0050000000	1.4424948436
1.0100000000	1.3206311748
1.0150000000	1.2315499030
1.0200000000	1.1715754301
1.0250000000	1.1211043643
1.0300000000	1.0826771306
1.0350000000	1.0535029463
1.0400000000	1.0348681163
1.0450000000	1.0192005379
1.0500000000	1.0086568746
1.0550000000	1.0026333325
1.0600000000	1.0025227705
1.0650000000	1.0044494529
1.0700000000	1.0099782942
1.0750000000	1.0191276337
1.0800000000	1.0329232154
1.0850000000	1.0504617326
1.0900000000	1.0766038089
1.0950000000	1.1076922653
1.1000000000	1.1448184181
1.1050000000	1.1875056310
1.1100000000	1.2371481918
1.1150000000	1.2948462388
1.1200000000	1.3619496827
1.1250000000	1.4399993625
1.1300000000	1.5313236484
1.1350000000	1.6387344815
1.1400000000	1.7654865802
1.1450000000	1.9172843264
1.1500000000	2.1005273267
1.1550000000	2.3243747846
1.1600000000	2.6017466916
1.1650000000	2.9494568608
1.1700000000	3.3987500879
1.1750000000	3.9913255994
1.1800000000	4.7960194652
1.1850000000	5.9259145046
1.1900000000	7.5944498862
1.1950000000	10.2107172463
1.2000000000	14.6447273895
1.2050000000	23.0195206530
1.2100000000	41.4380318397
1.2150000000	91.2293173557
1.2200000000	223.7479455402
1.2250000000	201.2212331497
1.2300000000	80.5038702444
1.2350000000	37.9563980843
1.2400000000	21.8487358378
1.2450000000	14.4669153337
1.2500000000	10.5887188905
1.2550000000	8.3685661120
1.2600000000	7.0381022793
1.2650000000	6.2282935049
1.2700000000	5.7760740568
1.2750000000	5.5762410793
1.2800000000	5.5812227019
1.2850000000	5.7735781569
1.2900000000	6.1585367803
1.2950000000	6.7580336243
1.3000000000	7.6409693216
1.3050000000	8.8970394488
1.3100000000	10.6884786380
1.3150000000	13.2948028422
1.3200000000	17.2164506420
1.3250000000	23.4090982209
1.3300000000	33.9586378986
1.3350000000	53.7081815057
1.3400000000	95.9156468181
1.3450000000	200.7195347739
1.3500000000	426.3987488788
1.3550000000	397.9363251075
1.3600000000	183.5774037988
1.3650000000	90.2116100564
1.3700000000	51.7352246025
1.3750000000	33.2673008471
1.3800000000	23.1972153481
1.3850000000	17.1321092276
1.3900000000	13.2251345874
1.3950000000	10.5612586507
1.4000000000	8.6696026004
1.4050000000	7.2844292178
1.4100000000	6.2463878618
1.4150000000	5.4631230217
1.4200000000	4.8741274651
1.4250000000	4.4796718201
1.4300000000	4.3353258857
1.4350000000	4.4159337596
1.4400000000	3.4014479731
1.4450000000	0.2938824121
1.4500000000	-4.7510408336
1.4550000000	-1.3319158569
1.4600000000	5.7538148814
1.4650000000	3.1149866063
1.4700000000	-2.9420339909
1.4750000000	-12.8752842094
1.4800000000	-5.7303229852
1.4850000000	9.4182764232
1.4900000000	7.6345079026
1.4950000000	4.9416170702
1.5000000000	3.4720868618
1.5050000000	2.6808017917
1.5100000000	2.2297964953
1.5150000000	1.9559056232
1.5200000000	1.7789816049
1.5250000000	1.6690590468
1.5300000000	1.5850965740
1.5350000000	1.5272296248
1.5400000000	1.4891227116
1.5450000000	1.4673774187
1.5500000000	1.4598005393
1.5550000000	1.4664505896
1.5600000000	1.4912411280
1.5650000000	1.5321714957
1.5700000000	1.5984272214
1.5750000000	1.7012178097
1.5800000000	1.8615895543
1.5850000000	2.1205096772
1.5900000000	2.5642892988
1.5950000000	3.3839274511
1.6000000000	4.9828688786
1.6050000000	7.6266542223
1.6100000000	8.8510045341
1.6150000000	6.5555643035
1.6200000000	4.4021961998
1.6250000000	3.2654872301
1.6300000000	2.6947067197
1.6350000000	2.4008052830
1.6400000000	2.2517869593
1.6450000000	2.1863022215
1.6500000000	2.1736287824
1.6550000000	2.1993725180
1.6600000000	2.2549426101
1.6650000000	2.3364141784
1.6700000000	2.4422925208
1.6750000000	2.5725826449
1.6800000000	2.7284464302
1.6850000000	2.9116877991
1.6900000000	3.1239003786
1.6950000000	3.3620601092
1.7000000000	3.6221524602
1.7050000000	3.8886383193
1.7100000000	4.1926754105
1.7150000000	4.9488108375
1.7200000000	6.2757427873
1.7250000000	7.4912780661
1.7300000000	8.7955901540
1.7350000000	10.2287746125
1.7400000000	11.6351492493
1.7450000000	13.4415926740
1.7500000000	16.1733629527
1.7550000000	20.2392990156
1.7600000000	26.3226809993
1.7650000000	35.7002605647
1.7700000000	50.8058925517
1.7750000000	76.2549549530
1.7800000000	119.6196577012
1.7850000000	183.5724728830
1.7900000000	228.1313846413
1.7950000000	194.2583697096
1.8000000000	129.2844623245
1.8050000000	81.6461838109
1.8100000000	53.8313558232
1.8150000000	37.5279935267
1.8200000000	27.4946869059
1.8250000000	20.9900657181
1.8300000000	16.5736598468
1.8350000000	13.4563839075
1.8400000000	11.1853100359
1.8450000000	9.4856834393
1.8500000000	8.1843486190
1.8550000000	7.1729581527
1.8600000000	6.3759309376
1.8650000000	5.7419016780
1.8700000000	5.2343393682
1.8750000000	4.8264267219
1.8800000000	4.4968939660
1.8850000000	4.2269503361
1.8900000000	3.9949462638
1.8950000000	3.7685766684
1.9000000000	3.4920554689
1.9050000000	2.9684734197
1.9100000000	2.2479658287
1.9150000000	1.8671465763
1.9200000000	4.5620502358
1.9250000000	12.0077383742
1.9300000000	17.9126189789
1.9350000000	17.6366884100
1.9400000000	13.8714634260
1.9450000000	10.2210234132
1.9500000000	7.6580179729
1.9550000000	5.9786711421
1.9600000000	4.8689146772
1.9650000000	4.1261332856
1.9700000000	3.5899133600
1.9750000000	3.1968437213
1.9800000000	2.8967492769
1.9850000000	2.6532262877
1.9900000000	2.4384182651
1.9950000000	2.2280125107
2.0000000000	2.0184653345
2.0050000000	1.8845859343
2.0100000000	1.9612847509
2.0150000000	2.1725790909
2.0200000000	2.3028563676
2.0250000000	2.3374529962
2.0300000000	2.3452276108
2.0350000000	2.3593811735
2.0400000000	2.3922479050
2.0450000000	2.4469712374
2.0500000000	2.5255890611
2.0550000000	2.6299517033
2.0600000000	2.7600602062
2.0650000000	2.9080348795
2.0700000000	3.0543349668
2.0750000000	3.1843171121
2.0800000000	3.3109040753
2.0850000000	3.4608196359
2.0900000000	3.6519782703
2.0950000000	3.8919249915
2.1000000000	4.1887774872
2.1050000000	4.5398482624
2.1100000000	4.9698114548
2.1150000000	5.4967042690
2.1200000000	6.1458218676
2.1250000000	6.9526442955
2.1300000000	7.9671848378
2.1350000000	9.2608463719
2.1400000000	10.9367331046
2.1450000000	13.1455835816
2.1500000000	16.1070299381
2.1550000000	20.1319114178
2.1600000000	25.6180529106
2.1650000000	32.9023622182
2.1700000000	41.8500494385
2.1750000000	50.7458766215
2.1800000000	56.2422503737
2.1850000000	56.5275408042
2.1900000000	54.0279544352
2.1950000000	52.0826791456
2.2000000000	51.2198325459
2.2050000000	48.8241915581
2.2100000000	43.7386304922
2.2150000000	37.4861174835
2.2200000000	31.8732496169
2.2250000000	27.2343730681
2.2300000000	23.1494425798
2.2350000000	19.4559196884
2.2400000000	16.2832762439
2.2450000000	13.7447445416
2.2500000000	11.7987699850
2.2550000000	10.3369821198
2.2600000000	9.2425381345
2.2650000000	8.3983391017
2.2700000000	7.6777829459
2.2750000000	6.9561220571
2.2800000000	6.1790828720
2.2850000000	5.4395984492
2.2900000000	4.9285150143
2.2950000000	4.7538812881
2.3000000000	4.8161895990
2.3050000000	4.9113959450
2.3100000000	4.9193668938
2.3150000000	4.8410764161
2.3200000000	4.7285300916
2.3250000000	4.6354433022
2.3300000000	4.5892994411
2.3350000000	4.5948142820
2.3400000000	4.6365783247
2.3450000000	4.6797224888
2.3500000000	4.6803403290
2.3550000000	4.6104200570
2.3600000000	4.4778894651
2.3650000000	4.3173913432
2.3700000000	4.1646343100
2.3750000000	4.0409461228
2.3800000000	3.9532569543
2.3850000000	3.8996101642
2.3900000000	3.8755402126
2.3950000000	3.8758739757
2.4000000000	3.9020186315
2.4050000000	3.9625936333
2.4100000000	4.0604880110
2.4150000000	4.1996992891
2.4200000000	4.3826285741
2.4250000000	4.6134829202
2.4300000000	4.8983999644
2.4350000000	5.2456135525
2.4400000000	5.6657484448
2.4450000000	6.1723715712
2.4500000000	6.7825986022
2.4550000000	7.5179432617
2.4600000000	8.4048373370
2.4650000000	9.4749940352
2.4700000000	10.7647852012
2.4750000000	12.3106440090
2.4800000000	14.1501978369
2.4850000000	16.2983432402
2.4900000000	18.7340873679
2.4950000000	21.3702718939
2.5000000000	24.0225697416
2.5050000000	26.5037313544
2.5100000000	28.1800215819
2.5150000000	28.6859013494
2.5200000000	27.9342176160
2.5250000000	26.1570096348
2.5300000000	23.7585903348
2.5350000000	21.1289446410
2.5400000000	18.5436164610
2.5450000000	16.1583074945
2.5500000000	14.0422647692
2.5550000000	12.2112565504
2.5600000000	10.6401097062
2.5650000000	9.3191798767
2.5700000000	8.2173624633
2.5750000000	7.3151852285
2.5800000000	6.5981030411
2.5850000000	6.0503068932
2.5900000000	5.6457977858
2.5950000000	5.3480253965
2.6000000000	5.1189332763
2.6050000000	4.9561234475
2.6100000000	4.8151572394
2.6150000000	4.6937994287
2.6200000000	4.5944470784
2.6250000000	4.5197555783
2.6300000000	4.4714985286
2.6350000000	4.4505806371
2.6400000000	4.4575277487
2.6450000000	4.4928287401
2.6500000000	4.5574407238
2.6550000000	4.6516316685
2.6600000000	4.7768457973
2.6650000000	4.9345419606
2.6700000000	5.1265126867
2.6750000000	5.3549305470
2.6800000000	5.6222044299
2.6850000000	5.9307985833
2.6900000000	6.2827319291
2.6950000000	6.6791748237
2.7000000000	7.1197254240
2.7050000000	7.6544881588
2.7100000000	8.2380987450
2.7150000000	8.8591873663
2.7200000000	9.5012188780
2.7250000000	10.1434236874
2.7300000000	10.7623697191
2.7350000000	11.3333150080
2.7400000000	11.8305326353
2.7450000000	12.2311912560
2.7500000000	12.4998718490
2.7550000000	12.6151365172
2.7600000000	12.5607180143
2.7650000000	12.3347282756
2.7700000000	11.9523092514
2.7750000000	11.4437955665
2.7800000000	10.8487256328
2.7850000000	10.2090436173
2.7900000000	9.5623839130
2.7950000000	8.9389256059
2.8000000000	8.3600082970
2.8050000000	7.7742848751
2.8100000000	7.2729878047
2.8150000000	6.8547716625
2.8200000000	6.5129035163
2.8250000000	6.2385097391
2.8300000000	6.0226519137
2.8350000000	5.8576801000
2.8400000000	5.7355414438
2.8450000000	5.6565161252
2.8500000000	5.6147519955
2.8550000000	5.6080192391
2.8600000000	5.6346530107
2.8650000000	5.6931535678
2.8700000000	5.7818425930
2.8750000000	5.8985907989
2.8800000000	6.0406060090
2.8850000000	6.2042570100
2.8900000000	6.3851787423
2.8950000000	6.5784344175
2.9000000000	6.7788327913
2.9050000000	7.0196340228
2.9100000000	7.2506253214
2.9150000000	7.4645422299
2.9200000000	7.6537617548
2.9250000000	7.8096349906
2.9300000000	7.9241977097
2.9350000000	7.9850628145
2.9400000000	7.9868847090
2.9450000000	7.9273867216
2.9500000000	7.8100011512
2.9550000000	7.6436482430
2.9600000000	7.4412029852
2.9650000000	7.2172534326
2.9700000000	6.9859057907
2.9750000000	6.7592150971
2.9800000000	6.5464184774
2.9850000000	6.3538176670
2.9900000000	6.1852031070
2.9950000000	6.0423540351
3.0000000000	5.9256445515
