# energy (eV)    P(omega), $W$ = 300 nm, $h$ = 300 nm, $s$ = 20 nm, $d/W = 5$, $E_{\rm e}$ = 200 keV
0.2000000000	0.1425351263
0.2050000000	0.1445821304
0.2100000000	0.1465065428
0.2150000000	0.1483121911
0.2200000000	0.1500023742
0.2250000000	0.1515798184
0.2300000000	0.1530465228
0.2350000000	0.1544037342
0.2400000000	0.1556518026
0.2450000000	0.1567898734
0.2500000000	0.1578160600
0.2550000000	0.1587267464
0.2600000000	0.1595166494
0.2650000000	0.1601784119
0.2700000000	0.1607019477
0.2750000000	0.1610740568
0.2800000000	0.1612776304
0.2850000000	0.1612907955
0.2900000000	0.1610854515
0.2950000000	0.1606261635
0.3000000000	0.1598673068
0.3050000000	0.1587512379
0.3100000000	0.1572039536
0.3150000000	0.1656672207
0.3200000000	0.1757199793
0.3250000000	0.1884276242
0.3300000000	0.2054322474
0.3350000000	0.2266056746
0.3400000000	0.2543355274
0.3450000000	0.2879995322
0.3500000000	0.3320567115
0.3550000000	0.3903822630
0.3600000000	0.4665959321
0.3650000000	0.5728971506
0.3700000000	0.7132034541
0.3750000000	0.9085266612
0.3800000000	1.1912270698
0.3850000000	1.6320046174
0.3900000000	2.3288757333
0.3950000000	3.5134823006
0.4000000000	5.7733143801
0.4050000000	10.8432595141
0.4100000000	24.6873906112
0.4150000000	79.2955126605
0.4200000000	50.4730708338
0.4250000000	-95.2826400092
0.4300000000	26.5532498802
0.4350000000	16.5685627017
0.4400000000	10.1440173883
0.4450000000	6.6832838725
0.4500000000	4.6896919355
0.4550000000	3.4620915582
0.4600000000	2.6620967382
0.4650000000	2.1166596283
0.4700000000	1.7309745037
0.4750000000	1.4519466753
0.4800000000	1.2450258950
0.4850000000	1.0893217693
0.4900000000	0.9704966375
0.4950000000	0.8789213267
0.5000000000	0.8080159607
0.5050000000	0.7529470823
0.5100000000	0.7106087723
0.5150000000	0.6787156620
0.5200000000	0.6548645272
0.5250000000	0.6379852412
0.5300000000	0.6269194707
0.5350000000	0.6208225148
0.5400000000	0.6190726765
0.5450000000	0.6211509213
0.5500000000	0.6269028448
0.5550000000	0.6360389770
0.5600000000	0.6484184310
0.5650000000	0.6639817902
0.5700000000	0.6826788457
0.5750000000	0.7046434514
0.5800000000	0.7300931565
0.5850000000	0.7591709529
0.5900000000	0.7921487624
0.5950000000	0.8293637361
0.6000000000	0.8712447893
0.6050000000	0.9184066318
0.6100000000	0.9714414857
0.6150000000	1.0311530296
0.6200000000	1.0986139925
0.6250000000	1.1748514450
0.6300000000	1.2613834632
0.6350000000	1.3601021928
0.6400000000	1.4729772864
0.6450000000	1.6028503398
0.6500000000	1.7534587892
0.6550000000	1.9286940818
0.6600000000	2.1345347694
0.6650000000	2.3786583713
0.6700000000	2.6700906183
0.6750000000	3.0225897470
0.6800000000	3.4546798408
0.6850000000	3.9906096510
0.6900000000	4.6679669195
0.6950000000	5.5393042190
0.7000000000	6.6881504453
0.7050000000	8.2421961479
0.7100000000	10.4178657693
0.7150000000	13.6004683750
0.7200000000	18.5074896060
0.7250000000	26.6558890171
0.7300000000	41.6181130124
0.7350000000	73.6454268773
0.7400000000	161.5168358167
0.7450000000	536.2264278813
0.7500000000	1662.4809693510
0.7550000000	418.5522731264
0.7600000000	138.7221371983
0.7650000000	66.5198807817
0.7700000000	38.7163844123
0.7750000000	25.2894639054
0.7800000000	17.8117986465
0.7850000000	13.2397760924
0.7900000000	10.2373943464
0.7950000000	8.1659624838
0.8000000000	6.6763689544
0.8050000000	5.5665727246
0.8100000000	4.7199977990
0.8150000000	4.0486363636
0.8200000000	3.5186111734
0.8250000000	3.0917194397
0.8300000000	2.7419095113
0.8350000000	2.4542372241
0.8400000000	2.2130264338
0.8450000000	2.0105747517
0.8500000000	1.8394302392
0.8550000000	1.6916978105
0.8600000000	1.5655811329
0.8650000000	1.4578817799
0.8700000000	1.3626914169
0.8750000000	1.2817612786
0.8800000000	1.2131531209
0.8850000000	1.1516355619
0.8900000000	1.1024205368
0.8950000000	1.0576446493
0.9000000000	1.0223029001
0.9050000000	0.9982367205
0.9100000000	0.9761958532
0.9150000000	0.9631613564
0.9200000000	0.9623992230
0.9250000000	0.9620032274
0.9300000000	0.9485601656
0.9350000000	0.9064441927
0.9400000000	0.6686549049
0.9450000000	-0.4149573108
0.9500000000	-6.1394099482
0.9550000000	-35.1958126145
0.9600000000	8.3132820001
0.9650000000	14.6116506770
0.9700000000	6.4852379070
0.9750000000	3.4061440426
0.9800000000	2.1351903694
0.9850000000	1.5405952083
0.9900000000	1.1978262375
0.9950000000	0.9899090773
1.0000000000	0.8571285001
1.0050000000	0.7729855348
1.0100000000	0.7076799129
1.0150000000	0.6599418757
1.0200000000	0.6278023393
1.0250000000	0.6007548022
1.0300000000	0.5801611999
1.0350000000	0.5645259203
1.0400000000	0.5545387092
1.0450000000	0.5461408342
1.0500000000	0.5404883903
1.0550000000	0.5372577784
1.0600000000	0.5371957005
1.0650000000	0.5382244400
1.0700000000	0.5411828389
1.0750000000	0.5460807185
1.0800000000	0.5534678931
1.0850000000	0.5628593268
1.0900000000	0.5768590512
1.0950000000	0.5935079416
1.1000000000	0.6133907190
1.1050000000	0.6362510934
1.1100000000	0.6628360369
1.1150000000	0.6937346358
1.1200000000	0.7296699985
1.1250000000	0.7714661338
1.1300000000	0.8203700766
1.1350000000	0.8778873088
1.1400000000	0.9457607320
1.1450000000	1.0270434670
1.1500000000	1.1251620977
1.1550000000	1.2450202208
1.1600000000	1.3935347976
1.1650000000	1.5797077939
1.1700000000	1.8202658784
1.1750000000	2.1375335085
1.1800000000	2.5683633645
1.1850000000	3.1732957426
1.1900000000	4.0666005074
1.1950000000	5.4672897775
1.2000000000	7.8411415491
1.2050000000	12.3247707919
1.2100000000	22.1855268794
1.2150000000	48.8425149916
1.2200000000	119.7903439290
1.2250000000	107.7317256872
1.2300000000	43.1025606337
1.2350000000	20.3235051939
1.2400000000	11.6998107529
1.2450000000	7.7478158671
1.2500000000	5.6716413397
1.2550000000	4.4831979344
1.2600000000	3.7711255517
1.2650000000	3.3378542480
1.2700000000	3.0960965686
1.2750000000	2.9895410737
1.2800000000	2.9927396810
1.2850000000	3.0963838136
1.2900000000	3.3033154630
1.2950000000	3.6253324377
1.3000000000	4.0994239783
1.3050000000	4.7737477016
1.3100000000	5.7353857904
1.3150000000	7.1343677229
1.3200000000	9.2392936931
1.3250000000	12.5631092642
1.3300000000	18.2253600215
1.3350000000	28.8254803446
1.3400000000	51.4793676409
1.3450000000	107.7305514861
1.3500000000	228.8594543957
1.3550000000	213.5840673995
1.3600000000	98.5316541972
1.3650000000	48.4193933398
1.3700000000	27.7678950971
1.3750000000	17.8555592119
1.3800000000	12.4506126056
1.3850000000	9.1952737044
1.3900000000	7.0982807466
1.3950000000	5.6685026448
1.4000000000	4.6532081699
1.4050000000	3.9097687793
1.4100000000	3.3526625639
1.4150000000	2.9323333363
1.4200000000	2.6163303615
1.4250000000	2.4048621563
1.4300000000	2.3279159292
1.4350000000	2.3721486094
1.4400000000	1.8283707527
1.4450000000	0.1614573181
1.4500000000	-2.5432500819
1.4550000000	-0.7116430090
1.4600000000	3.0848585339
1.4650000000	1.6690457672
1.4700000000	-1.5812156774
1.4750000000	-6.9129682246
1.4800000000	-3.0769652754
1.4850000000	5.0554699951
1.4900000000	4.0980108484
1.4950000000	2.6524475845
1.5000000000	1.8635996192
1.5050000000	1.4388460513
1.5100000000	1.1967535463
1.5150000000	1.0497371655
1.5200000000	0.9547723834
1.5250000000	0.8957717870
1.5300000000	0.8507077775
1.5350000000	0.8196512044
1.5400000000	0.7992012646
1.5450000000	0.7875340753
1.5500000000	0.7834719160
1.5550000000	0.7870467807
1.5600000000	0.8003593667
1.5650000000	0.8223369208
1.5700000000	0.8579104651
1.5750000000	0.9130984490
1.5800000000	0.9992007528
1.5850000000	1.1382131334
1.5900000000	1.3764774617
1.5950000000	1.8165459931
1.6000000000	2.6750444471
1.6050000000	4.0945822069
1.6100000000	4.7520692419
1.6150000000	3.5196633048
1.6200000000	2.3634683325
1.6250000000	1.7531236075
1.6300000000	1.4466386930
1.6350000000	1.2888186043
1.6400000000	1.2087911774
1.6450000000	1.1736155935
1.6500000000	1.1667950940
1.6550000000	1.1806016162
1.6600000000	1.2104214208
1.6650000000	1.2541465426
1.6700000000	1.3109738469
1.6750000000	1.3809049166
1.6800000000	1.4645620781
1.6850000000	1.5629118289
1.6900000000	1.6768056203
1.6950000000	1.8046104932
1.7000000000	1.9441545744
1.7050000000	2.0870549661
1.7100000000	2.2500534581
1.7150000000	2.6560629243
1.7200000000	3.3688475639
1.7250000000	4.0214069855
1.7300000000	4.7213461237
1.7350000000	5.4905212458
1.7400000000	6.2455565462
1.7450000000	7.2154601665
1.7500000000	8.6820668671
1.7550000000	10.8648517711
1.7600000000	14.1306453560
1.7650000000	19.1648688149
1.7700000000	27.2741222521
1.7750000000	40.9361362754
1.7800000000	64.2160249098
1.7850000000	98.5486304548
1.7900000000	122.4701784351
1.7950000000	104.2863614364
1.8000000000	69.4059642153
1.8050000000	43.8317996728
1.8100000000	28.8996124906
1.8150000000	20.1472467478
1.8200000000	14.7609150318
1.8250000000	11.2689388366
1.8300000000	8.8980130120
1.8350000000	7.2245236080
1.8400000000	6.0053192124
1.8450000000	5.0929004446
1.8500000000	4.3943104581
1.8550000000	3.8513846153
1.8600000000	3.4235494336
1.8650000000	3.0832322130
1.8700000000	2.8108251503
1.8750000000	2.5919366669
1.8800000000	2.4151558797
1.8850000000	2.2704061243
1.8900000000	2.1460820624
1.8950000000	2.0248676812
1.9000000000	1.8768575542
1.9050000000	1.5964519212
1.9100000000	1.2106836028
1.9150000000	1.0078658085
1.9200000000	2.4571646513
1.9250000000	6.4578392075
1.9300000000	9.6305616452
1.9350000000	9.4816745743
1.9400000000	7.4570985864
1.9450000000	5.4943079651
1.9500000000	4.1162432111
1.9550000000	3.2133184837
1.9600000000	2.6166531289
1.9650000000	2.2172896996
1.9700000000	1.9289987468
1.9750000000	1.7176708942
1.9800000000	1.5563278967
1.9850000000	1.4253958312
1.9900000000	1.3098956366
1.9950000000	1.1967533579
2.0000000000	1.0840641468
2.0050000000	1.0120579741
2.0100000000	1.0532967438
2.0150000000	1.1669158785
2.0200000000	1.2369546468
2.0250000000	1.2555254230
2.0300000000	1.2596590256
2.0350000000	1.2672110598
2.0400000000	1.2848105908
2.0450000000	1.3141429692
2.0500000000	1.3562977739
2.0550000000	1.4122633518
2.0600000000	1.4820401613
2.0650000000	1.5614134115
2.0700000000	1.6399305535
2.0750000000	1.7097620633
2.0800000000	1.7778291318
2.0850000000	1.8584381589
2.0900000000	1.9611841671
2.0950000000	2.0901143485
2.1000000000	2.2495921796
2.1050000000	2.4381797384
2.1100000000	2.6691313804
2.1150000000	2.9521376087
2.1200000000	3.3007862482
2.1250000000	3.7341351688
2.1300000000	4.2790474283
2.1350000000	4.9738744910
2.1400000000	5.8739948085
2.1450000000	7.0603717542
2.1500000000	8.6509722182
2.1550000000	10.8127524008
2.1600000000	13.7593903582
2.1650000000	17.6718471183
2.1700000000	22.4777252615
2.1750000000	27.2557344454
2.1800000000	30.2077919894
2.1850000000	30.3607700452
2.1900000000	29.0177875978
2.1950000000	27.9724442724
2.2000000000	27.5086455037
2.2050000000	26.2222141746
2.2100000000	23.4917814909
2.2150000000	20.1350180193
2.2200000000	17.1217807841
2.2250000000	14.6312230212
2.2300000000	12.4374985358
2.2350000000	10.4534427343
2.2400000000	8.7489341637
2.2450000000	7.3850372791
2.2500000000	6.3395296492
2.2550000000	5.5542160788
2.2600000000	4.9663210906
2.2650000000	4.5129154730
2.2700000000	4.1259453172
2.2750000000	3.7383367064
2.2800000000	3.3208840294
2.2850000000	2.9235069177
2.2900000000	2.6487672708
2.2950000000	2.5547581116
2.3000000000	2.5880586376
2.3050000000	2.6390641464
2.3100000000	2.6432496464
2.3150000000	2.6011315366
2.3200000000	2.5406398449
2.3250000000	2.4906241949
2.3300000000	2.4658441348
2.3350000000	2.4688284827
2.3400000000	2.4912921542
2.3450000000	2.5144919244
2.3500000000	2.5148276945
2.3550000000	2.4772426233
2.3600000000	2.4059977659
2.3650000000	2.3197133582
2.3700000000	2.2375831132
2.3750000000	2.1710720479
2.3800000000	2.1239078248
2.3850000000	2.0950435034
2.3900000000	2.0820833582
2.3950000000	2.0822498441
2.4000000000	2.0962974676
2.4050000000	2.1288532828
2.4100000000	2.1814648463
2.4150000000	2.2562763421
2.4200000000	2.3545757802
2.4250000000	2.4786229720
2.4300000000	2.6317158791
2.4350000000	2.8182787959
2.4400000000	3.0440210195
2.4450000000	3.3162323433
2.4500000000	3.6441096545
2.4550000000	4.0392124113
2.4600000000	4.5157427545
2.4650000000	5.0907400239
2.4700000000	5.7837462850
2.4750000000	6.6143354093
2.4800000000	7.6027205413
2.4850000000	8.7569000098
2.4900000000	10.0655876179
2.4950000000	11.4819504636
2.5000000000	12.9069572327
2.5050000000	14.2400175552
2.5100000000	15.1406708688
2.5150000000	15.4125332838
2.5200000000	15.0087620604
2.5250000000	14.0539896917
2.5300000000	12.7654177612
2.5350000000	11.3525706895
2.5400000000	9.9635075637
2.5450000000	8.6819005182
2.5500000000	7.5449668937
2.5550000000	6.5611838316
2.5600000000	5.7170263558
2.5650000000	5.0073089157
2.5700000000	4.4153171328
2.5750000000	3.9305868419
2.5800000000	3.5453021040
2.5850000000	3.2509688442
2.5900000000	3.0336191601
2.5950000000	2.8736166809
2.6000000000	2.7505159459
2.6050000000	2.6630301173
2.6100000000	2.5872836202
2.6150000000	2.5220755182
2.6200000000	2.4686931145
2.6250000000	2.4285634822
2.6300000000	2.4026397327
2.6350000000	2.3914082188
2.6400000000	2.3951517363
2.6450000000	2.4141329615
2.6500000000	2.4488665780
2.6550000000	2.4994969532
2.6600000000	2.5668007710
2.6650000000	2.6515629446
2.6700000000	2.7547476679
2.6750000000	2.8775229487
2.6800000000	3.0211833980
2.6850000000	3.1870529285
2.6900000000	3.3762153684
2.6950000000	3.5892984008
2.7000000000	3.8260842536
2.7050000000	4.1135006044
2.7100000000	4.4271612056
2.7150000000	4.7609517320
2.7200000000	5.1059817058
2.7250000000	5.4510856713
2.7300000000	5.7836696832
2.7350000000	6.0904387932
2.7400000000	6.3575726742
2.7450000000	6.5728093774
2.7500000000	6.7171245841
2.7550000000	6.7790055396
2.7600000000	6.7497162462
2.7650000000	6.6282443867
2.7700000000	6.4227266654
2.7750000000	6.1494617987
2.7800000000	5.8296932855
2.7850000000	5.4859574031
2.7900000000	5.1384751201
2.7950000000	4.8034617867
2.8000000000	4.4923833201
2.8050000000	4.1776475173
2.8100000000	3.9082791757
2.8150000000	3.6835560448
2.8200000000	3.4998605685
2.8250000000	3.3524250599
2.8300000000	3.2364467798
2.8350000000	3.1478151997
2.8400000000	3.0822035413
2.8450000000	3.0397620583
2.8500000000	3.0173462235
2.8550000000	3.0137577272
2.8600000000	3.0281016395
2.8650000000	3.0595715184
2.8700000000	3.1072650484
2.8750000000	3.1700370640
2.8800000000	3.2463863494
2.8850000000	3.3343604644
2.8900000000	3.4316122982
2.8950000000	3.5354877931
2.9000000000	3.6431961734
2.9050000000	3.7726078264
2.9100000000	3.8967384878
2.9150000000	4.0116853867
2.9200000000	4.1133536988
2.9250000000	4.1970979965
2.9300000000	4.2586409045
2.9350000000	4.2913277884
2.9400000000	4.2922876155
2.9450000000	4.2602980078
2.9500000000	4.1972041184
2.9550000000	4.1077997907
2.9600000000	3.9990036675
2.9650000000	3.8786549768
2.9700000000	3.7543338302
2.9750000000	3.6325180765
2.9800000000	3.5181711479
2.9850000000	3.4146793529
2.9900000000	3.3240792905
2.9950000000	3.2473266993
3.0000000000	3.1846224676
