# energy (eV)    P(omega), $W$ = 300 nm, $h$ = 300 nm, $s$ = 20 nm, $d/W = 5$, $E_{\rm e}$ = 200 keV
0.2000000000	0.3055658408
0.2050000000	0.3099556380
0.2100000000	0.3140819939
0.2150000000	0.3179531444
0.2200000000	0.3215761896
0.2250000000	0.3249570000
0.2300000000	0.3280998870
0.2350000000	0.3310075452
0.2400000000	0.3336807423
0.2450000000	0.3361176640
0.2500000000	0.3383142791
0.2550000000	0.3402628432
0.2600000000	0.3419520414
0.2650000000	0.3433660995
0.2700000000	0.3444833949
0.2750000000	0.3452756240
0.2800000000	0.3457060995
0.2850000000	0.3457279097
0.2900000000	0.3452807861
0.2950000000	0.3442887367
0.3000000000	0.3426539000
0.3050000000	0.3402526456
0.3100000000	0.3369262537
0.3150000000	0.3550787271
0.3200000000	0.3766404210
0.3250000000	0.4038968804
0.3300000000	0.4403705788
0.3350000000	0.4857858190
0.3400000000	0.5452639798
0.3450000000	0.6174690659
0.3500000000	0.7119653968
0.3550000000	0.8370640592
0.3600000000	1.0005271350
0.3650000000	1.2285196667
0.3700000000	1.5294392649
0.3750000000	1.9483486716
0.3800000000	2.5546464620
0.3850000000	3.4999543646
0.3900000000	4.9944658352
0.3950000000	7.5349358622
0.4000000000	12.3812307257
0.4050000000	23.2537638993
0.4100000000	52.9421447314
0.4150000000	170.0460450276
0.4200000000	108.2387441846
0.4250000000	-204.3211464651
0.4300000000	56.9377154193
0.4350000000	35.5267806866
0.4400000000	21.7504436665
0.4450000000	14.3296044050
0.4500000000	10.0548113665
0.4550000000	7.4225419612
0.4600000000	5.7071819101
0.4650000000	4.5376608142
0.4700000000	3.7106861203
0.4750000000	3.1124068377
0.4800000000	2.6687383633
0.4850000000	2.3348859965
0.4900000000	2.0801064185
0.4950000000	1.8837525628
0.5000000000	1.7317157058
0.5050000000	1.6136319888
0.5100000000	1.5228415579
0.5150000000	1.4544439212
0.5200000000	1.4032864787
0.5250000000	1.3670743214
0.5300000000	1.3433238331
0.5350000000	1.3302236858
0.5400000000	1.3264407482
0.5450000000	1.3308620062
0.5500000000	1.3431559721
0.5550000000	1.3627017993
0.5600000000	1.3891969829
0.5650000000	1.4225137907
0.5700000000	1.4625441439
0.5750000000	1.5095744440
0.5800000000	1.5640703481
0.5850000000	1.6263377672
0.5900000000	1.6969588372
0.5950000000	1.7766554054
0.6000000000	1.8663458402
0.6050000000	1.9673465782
0.6100000000	2.0809257457
0.6150000000	2.2088043865
0.6200000000	2.3532797000
0.6250000000	2.5165511999
0.6300000000	2.7018697896
0.6350000000	2.9132875987
0.6400000000	3.1550225698
0.6450000000	3.4331600719
0.6500000000	3.7557037630
0.6550000000	4.1309871899
0.6600000000	4.5718136926
0.6650000000	5.0946240595
0.6700000000	5.7187472146
0.6750000000	6.4736459852
0.6800000000	7.3989891776
0.6850000000	8.5467046878
0.6900000000	9.9972854622
0.6950000000	11.8632700579
0.7000000000	14.3235314990
0.7050000000	17.6515116759
0.7100000000	22.3106685458
0.7150000000	29.1261147211
0.7200000000	39.6342900471
0.7250000000	57.0836292592
0.7300000000	89.1241957229
0.7350000000	157.7080442947
0.7400000000	345.8762068948
0.7450000000	1148.2749369695
0.7500000000	3559.9928400282
0.7550000000	896.2659819394
0.7600000000	297.0487521125
0.7650000000	142.4387510128
0.7700000000	82.9022271770
0.7750000000	54.1509058178
0.7800000000	38.1389350484
0.7850000000	28.3488916431
0.7900000000	21.9199478863
0.7950000000	17.4844551695
0.8000000000	14.2948522108
0.8050000000	11.9185063664
0.8100000000	10.1057916783
0.8150000000	8.6682591411
0.8200000000	7.5333644493
0.8250000000	6.6193041186
0.8300000000	5.8702953890
0.8350000000	5.2543369530
0.8400000000	4.7378633926
0.8450000000	4.3043812122
0.8500000000	3.9379333545
0.8550000000	3.6216159704
0.8600000000	3.3515814804
0.8650000000	3.1209803849
0.8700000000	2.9171640396
0.8750000000	2.7438796548
0.8800000000	2.5969768681
0.8850000000	2.4652565578
0.8900000000	2.3598743325
0.8950000000	2.2639975955
0.9000000000	2.1883174510
0.9050000000	2.1367744637
0.9100000000	2.0895686336
0.9150000000	2.0616418869
0.9200000000	2.0599838389
0.9250000000	2.0591111812
0.9300000000	2.0303173402
0.9350000000	1.9401635164
0.9400000000	1.4312465505
0.9450000000	-0.8878155386
0.9500000000	-13.1386628394
0.9550000000	-75.3213580270
0.9600000000	17.7908084039
0.9650000000	31.2693043701
0.9700000000	13.8784690719
0.9750000000	7.2891519716
0.9800000000	4.5693073095
0.9850000000	3.2968761673
0.9900000000	2.5633566219
0.9950000000	2.1184192346
1.0000000000	1.8342726454
1.0050000000	1.6542079383
1.0100000000	1.5144566228
1.0150000000	1.4122997265
1.0200000000	1.3435221416
1.0250000000	1.2856429527
1.0300000000	1.2415755025
1.0350000000	1.2081193312
1.0400000000	1.1867496052
1.0450000000	1.1687827289
1.0500000000	1.1566919588
1.0550000000	1.1497848453
1.0600000000	1.1496587090
1.0650000000	1.1518689647
1.0700000000	1.1582102337
1.0750000000	1.1687035493
1.0800000000	1.1845252157
1.0850000000	1.2046393917
1.0900000000	1.2346202191
1.0950000000	1.2702737356
1.1000000000	1.3128514798
1.1050000000	1.3618069802
1.1100000000	1.4187391920
1.1150000000	1.4849098866
1.1200000000	1.5618671936
1.1250000000	1.6513783153
1.1300000000	1.7561136205
1.1350000000	1.8792980000
1.1400000000	2.0246642434
1.1450000000	2.1987546603
1.1500000000	2.4089087175
1.1550000000	2.6656310334
1.1600000000	2.9837392632
1.1650000000	3.3825168659
1.1700000000	3.8977981920
1.1750000000	4.5774070678
1.1800000000	5.5002909240
1.1850000000	6.7961427263
1.1900000000	8.7097531365
1.1950000000	11.7103041065
1.2000000000	16.7956005488
1.2050000000	26.4005328488
1.2100000000	47.5244913645
1.2150000000	104.6295484315
1.2200000000	256.6138504914
1.2250000000	230.7784996116
1.2300000000	92.3289847006
1.2350000000	43.5316545189
1.2400000000	25.0578849804
1.2450000000	16.5917027243
1.2500000000	12.1437940410
1.2550000000	9.5974779030
1.2600000000	8.0715340375
1.2650000000	7.1427187765
1.2700000000	6.6240112326
1.2750000000	6.3947526286
1.2800000000	6.4003802036
1.2850000000	6.6208857958
1.2900000000	7.0622614559
1.2950000000	7.7496545732
1.3000000000	8.7620726029
1.3050000000	10.2023652399
1.3100000000	12.2565639372
1.3150000000	15.2451850159
1.3200000000	19.7420752300
1.3250000000	26.8430933392
1.3300000000	38.9401054851
1.3350000000	61.5866486798
1.3400000000	109.9853951643
1.3450000000	230.1626168839
1.3500000000	488.9458720678
1.3550000000	456.3081546513
1.3600000000	210.5056152078
1.3650000000	103.4443467209
1.3700000000	59.3240157670
1.3750000000	38.1471073232
1.3800000000	26.5998808658
1.3850000000	19.6451062691
1.3900000000	15.1650280508
1.3950000000	12.1103918410
1.4000000000	9.9412459813
1.4050000000	8.3528721417
1.4100000000	7.1625417459
1.4150000000	6.2643461483
1.4200000000	5.5888887538
1.4250000000	5.1364487015
1.4300000000	4.9706679502
1.4350000000	5.0626305070
1.4400000000	3.8990980125
1.4450000000	0.3355811930
1.4500000000	-5.4501529553
1.4550000000	-1.5283980984
1.4600000000	6.5987140896
1.4650000000	3.5726839728
1.4700000000	-3.3729947595
1.4750000000	-14.7631598107
1.4800000000	-6.5705475189
1.4850000000	10.7994788010
1.4900000000	8.7540843321
1.4950000000	5.6662633803
1.5000000000	3.9812095369
1.5050000000	3.0738617944
1.5100000000	2.5566970658
1.5150000000	2.2426184816
1.5200000000	2.0397243782
1.5250000000	1.9136549101
1.5300000000	1.8173470811
1.5350000000	1.7509558040
1.5400000000	1.7072146356
1.5450000000	1.6822240018
1.5500000000	1.6734657475
1.5550000000	1.6810013234
1.5600000000	1.7093103357
1.5650000000	1.7560855162
1.5700000000	1.8318390323
1.5750000000	1.9493888414
1.5800000000	2.1328034790
1.5850000000	2.4289342032
1.5900000000	2.9364898889
1.5950000000	3.8739064060
1.6000000000	5.7025850962
1.6050000000	8.7262331787
1.6100000000	10.1266001100
1.6150000000	7.5015671417
1.6200000000	5.0389941499
1.6250000000	3.7391283008
1.6300000000	3.0865033748
1.6350000000	2.7505520857
1.6400000000	2.5803197988
1.6450000000	2.5056467171
1.6500000000	2.4913995582
1.6550000000	2.5211218612
1.6600000000	2.5849925585
1.6650000000	2.6785285969
1.6700000000	2.8000277563
1.6750000000	2.9495034556
1.6800000000	3.1282945039
1.6850000000	3.3384763307
1.6900000000	3.5818852503
1.6950000000	3.8550719967
1.7000000000	4.1534673344
1.7050000000	4.4593325034
1.7100000000	4.8083895060
1.7150000000	5.6753425985
1.7200000000	7.1961214007
1.7250000000	8.5897670835
1.7300000000	10.0856202547
1.7350000000	11.7292300369
1.7400000000	13.3418937783
1.7450000000	15.4132209463
1.7500000000	18.5456257494
1.7550000000	23.2079235467
1.7600000000	30.1836058479
1.7650000000	40.9366893529
1.7700000000	58.2580215300
1.7750000000	87.4399574832
1.7800000000	137.1653843133
1.7850000000	210.4987277946
1.7900000000	261.5933741999
1.7950000000	222.7516970307
1.8000000000	148.2473672205
1.8050000000	93.6215137660
1.8100000000	61.7268219693
1.8150000000	43.0320903394
1.8200000000	31.5270960181
1.8250000000	24.0683687957
1.8300000000	19.0041479264
1.8350000000	15.4296057343
1.8400000000	12.8253783799
1.8450000000	10.8764092644
1.8500000000	9.3841428766
1.8550000000	8.2243377384
1.8600000000	7.3103233763
1.8650000000	6.5831960402
1.8700000000	6.0010609648
1.8750000000	5.5331586834
1.8800000000	5.1550880644
1.8850000000	4.8452841579
1.8900000000	4.5788949997
1.8950000000	4.3188346450
1.9000000000	4.0010648727
1.9050000000	3.3996150526
1.9100000000	2.5717878935
1.9150000000	2.1325534831
1.9200000000	5.2188392446
1.9250000000	13.7514867178
1.9300000000	20.5185074820
1.9350000000	20.2032987401
1.9400000000	15.8907070458
1.9450000000	11.7094754539
1.9500000000	8.7737503836
1.9550000000	6.8501580942
1.9600000000	5.5789797809
1.9650000000	4.7281624860
1.9700000000	4.1139301191
1.9750000000	3.6636746458
1.9800000000	3.3199247903
1.9850000000	3.0409843404
1.9900000000	2.7949482290
1.9950000000	2.5539722287
2.0000000000	2.3139961631
2.0050000000	2.1606921826
2.0100000000	2.2485392171
2.0150000000	2.4905245584
2.0200000000	2.6397454531
2.0250000000	2.6794125450
2.0300000000	2.6883820269
2.0350000000	2.7046722646
2.0400000000	2.7424126220
2.0450000000	2.8052072274
2.0500000000	2.8953959732
2.0550000000	3.0151041342
2.0600000000	3.1643337516
2.0650000000	3.3340436952
2.0700000000	3.5018118479
2.0750000000	3.6508337132
2.0800000000	3.7959340296
2.0850000000	3.9677735417
2.0900000000	4.1869032469
2.0950000000	4.4619758131
2.1000000000	4.8022964331
2.1050000000	5.2047820390
2.1100000000	5.6977192661
2.1150000000	6.3017859815
2.1200000000	7.0459812836
2.1250000000	7.9709816012
2.1300000000	9.1341242069
2.1350000000	10.6172700598
2.1400000000	12.5386227096
2.1450000000	15.0709973676
2.1500000000	18.4661914355
2.1550000000	23.0805666982
2.1600000000	29.3702108253
2.1650000000	37.7213731276
2.1700000000	47.9795576238
2.1750000000	58.1783996549
2.1800000000	64.4802023286
2.1850000000	64.8081659622
2.1900000000	61.9438198909
2.1950000000	59.7151873669
2.2000000000	58.7272138431
2.2050000000	55.9806039658
2.2100000000	50.1484261142
2.2150000000	42.9773983645
2.2200000000	36.5397080952
2.2250000000	31.2194229849
2.2300000000	26.5353519690
2.2350000000	22.3009278371
2.2400000000	18.6640500121
2.2450000000	15.7541479765
2.2500000000	13.5234162641
2.2550000000	11.8475818061
2.2600000000	10.5927083652
2.2650000000	9.6246023970
2.2700000000	8.7982255599
2.2750000000	7.9707086606
2.2800000000	7.0799456432
2.2850000000	6.2324714820
2.2900000000	5.6469622122
2.2950000000	5.4471635848
2.3000000000	5.5189295291
2.3050000000	5.6283336477
2.3100000000	5.6376307493
2.3150000000	5.5479444959
2.3200000000	5.4189007614
2.3250000000	5.3120857721
2.3300000000	5.2590134454
2.3350000000	5.2651047498
2.3400000000	5.3127288579
2.3450000000	5.3619745477
2.3500000000	5.3625847293
2.3550000000	5.2824957277
2.3600000000	5.1307816377
2.3650000000	4.9470932408
2.3700000000	4.7723013598
2.3750000000	4.6308144479
2.3800000000	4.5305574309
2.3850000000	4.4692805483
2.3900000000	4.4418631237
2.3950000000	4.4423753381
2.4000000000	4.4724349973
2.4050000000	4.5419325296
2.4100000000	4.6541843152
2.4150000000	4.8137819159
2.4200000000	5.0234866214
2.4250000000	5.2881247334
2.4300000000	5.6147324037
2.4350000000	6.0127478958
2.4400000000	6.4943507563
2.4450000000	7.0750913603
2.4500000000	7.7745900472
2.4550000000	8.6175070403
2.4600000000	9.6341411693
2.4650000000	10.8608449002
2.4700000000	12.3393105867
2.4750000000	14.1113016359
2.4800000000	16.2199504181
2.4850000000	18.6823316435
2.4900000000	21.4743769178
2.4950000000	24.4961648064
2.5000000000	27.5363750639
2.5050000000	30.3803118310
2.5100000000	32.3014985343
2.5150000000	32.8809472067
2.5200000000	32.0188566454
2.5250000000	29.9813429824
2.5300000000	27.2319458223
2.5350000000	24.2176864815
2.5400000000	21.2543453499
2.5450000000	18.5203210108
2.5500000000	16.0949326477
2.5550000000	13.9962311588
2.5600000000	12.1953587784
2.5650000000	10.6812741298
2.5700000000	9.4183362020
2.5750000000	8.3842339607
2.5800000000	7.5623019897
2.5850000000	6.9344215154
2.5900000000	6.4707898408
2.5950000000	6.1295054381
2.6000000000	5.8669395729
2.6050000000	5.6803364693
2.6100000000	5.5187562979
2.6150000000	5.3796384682
2.6200000000	5.2657321745
2.6250000000	5.1800831441
2.6300000000	5.1247247399
2.6350000000	5.1006947718
2.6400000000	5.1085954256
2.6450000000	5.1489877408
2.6500000000	5.2229692912
2.6550000000	5.3308475898
2.6600000000	5.4742793548
2.6650000000	5.6549381736
2.6700000000	5.8748795978
2.6750000000	6.1365945074
2.6800000000	6.4428427194
2.6850000000	6.7964475551
2.6900000000	7.1997214534
2.6950000000	7.6540064221
2.7000000000	8.1588434053
2.7050000000	8.7716518001
2.7100000000	9.4404603860
2.7150000000	10.1522523586
2.7200000000	10.8880936143
2.7250000000	11.6241947332
2.7300000000	12.3337082951
2.7350000000	12.9882739238
2.7400000000	13.5583909846
2.7450000000	14.0178668002
2.7500000000	14.3260758324
2.7550000000	14.4584194587
2.7600000000	14.3962330170
2.7650000000	14.1373416059
2.7700000000	13.6990996938
2.7750000000	13.1162818499
2.7800000000	12.4342152130
2.7850000000	11.7009864749
2.7900000000	10.9597406607
2.7950000000	10.2450763555
2.8000000000	9.5814580682
2.8050000000	8.9100271362
2.8100000000	8.3353647528
2.8150000000	7.8559300860
2.8200000000	7.4640062966
2.8250000000	7.1494221473
2.8300000000	6.9019316249
2.8350000000	6.7127664532
2.8400000000	6.5726957980
2.8450000000	6.4820412797
2.8500000000	6.4340943493
2.8550000000	6.4262989129
2.8600000000	6.4567461345
2.8650000000	6.5237164115
2.8700000000	6.6252868646
2.8750000000	6.7590180190
2.8800000000	6.9217122688
2.8850000000	7.1092110935
2.8900000000	7.3165158586
2.8950000000	7.5379729828
2.9000000000	7.7676366255
2.9050000000	8.0436414934
2.9100000000	8.3084340367
2.9150000000	8.5536833570
2.9200000000	8.7706449281
2.9250000000	8.9493960453
2.9300000000	9.0808002974
2.9350000000	9.1506514828
2.9400000000	9.1528169671
2.9450000000	9.0846838333
2.9500000000	8.9501838306
2.9550000000	8.7595410672
2.9600000000	8.5275136211
2.9650000000	8.2708239111
2.9700000000	8.0056429002
2.9750000000	7.7457905649
2.9800000000	7.5018561707
2.9850000000	7.2810649765
2.9900000000	7.0877626547
2.9950000000	6.9239893206
3.0000000000	6.7901745504
