# energy (eV)    P(omega), $W$ = 300 nm, $h$ = 300 nm, $s$ = 20 nm, $d/W = 5$, $E_{\rm e}$ = 200 keV
0.2000000000	0.0663784584
0.2050000000	0.0673320029
0.2100000000	0.0682283145
0.2150000000	0.0690691829
0.2200000000	0.0698561510
0.2250000000	0.0705904944
0.2300000000	0.0712731502
0.2350000000	0.0719047037
0.2400000000	0.0724853225
0.2450000000	0.0730146123
0.2500000000	0.0734916980
0.2550000000	0.0739148976
0.2600000000	0.0742817532
0.2650000000	0.0745888387
0.2700000000	0.0748314575
0.2750000000	0.0750034613
0.2800000000	0.0750968807
0.2850000000	0.0751015260
0.2900000000	0.0750043055
0.2950000000	0.0747887119
0.3000000000	0.0744334874
0.3050000000	0.0739117769
0.3100000000	0.0731891031
0.3150000000	0.0771322323
0.3200000000	0.0818159228
0.3250000000	0.0877366525
0.3300000000	0.0956595910
0.3350000000	0.1055248405
0.3400000000	0.1184448847
0.3450000000	0.1341294987
0.3500000000	0.1546562802
0.3550000000	0.1818305778
0.3600000000	0.2173384804
0.3650000000	0.2668636206
0.3700000000	0.3322301075
0.3750000000	0.4232265507
0.3800000000	0.5549278203
0.3850000000	0.7602694309
0.3900000000	1.0849098440
0.3950000000	1.6367547442
0.4000000000	2.6894737822
0.4050000000	5.0512190679
0.4100000000	11.5001609801
0.4150000000	36.9375751782
0.4200000000	23.5117200045
0.4250000000	-44.3827357146
0.4300000000	12.3680215446
0.4350000000	7.7171247533
0.4400000000	4.7246240959
0.4450000000	3.1126681489
0.4500000000	2.1840975370
0.4550000000	1.6123163192
0.4600000000	1.2397062567
0.4650000000	0.9856633223
0.4700000000	0.8060282677
0.4750000000	0.6760703951
0.4800000000	0.5796969997
0.4850000000	0.5071777930
0.4900000000	0.4518347180
0.4950000000	0.4091828230
0.5000000000	0.3761574119
0.5050000000	0.3505072586
0.5100000000	0.3307857042
0.5150000000	0.3159282675
0.5200000000	0.3048157046
0.5250000000	0.2969495134
0.5300000000	0.2917902045
0.5350000000	0.2889443222
0.5400000000	0.2881222805
0.5450000000	0.2890823159
0.5500000000	0.2917524120
0.5550000000	0.2959977085
0.5600000000	0.3017524967
0.5650000000	0.3089890252
0.5700000000	0.3176838077
0.5750000000	0.3278990596
0.5800000000	0.3397359145
0.5850000000	0.3532608233
0.5900000000	0.3686002207
0.5950000000	0.3859109001
0.6000000000	0.4053923377
0.6050000000	0.4273304731
0.6100000000	0.4520007497
0.6150000000	0.4797769922
0.6200000000	0.5111581717
0.6250000000	0.5466220342
0.6300000000	0.5868747060
0.6350000000	0.6327963376
0.6400000000	0.6853030987
0.6450000000	0.7457167696
0.6500000000	0.8157758286
0.6550000000	0.8972903754
0.6600000000	0.9930413748
0.6650000000	1.1065999307
0.6700000000	1.2421643960
0.6750000000	1.4061343306
0.6800000000	1.6071261186
0.6850000000	1.8564188855
0.6900000000	2.1714962833
0.6950000000	2.5768025545
0.7000000000	3.1111902778
0.7050000000	3.8340530520
0.7100000000	4.8460574415
0.7150000000	6.3264240774
0.7200000000	8.6088790089
0.7250000000	12.3990066112
0.7300000000	19.3584570950
0.7350000000	34.2553790357
0.7400000000	75.1268946537
0.7450000000	249.4137971340
0.7500000000	773.2564709100
0.7550000000	194.6754566286
0.7600000000	64.5211182887
0.7650000000	30.9387089867
0.7700000000	18.0069482473
0.7750000000	11.7619556561
0.7800000000	8.2840419174
0.7850000000	6.1575752130
0.7900000000	4.7611634322
0.7950000000	3.7977433430
0.8000000000	3.1049393883
0.8050000000	2.5887806099
0.8100000000	2.1950464834
0.8150000000	1.8828045624
0.8200000000	1.6362976904
0.8250000000	1.4377575828
0.8300000000	1.2750678266
0.8350000000	1.1412775274
0.8400000000	1.0290960193
0.8450000000	0.9349407764
0.8500000000	0.8553458918
0.8550000000	0.7866396511
0.8600000000	0.7279863768
0.8650000000	0.6778983151
0.8700000000	0.6336280688
0.8750000000	0.5959895662
0.8800000000	0.5640813223
0.8850000000	0.5354708138
0.8900000000	0.5125811055
0.8950000000	0.4917560485
0.9000000000	0.4753178200
0.9050000000	0.4641223336
0.9100000000	0.4538689011
0.9150000000	0.4478030006
0.9200000000	0.4474428174
0.9250000000	0.4472532178
0.9300000000	0.4409989551
0.9350000000	0.4214169210
0.9400000000	0.3108769856
0.9450000000	-0.1928373428
0.9500000000	-2.8537946961
0.9550000000	-16.3602457226
0.9600000000	3.8642733383
0.9650000000	6.7918814480
0.9700000000	3.0144883722
0.9750000000	1.5832494720
0.9800000000	0.9924830125
0.9850000000	0.7161033786
0.9900000000	0.5567785513
0.9950000000	0.4601354798
1.0000000000	0.3984171273
1.0050000000	0.3593059786
1.0100000000	0.3289511341
1.0150000000	0.3067620188
1.0200000000	0.2918230889
1.0250000000	0.2792513483
1.0300000000	0.2696795947
1.0350000000	0.2624126714
1.0400000000	0.2577709915
1.0450000000	0.2538684210
1.0500000000	0.2512421661
1.0550000000	0.2497418254
1.0600000000	0.2497143473
1.0650000000	0.2501943310
1.0700000000	0.2515715802
1.0750000000	0.2538506640
1.0800000000	0.2572870838
1.0850000000	0.2616558364
1.0900000000	0.2681676493
1.0950000000	0.2759115704
1.1000000000	0.2851594374
1.1050000000	0.2957925355
1.1100000000	0.3081581656
1.1150000000	0.3225303746
1.1200000000	0.3392454168
1.1250000000	0.3586871102
1.1300000000	0.3814354480
1.1350000000	0.4081908686
1.1400000000	0.4397641166
1.1450000000	0.4775761378
1.1500000000	0.5232210439
1.1550000000	0.5789803768
1.1600000000	0.6480724624
1.1650000000	0.7346855745
1.1700000000	0.8466027273
1.1750000000	0.9942110426
1.1800000000	1.1946574557
1.1850000000	1.4761105996
1.1900000000	1.8917376940
1.1950000000	2.5434425111
1.2000000000	3.6479428429
1.2050000000	5.7340835460
1.2100000000	10.3220934655
1.2150000000	22.7249994457
1.2200000000	55.7351444953
1.2250000000	50.1238325083
1.2300000000	20.0533682700
1.2350000000	9.4548648895
1.2400000000	5.4424698919
1.2450000000	3.6036670341
1.2500000000	2.6376110124
1.2550000000	2.0845707660
1.2600000000	1.7531503329
1.2650000000	1.5514237910
1.2700000000	1.4387715673
1.2750000000	1.3889875820
1.2800000000	1.3902215320
1.2850000000	1.4381284773
1.2900000000	1.5340106464
1.2950000000	1.6833312002
1.3000000000	1.9032521170
1.3050000000	2.2161147066
1.3100000000	2.6623286737
1.3150000000	3.3115164056
1.3200000000	4.2883283339
1.3250000000	5.8308061727
1.3300000000	8.4585087727
1.3350000000	13.3777698740
1.3400000000	23.8909007660
1.3450000000	49.9956883071
1.3500000000	106.2083654844
1.3550000000	99.1188601612
1.3600000000	45.7258569113
1.3650000000	22.4700993427
1.3700000000	12.8863173430
1.3750000000	8.2862865823
1.3800000000	5.7780075366
1.3850000000	4.2672973394
1.3900000000	3.2941389570
1.3950000000	2.6306141183
1.4000000000	2.1594351366
1.4050000000	1.8144114664
1.4100000000	1.5558513302
1.4150000000	1.3607499775
1.4200000000	1.2140346128
1.4250000000	1.1157692251
1.4300000000	1.0797865950
1.4350000000	1.0998132743
1.4400000000	0.8470988127
1.4450000000	0.0730523353
1.4500000000	-1.1836249173
1.4550000000	-0.3318712324
1.4600000000	1.4332600652
1.4650000000	0.7759634298
1.4700000000	-0.7327494589
1.4750000000	-3.2069279320
1.4800000000	-1.4272892055
1.4850000000	2.3458871493
1.4900000000	1.9015852630
1.4950000000	1.2308425240
1.5000000000	0.8648124398
1.5050000000	0.6677180717
1.5100000000	0.5553801234
1.5150000000	0.4871572652
1.5200000000	0.4430864194
1.5250000000	0.4157038431
1.5300000000	0.3947866890
1.5350000000	0.3803686318
1.5400000000	0.3708714103
1.5450000000	0.3654482137
1.5500000000	0.3635523497
1.5550000000	0.3651977011
1.5600000000	0.3713580777
1.5650000000	0.3815335370
1.5700000000	0.3980094771
1.5750000000	0.4235735793
1.5800000000	0.4634601128
1.5850000000	0.5278578777
1.5900000000	0.6382331171
1.5950000000	0.8420889792
1.6000000000	1.2397660580
1.6050000000	1.8973095961
1.6100000000	2.2018343152
1.6150000000	1.6309563937
1.6200000000	1.0954100344
1.6250000000	0.8127164003
1.6300000000	0.6707763203
1.6350000000	0.5977011377
1.6400000000	0.5606625856
1.6450000000	0.5444028006
1.6500000000	0.5412811431
1.6550000000	0.5477183330
1.6600000000	0.5615782216
1.6650000000	0.5818853469
1.6700000000	0.6082688429
1.6750000000	0.6407309027
1.6800000000	0.6795617191
1.6850000000	0.7252114565
1.6900000000	0.7780781342
1.6950000000	0.8374107126
1.7000000000	0.9022133421
1.7050000000	0.9686250518
1.7100000000	1.0444060454
1.7150000000	1.2327351052
1.7200000000	1.5631560213
1.7250000000	1.8659015399
1.7300000000	2.1908083237
1.7350000000	2.5478129592
1.7400000000	2.8981163325
1.7450000000	3.3480595736
1.7500000000	4.0284878548
1.7550000000	5.0412366039
1.7600000000	6.5564973531
1.7650000000	8.8922851511
1.7700000000	12.6548293378
1.7750000000	18.9937375803
1.7800000000	29.7951109775
1.7850000000	45.7246102634
1.7900000000	56.8234243211
1.7950000000	48.3862430610
1.8000000000	32.2023955729
1.8050000000	20.3365499122
1.8100000000	13.4083731886
1.8150000000	9.3474966126
1.8200000000	6.8483780766
1.8250000000	5.2281915759
1.8300000000	4.1281413593
1.8350000000	3.3516803995
1.8400000000	2.7859923629
1.8450000000	2.3626406279
1.8500000000	2.0384950489
1.8550000000	1.7865680165
1.8600000000	1.5880332466
1.8650000000	1.4300960578
1.8700000000	1.3036565844
1.8750000000	1.2020340936
1.8800000000	1.1199292913
1.8850000000	1.0526595953
1.8900000000	0.9948292872
1.8950000000	0.9383867020
1.9000000000	0.8694282516
1.9050000000	0.7388860395
1.9100000000	0.5592256834
1.9150000000	0.4640660459
1.9200000000	1.1348541202
1.9250000000	2.9888281229
1.9300000000	4.4591554470
1.9350000000	4.3905683628
1.9400000000	3.4533022575
1.9450000000	2.5445959011
1.9500000000	1.9065798059
1.9550000000	1.4885317361
1.9600000000	1.2122724494
1.9650000000	1.0273676011
1.9700000000	0.8938808570
1.9750000000	0.7960300192
1.9800000000	0.7213249134
1.9850000000	0.6607036343
1.9900000000	0.6072320754
1.9950000000	0.5548585014
2.0000000000	0.5027006322
2.0050000000	0.4693790016
2.0100000000	0.4884711651
2.0150000000	0.5410648862
2.0200000000	0.5734949079
2.0250000000	0.5821117841
2.0300000000	0.5840547505
2.0350000000	0.5875873152
2.0400000000	0.5957800348
2.0450000000	0.6094158159
2.0500000000	0.6290026144
2.0550000000	0.6550017166
2.0600000000	0.6874134847
2.0650000000	0.7242746372
2.0700000000	0.7607163061
2.0750000000	0.7930896805
2.0800000000	0.8246142773
2.0850000000	0.8619483461
2.0900000000	0.9095550065
2.0950000000	0.9693136779
2.1000000000	1.0432459777
2.1050000000	1.1306823630
2.1100000000	1.2377679536
2.1150000000	1.3689949202
2.1200000000	1.5306631126
2.1250000000	1.7316090820
2.1300000000	1.9842888715
2.1350000000	2.3064859037
2.1400000000	2.7238788417
2.1450000000	3.2740100915
2.1500000000	4.0115802951
2.1550000000	5.0140057489
2.1600000000	6.3803671565
2.1650000000	8.1945735470
2.1700000000	10.4230588736
2.1750000000	12.6386419128
2.1800000000	14.0076040033
2.1850000000	14.0787655484
2.1900000000	13.4563874877
2.1950000000	12.9720907460
2.2000000000	12.7573440844
2.2050000000	12.1606824750
2.2100000000	10.8938755277
2.2150000000	9.3363126301
2.2200000000	7.9380586841
2.2250000000	6.7824750300
2.2300000000	5.7649909288
2.2350000000	4.8450985082
2.2400000000	4.0549799174
2.2450000000	3.4227903980
2.2500000000	2.9381608305
2.2550000000	2.5740970958
2.2600000000	2.3015009591
2.2650000000	2.0912147642
2.2700000000	1.9117200784
2.2750000000	1.7319655496
2.2800000000	1.5384479620
2.2850000000	1.3543118423
2.2900000000	1.2270741500
2.2950000000	1.1836298007
2.3000000000	1.1991879380
2.3050000000	1.2229301546
2.3100000000	1.2249343015
2.3150000000	1.2054437707
2.3200000000	1.1774113270
2.3250000000	1.1542156046
2.3300000000	1.1427021747
2.3350000000	1.1440472935
2.3400000000	1.1544174475
2.3450000000	1.1651361476
2.3500000000	1.1652779371
2.3550000000	1.1478724681
2.3600000000	1.1148923978
2.3650000000	1.0749577299
2.3700000000	1.0369536832
2.3750000000	1.0061868430
2.3800000000	0.9843807583
2.3850000000	0.9710473323
2.3900000000	0.9650742708
2.3950000000	0.9651733009
2.4000000000	0.9716954384
2.4050000000	0.9867884599
2.4100000000	1.0111723877
2.4150000000	1.0458438726
2.4200000000	1.0914019631
2.4250000000	1.1488948356
2.4300000000	1.2198510753
2.4350000000	1.3063212042
2.4400000000	1.4109512404
2.4450000000	1.5371197094
2.4500000000	1.6890891479
2.4550000000	1.8722171872
2.4600000000	2.0930863674
2.4650000000	2.3595944463
2.4700000000	2.6807993285
2.4750000000	3.0657742632
2.4800000000	3.5238899034
2.4850000000	4.0588558728
2.4900000000	4.6654435687
2.4950000000	5.3219457414
2.5000000000	5.9824546954
2.5050000000	6.6003318284
2.5100000000	7.0177498483
2.5150000000	7.1436792432
2.5200000000	6.9564281030
2.5250000000	6.5137987909
2.5300000000	5.9164898666
2.5350000000	5.2616202120
2.5400000000	4.6178015874
2.5450000000	4.0237996202
2.5500000000	3.4968523242
2.5550000000	3.0408836360
2.5600000000	2.6496242639
2.5650000000	2.3206740907
2.5700000000	2.0462886080
2.5750000000	1.8216197079
2.5800000000	1.6430460290
2.5850000000	1.5066309057
2.5900000000	1.4058995901
2.5950000000	1.3317491831
2.6000000000	1.2747016117
2.6050000000	1.2341588334
2.6100000000	1.1990539502
2.6150000000	1.1688305088
2.6200000000	1.1440856437
2.6250000000	1.1254808785
2.6300000000	1.1134579468
2.6350000000	1.1082422434
2.6400000000	1.1099646622
2.6450000000	1.1187470221
2.6500000000	1.1348277428
2.6550000000	1.1582736020
2.6600000000	1.1894444216
2.6650000000	1.2287036809
2.6700000000	1.2764978924
2.6750000000	1.3333681660
2.6800000000	1.3999142317
2.6850000000	1.4767496005
2.6900000000	1.5643768293
2.6950000000	1.6630874206
2.7000000000	1.7727814881
2.7050000000	1.9059351094
2.7100000000	2.0512544374
2.7150000000	2.2059099449
2.7200000000	2.3657861842
2.7250000000	2.5257130028
2.7300000000	2.6798564604
2.7350000000	2.8220550191
2.7400000000	2.9459004834
2.7450000000	3.0457044086
2.7500000000	3.1126430862
2.7550000000	3.1413746920
2.7600000000	3.1278459221
2.7650000000	3.0715852840
2.7700000000	2.9763633700
2.7750000000	2.8497349141
2.7800000000	2.7015470266
2.7850000000	2.5422461592
2.7900000000	2.3812053084
2.7950000000	2.2259407578
2.8000000000	2.0817672504
2.8050000000	1.9358974250
2.8100000000	1.8110518822
2.8150000000	1.7068957462
2.8200000000	1.6217523905
2.8250000000	1.5534120199
2.8300000000	1.4996486386
2.8350000000	1.4585572130
2.8400000000	1.4281322967
2.8450000000	1.4084437187
2.8500000000	1.3980340399
2.8550000000	1.3963479392
2.8600000000	1.4029707506
2.8650000000	1.4175289245
2.8700000000	1.4396046103
2.8750000000	1.4686676884
2.8800000000	1.5040231731
2.8850000000	1.5447672297
2.8900000000	1.5898133984
2.8950000000	1.6379328901
2.9000000000	1.6878334805
2.9050000000	1.7477992845
2.9100000000	1.8053260163
2.9150000000	1.8586041019
2.9200000000	1.9057343459
2.9250000000	1.9445618136
2.9300000000	1.9731022474
2.9350000000	1.9882699462
2.9400000000	1.9887330445
2.9450000000	1.9739241734
2.9500000000	1.9446977867
2.9550000000	1.9032752326
2.9600000000	1.8528628142
2.9650000000	1.7970935475
2.9700000000	1.7394805472
2.9750000000	1.6830261439
2.9800000000	1.6300308345
2.9850000000	1.5820641896
2.9900000000	1.5400702597
2.9950000000	1.5044922135
3.0000000000	1.4754233057
