# energy (eV)    P(omega), $W$ = 300 nm, $h$ = 300 nm, $s$ = 20 nm, $d/W = 5$, $E_{\rm e}$ = 200 keV
0.2000000000	0.0495833768
0.2050000000	0.0503384389
0.2100000000	0.0510401125
0.2150000000	0.0516901806
0.2200000000	0.0522902479
0.2250000000	0.0528416395
0.2300000000	0.0533454136
0.2350000000	0.0538023070
0.2400000000	0.0542126946
0.2450000000	0.0545765240
0.2500000000	0.0548932640
0.2550000000	0.0551617717
0.2600000000	0.0553802689
0.2650000000	0.0555461120
0.2700000000	0.0556557088
0.2750000000	0.0557042479
0.2800000000	0.0556854558
0.2850000000	0.0555912350
0.2900000000	0.0554112289
0.2950000000	0.0551322410
0.3000000000	0.0547374291
0.3050000000	0.0542053293
0.3100000000	0.0535084502
0.3150000000	0.0566597378
0.3200000000	0.0604021122
0.3250000000	0.0651387582
0.3300000000	0.0714880497
0.3350000000	0.0793889479
0.3400000000	0.0897349268
0.3450000000	0.1022724446
0.3500000000	0.1186668047
0.3550000000	0.1403482320
0.3600000000	0.1686356591
0.3650000000	0.2080510103
0.3700000000	0.2599703887
0.3750000000	0.3321346047
0.3800000000	0.4364254672
0.3850000000	0.5988243972
0.3900000000	0.8551745618
0.3950000000	1.2902767465
0.4000000000	2.1191436864
0.4050000000	3.9761310780
0.4100000000	9.0392780660
0.4150000000	28.9811183741
0.4200000000	18.4774556960
0.4250000000	-34.6831266950
0.4300000000	9.6255739677
0.4350000000	5.9904193301
0.4400000000	3.6564971390
0.4450000000	2.4011190820
0.4500000000	1.6789315376
0.4550000000	1.2347881678
0.4600000000	0.9456934792
0.4650000000	0.7487999550
0.4700000000	0.6097040977
0.4750000000	0.5091410469
0.4800000000	0.4345969092
0.4850000000	0.3785040822
0.4900000000	0.3356756125
0.4950000000	0.3026310039
0.5000000000	0.2769908056
0.5050000000	0.2570110715
0.5100000000	0.2415669253
0.5150000000	0.2298293938
0.5200000000	0.2209374904
0.5250000000	0.2144985358
0.5300000000	0.2100950513
0.5350000000	0.2074203919
0.5400000000	0.2062481778
0.5450000000	0.2063893874
0.5500000000	0.2077804519
0.5550000000	0.2103136307
0.5600000000	0.2139315043
0.5650000000	0.2186066287
0.5700000000	0.2243125344
0.5750000000	0.2310882091
0.5800000000	0.2389967458
0.5850000000	0.2480784792
0.5900000000	0.2584143615
0.5950000000	0.2701080515
0.6000000000	0.2832911033
0.6050000000	0.2981576264
0.6100000000	0.3148903480
0.6150000000	0.3337409478
0.6200000000	0.3550454181
0.6250000000	0.3791255336
0.6300000000	0.4064578902
0.6350000000	0.4376363078
0.6400000000	0.4732778693
0.6450000000	0.5142748096
0.6500000000	0.5617993197
0.6550000000	0.6170709244
0.6600000000	0.6819656926
0.6650000000	0.7588882472
0.6700000000	0.8506650749
0.6750000000	0.9616086093
0.6800000000	1.0975153098
0.6850000000	1.2659755589
0.6900000000	1.4787448412
0.6950000000	1.7522604433
0.7000000000	2.1126284928
0.7050000000	2.5997480328
0.7100000000	3.2812102941
0.7150000000	4.2773185793
0.7200000000	5.8119779856
0.7250000000	8.3584015869
0.7300000000	13.0305151548
0.7350000000	23.0233556928
0.7400000000	50.4173060461
0.7450000000	167.1256395230
0.7500000000	517.3442529529
0.7550000000	130.0454347706
0.7600000000	43.0335948758
0.7650000000	20.6027286093
0.7700000000	11.9721825542
0.7750000000	7.8076164009
0.7800000000	5.4901143811
0.7850000000	4.0742121341
0.7900000000	3.1451065008
0.7950000000	2.5045671391
0.8000000000	2.0442782159
0.8050000000	1.7015929555
0.8100000000	1.4403717407
0.8150000000	1.2333875375
0.8200000000	1.0700833384
0.8250000000	0.9386353000
0.8300000000	0.8309962896
0.8350000000	0.7425191536
0.8400000000	0.6683712214
0.8450000000	0.6061657594
0.8500000000	0.5535907628
0.8550000000	0.5082341915
0.8600000000	0.4695166097
0.8650000000	0.4364406526
0.8700000000	0.4072235710
0.8750000000	0.3823587001
0.8800000000	0.3612439321
0.8850000000	0.3423152067
0.8900000000	0.3270940583
0.8950000000	0.3132485048
0.9000000000	0.3022341177
0.9050000000	0.2945715155
0.9100000000	0.2875442675
0.9150000000	0.2831853609
0.9200000000	0.2824305053
0.9250000000	0.2818187621
0.9300000000	0.2774938665
0.9350000000	0.2650310714
0.9400000000	0.1965528372
0.9450000000	-0.1138344104
0.9500000000	-1.7500697046
0.9550000000	-10.0428471988
0.9600000000	2.3686323282
0.9650000000	4.1573799073
0.9700000000	1.8430786736
0.9750000000	0.9674500537
0.9800000000	0.6064111810
0.9850000000	0.4375974893
0.9900000000	0.3403770039
0.9950000000	0.2814424373
1.0000000000	0.2438174652
1.0050000000	0.2199530389
1.0100000000	0.2014703303
1.0150000000	0.1879731483
1.0200000000	0.1788763059
1.0250000000	0.1712579265
1.0300000000	0.1654802979
1.0350000000	0.1611218083
1.0400000000	0.1583598104
1.0450000000	0.1560848479
1.0500000000	0.1546092002
1.0550000000	0.1538429624
1.0600000000	0.1539846832
1.0650000000	0.1544810062
1.0700000000	0.1555590593
1.0750000000	0.1572235745
1.0800000000	0.1596244945
1.0850000000	0.1626691843
1.0900000000	0.1671315570
1.0950000000	0.1724241669
1.1000000000	0.1787190188
1.1050000000	0.1859863012
1.1100000000	0.1944489012
1.1150000000	0.2042990715
1.1200000000	0.2157575882
1.1250000000	0.2291438253
1.1300000000	0.2448494717
1.1350000000	0.2633744183
1.1400000000	0.2852799430
1.1450000000	0.3116239828
1.1500000000	0.3435295678
1.1550000000	0.3826327170
1.1600000000	0.4312417327
1.1650000000	0.4923437640
1.1700000000	0.5715715706
1.1750000000	0.6763700736
1.1800000000	0.8190583977
1.1850000000	1.0198940619
1.1900000000	1.3170112694
1.1950000000	1.7837246711
1.2000000000	2.5756493471
1.2050000000	4.0724692833
1.2100000000	7.3651733172
1.2150000000	16.2629319770
1.2200000000	39.9181455172
1.2250000000	35.8297565972
1.2300000000	14.2597017815
1.2350000000	6.6623774347
1.2400000000	3.7842286655
1.2450000000	2.4612498102
1.2500000000	1.7615066802
1.2550000000	1.3555610477
1.2600000000	1.1061136061
1.2650000000	0.9470622047
1.2700000000	0.8485562435
1.2750000000	0.7911932870
1.2800000000	0.7654322737
1.2850000000	0.7667054957
1.2900000000	0.7938417887
1.2950000000	0.8480365893
1.3000000000	0.9365688527
1.3050000000	1.0686488740
1.3100000000	1.2620306847
1.3150000000	1.5475814054
1.3200000000	1.9810218910
1.3250000000	2.6683887665
1.3300000000	3.8426693459
1.3350000000	6.0433056245
1.3400000000	10.7470794597
1.3450000000	22.4215795912
1.3500000000	47.5334405784
1.3550000000	44.3018154791
1.3600000000	20.4221594855
1.3650000000	10.0331303599
1.3700000000	5.7543832108
1.3750000000	3.7013860625
1.3800000000	2.5820514697
1.3850000000	1.9076989081
1.3900000000	1.4728769122
1.3950000000	1.1760572524
1.4000000000	0.9646186634
1.4050000000	0.8089290830
1.4100000000	0.6908820384
1.4150000000	0.5993882544
1.4200000000	0.5261957116
1.4250000000	0.4675719819
1.4300000000	0.4201460663
1.4350000000	0.3719242242
1.4400000000	0.2192578531
1.4450000000	-0.1760996636
1.4500000000	-0.8993586767
1.4550000000	-0.3266309940
1.4600000000	0.8205881449
1.4650000000	0.4993495424
1.4700000000	-0.2130860311
1.4750000000	-1.3021850346
1.4800000000	-0.5675954449
1.4850000000	1.0222184750
1.4900000000	0.8269845149
1.4950000000	0.5388373358
1.5000000000	0.3811170599
1.5050000000	0.2954382218
1.5100000000	0.2463193209
1.5150000000	0.2160863464
1.5200000000	0.1961999435
1.5250000000	0.1835422425
1.5300000000	0.1734861064
1.5350000000	0.1661261351
1.5400000000	0.1607361762
1.5450000000	0.1568726652
1.5500000000	0.1542447346
1.5550000000	0.1527053497
1.5600000000	0.1525019290
1.5650000000	0.1530670474
1.5700000000	0.1549179361
1.5750000000	0.1584069608
1.5800000000	0.1642489164
1.5850000000	0.1738515725
1.5900000000	0.1901839383
1.5950000000	0.2197703109
1.6000000000	0.2762066366
1.6050000000	0.3675708107
1.6100000000	0.4080987011
1.6150000000	0.3295976537
1.6200000000	0.2586170576
1.6250000000	0.2234141665
1.6300000000	0.2080240498
1.6350000000	0.2025160861
1.6400000000	0.2024433700
1.6450000000	0.2057944465
1.6500000000	0.2116195499
1.6550000000	0.2195217966
1.6600000000	0.2293473178
1.6650000000	0.2411138071
1.6700000000	0.2549548017
1.6750000000	0.2711027612
1.6800000000	0.2898877098
1.6850000000	0.3117489957
1.6900000000	0.3372503247
1.6950000000	0.3669274024
1.7000000000	0.4019107627
1.7050000000	0.4442616392
1.7100000000	0.4964239872
1.7150000000	0.5704847935
1.7200000000	0.6731119241
1.7250000000	0.7975165376
1.7300000000	0.9537544980
1.7350000000	1.1207128123
1.7400000000	1.2681114497
1.7450000000	1.4514050375
1.7500000000	1.7357739966
1.7550000000	2.1650450486
1.7600000000	2.8105421734
1.7650000000	3.8069813766
1.7700000000	5.4120811824
1.7750000000	8.1146661827
1.7800000000	12.7153144271
1.7850000000	19.4893019315
1.7900000000	24.1862366473
1.7950000000	20.5623797080
1.8000000000	13.6597318699
1.8050000000	8.6080149112
1.8100000000	5.6613950200
1.8150000000	3.9353805437
1.8200000000	2.8734993908
1.8250000000	2.1850111024
1.8300000000	1.7172314894
1.8350000000	1.3865479335
1.8400000000	1.1449808017
1.8450000000	0.9633650228
1.8500000000	0.8232947170
1.8550000000	0.7132225730
1.8600000000	0.6249830197
1.8650000000	0.5529333258
1.8700000000	0.4929077151
1.8750000000	0.4416400497
1.8800000000	0.3962584190
1.8850000000	0.3538502297
1.8900000000	0.3107140480
1.8950000000	0.2612216639
1.9000000000	0.1959011354
1.9050000000	0.0847213931
1.9100000000	-0.0767194426
1.9150000000	-0.2505894041
1.9200000000	-0.1728418273
1.9250000000	0.3351289059
1.9300000000	0.7431509468
1.9350000000	0.7762662664
1.9400000000	0.6398943809
1.9450000000	0.5021030854
1.9500000000	0.4030273545
1.9550000000	0.3365543734
1.9600000000	0.2917058437
1.9650000000	0.2620137676
1.9700000000	0.2395286936
1.9750000000	0.2230264787
1.9800000000	0.2105969505
1.9850000000	0.2008907293
1.9900000000	0.1929462517
1.9950000000	0.1859846089
2.0000000000	0.1798179370
2.0050000000	0.1766757806
2.0100000000	0.1795582747
2.0150000000	0.1864501273
2.0200000000	0.1918750131
2.0250000000	0.1955736553
2.0300000000	0.1995225713
2.0350000000	0.2045744419
2.0400000000	0.2113799479
2.0450000000	0.2203626498
2.0500000000	0.2320317277
2.0550000000	0.2469035740
2.0600000000	0.2650027869
2.0650000000	0.2846099120
2.0700000000	0.3014592799
2.0750000000	0.3121629731
2.0800000000	0.3190338711
2.0850000000	0.3272376741
2.0900000000	0.3399722658
2.0950000000	0.3582150747
2.1000000000	0.3824918474
2.1050000000	0.4122472705
2.1100000000	0.4495573739
2.1150000000	0.4958633603
2.1200000000	0.5533041799
2.1250000000	0.6249546000
2.1300000000	0.7151987765
2.1350000000	0.8303249047
2.1400000000	0.9794223340
2.1450000000	1.1757768185
2.1500000000	1.4387286203
2.1550000000	1.7956135372
2.1600000000	2.2813820013
2.1650000000	2.9255904704
2.1700000000	3.7170432192
2.1750000000	4.5069205400
2.1800000000	5.0063350422
2.1850000000	5.0625577093
2.1900000000	4.8906368713
2.1950000000	4.7764997401
2.2000000000	4.7436307299
2.2050000000	4.5154929709
2.2100000000	3.9761520738
2.2150000000	3.2910697004
2.2200000000	2.6642405000
2.2250000000	2.1621877596
2.2300000000	1.7670316056
2.2350000000	1.4531720319
2.2400000000	1.2041599119
2.2450000000	1.0098013514
2.2500000000	0.8582247383
2.2550000000	0.7386323841
2.2600000000	0.6420113645
2.2650000000	0.5608627942
2.2700000000	0.4888859505
2.2750000000	0.4216586431
2.2800000000	0.3594937962
2.2850000000	0.3101957141
2.2900000000	0.2853244990
2.2950000000	0.2888645082
2.3000000000	0.3094119809
2.3050000000	0.3294925465
2.3100000000	0.3381600985
2.3150000000	0.3359703466
2.3200000000	0.3277158186
2.3250000000	0.3182890464
2.3300000000	0.3103339435
2.3350000000	0.3047668699
2.3400000000	0.3013980425
2.3450000000	0.2992466499
2.3500000000	0.2970032121
2.3550000000	0.2938303433
2.3600000000	0.2899602875
2.3650000000	0.2864087253
2.3700000000	0.2841825673
2.3750000000	0.2837738660
2.3800000000	0.2850991436
2.3850000000	0.2876535517
2.3900000000	0.2908746796
2.3950000000	0.2942815222
2.4000000000	0.2981611765
2.4050000000	0.3035831931
2.4100000000	0.3110912792
2.4150000000	0.3213748614
2.4200000000	0.3349028517
2.4250000000	0.3521018462
2.4300000000	0.3734503492
2.4350000000	0.3995481470
2.4400000000	0.4311669479
2.4450000000	0.4693023629
2.4500000000	0.5152215079
2.4550000000	0.5705274552
2.4600000000	0.6371997394
2.4650000000	0.7176335429
2.4700000000	0.8146033158
2.4750000000	0.9309332273
2.4800000000	1.0696780584
2.4850000000	1.2322114521
2.4900000000	1.4171881784
2.4950000000	1.6179176988
2.5000000000	1.8195363510
2.5050000000	2.0058803456
2.5100000000	2.1262635427
2.5150000000	2.1526190825
2.5200000000	2.0813178622
2.5250000000	1.9346685768
2.5300000000	1.7466110219
2.5350000000	1.5469151862
2.5400000000	1.3544371847
2.5450000000	1.1784964853
2.5500000000	1.0225755072
2.5550000000	0.8871167032
2.5600000000	0.7701547607
2.5650000000	0.6714332938
2.5700000000	0.5889825160
2.5750000000	0.5216364754
2.5800000000	0.4684845741
2.5850000000	0.4283987285
2.5900000000	0.3993424616
2.5950000000	0.3783676257
2.6000000000	0.3623906688
2.6050000000	0.3509956712
2.6100000000	0.3407640521
2.6150000000	0.3315699843
2.6200000000	0.3236432178
2.6250000000	0.3172096341
2.6300000000	0.3124056240
2.6350000000	0.3092903229
2.6400000000	0.3078947541
2.6450000000	0.3082539648
2.6500000000	0.3104432097
2.6550000000	0.3144751516
2.6600000000	0.3204555719
2.6650000000	0.3284779169
2.6700000000	0.3386522923
2.6750000000	0.3511093356
2.6800000000	0.3659944435
2.6850000000	0.3834664139
2.6900000000	0.4036787008
2.6950000000	0.4267703929
2.7000000000	0.4528378411
2.7050000000	0.4850199097
2.7100000000	0.5210895533
2.7150000000	0.5607991415
2.7200000000	0.6036134626
2.7250000000	0.6486409375
2.7300000000	0.6945703161
2.7350000000	0.7396151651
2.7400000000	0.7814848773
2.7450000000	0.8177613552
2.7500000000	0.8449343842
2.7550000000	0.8605928670
2.7600000000	0.8629259472
2.7650000000	0.8514678200
2.7700000000	0.8272620862
2.7750000000	0.7926503171
2.7800000000	0.7507380251
2.7850000000	0.7048289429
2.7900000000	0.6578744525
2.7950000000	0.6122374862
2.8000000000	0.5695847528
2.8050000000	0.5262133731
2.8100000000	0.4887734660
2.8150000000	0.4571796275
2.8200000000	0.4309352484
2.8250000000	0.4093803029
2.8300000000	0.3918526876
2.8350000000	0.3777881143
2.8400000000	0.3665867079
2.8450000000	0.3582888750
2.8500000000	0.3524549959
2.8550000000	0.3489212687
2.8600000000	0.3475718120
2.8650000000	0.3483150759
2.8700000000	0.3510695631
2.8750000000	0.3557518752
2.8800000000	0.3622655304
2.8850000000	0.3704905643
2.8900000000	0.3802792751
2.8950000000	0.3914512677
2.9000000000	0.4037925720
2.9050000000	0.4200042891
2.9100000000	0.4366485374
2.9150000000	0.4530834450
2.9200000000	0.4685371508
2.9250000000	0.4821147009
2.9300000000	0.4929749618
2.9350000000	0.4999981213
2.9400000000	0.5026232619
2.9450000000	0.5005631542
2.9500000000	0.4939868757
2.9550000000	0.4834943876
2.9600000000	0.4699994870
2.9650000000	0.4545622708
2.9700000000	0.4382230011
2.9750000000	0.4218842723
2.9800000000	0.4062460934
2.9850000000	0.3917967948
2.9900000000	0.3788368876
2.9950000000	0.3675194464
3.0000000000	0.3578938260
