# energy (eV)    P(omega), $W$ = 300 nm, $h$ = 300 nm, $s$ = 20 nm, $d/W = 5$, $E_{\rm e}$ = 200 keV
0.2000000000	0.1210168038
0.2050000000	0.1227547885
0.2100000000	0.1243886810
0.2150000000	0.1259217315
0.2200000000	0.1273567414
0.2250000000	0.1286960254
0.2300000000	0.1299412814
0.2350000000	0.1310935682
0.2400000000	0.1321531832
0.2450000000	0.1331194010
0.2500000000	0.1339906200
0.2550000000	0.1347637702
0.2600000000	0.1354343662
0.2650000000	0.1359961617
0.2700000000	0.1364405930
0.2750000000	0.1367564529
0.2800000000	0.1369292156
0.2850000000	0.1369403097
0.2900000000	0.1367658769
0.2950000000	0.1363758315
0.3000000000	0.1357314360
0.3050000000	0.1347837487
0.3100000000	0.1334699379
0.3150000000	0.1406556165
0.3200000000	0.1491908417
0.3250000000	0.1599801855
0.3300000000	0.1744178603
0.3350000000	0.1923950304
0.3400000000	0.2159388932
0.3450000000	0.2445210948
0.3500000000	0.2819275423
0.3550000000	0.3314484375
0.3600000000	0.3961570784
0.3650000000	0.4864112962
0.3700000000	0.6055371850
0.3750000000	0.7713746273
0.3800000000	1.0113987903
0.3850000000	1.3856367240
0.3900000000	1.9773081276
0.3950000000	2.9830858904
0.4000000000	4.9017716851
0.4050000000	9.2063513539
0.4100000000	20.9605486841
0.4150000000	67.3249118823
0.4200000000	42.8535751535
0.4250000000	-80.8984805037
0.4300000000	22.5446616199
0.4350000000	14.0672922437
0.4400000000	8.6126192370
0.4450000000	5.6743318381
0.4500000000	3.9817012412
0.4550000000	2.9394252024
0.4600000000	2.2602016336
0.4650000000	1.7971066223
0.4700000000	1.4696466818
0.4750000000	1.2327425079
0.4800000000	1.0570597104
0.4850000000	0.9248615999
0.4900000000	0.8239749978
0.4950000000	0.7462243987
0.5000000000	0.6860232569
0.5050000000	0.6392678000
0.5100000000	0.6033209925
0.5150000000	0.5762424744
0.5200000000	0.5559918297
0.5250000000	0.5416604794
0.5300000000	0.5322649592
0.5350000000	0.5270880871
0.5400000000	0.5256020197
0.5450000000	0.5273660776
0.5500000000	0.5322491604
0.5550000000	0.5400054960
0.5600000000	0.5505154616
0.5650000000	0.5637286061
0.5700000000	0.5796022947
0.5750000000	0.5982501669
0.5800000000	0.6198569187
0.5850000000	0.6445439468
0.5900000000	0.6725421102
0.5950000000	0.7041376485
0.6000000000	0.7396947092
0.6050000000	0.7797351815
0.6100000000	0.8247618609
0.6150000000	0.8754570702
0.6200000000	0.9327315565
0.6250000000	0.9974573037
0.6300000000	1.0709231585
0.6350000000	1.1547355547
0.6400000000	1.2505667275
0.6450000000	1.3608291938
0.6500000000	1.4886960394
0.6550000000	1.6374711046
0.6600000000	1.8122301848
0.6650000000	2.0194914928
0.6700000000	2.2669178802
0.6750000000	2.5661900919
0.6800000000	2.9330350789
0.6850000000	3.3880400328
0.6900000000	3.9631169490
0.6950000000	4.7028829550
0.7000000000	5.6782540749
0.7050000000	6.9976395555
0.7100000000	8.8447836732
0.7150000000	11.5468136863
0.7200000000	15.7128745650
0.7250000000	22.6308640816
0.7300000000	35.3337869048
0.7350000000	62.5249596171
0.7400000000	137.1277247082
0.7450000000	455.2558358348
0.7500000000	1411.4445632025
0.7550000000	355.3502969715
0.7600000000	117.7748566236
0.7650000000	56.4752432875
0.7700000000	32.8701190006
0.7750000000	21.4706870007
0.7800000000	15.1221635096
0.7850000000	11.2405258131
0.7900000000	8.6915103908
0.7950000000	6.9328696636
0.8000000000	5.6682085181
0.8050000000	4.7259944876
0.8100000000	4.0072547626
0.8150000000	3.4372709108
0.8200000000	2.9872811816
0.8250000000	2.6248514859
0.8300000000	2.3278640435
0.8350000000	2.0836312733
0.8400000000	1.8788441818
0.8450000000	1.7069634505
0.8500000000	1.5616624007
0.8550000000	1.4362381383
0.8600000000	1.3291655699
0.8650000000	1.2377292296
0.8700000000	1.1569129864
0.8750000000	1.0882036029
0.8800000000	1.0299555139
0.8850000000	0.9777273211
0.8900000000	0.9359438895
0.8950000000	0.8979292759
0.9000000000	0.8679241689
0.9050000000	0.8474919095
0.9100000000	0.8287791400
0.9150000000	0.8177126842
0.9200000000	0.8170653163
0.9250000000	0.8167288147
0.9300000000	0.8053155804
0.9350000000	0.7695595561
0.9400000000	0.5676801100
0.9450000000	-0.3522889172
0.9500000000	-5.2122532582
0.9550000000	-29.8806442178
0.9600000000	7.0578328338
0.9650000000	12.4050350975
0.9700000000	5.5058520206
0.9750000000	2.8917556449
0.9800000000	1.8127386301
0.9850000000	1.3079379876
0.9900000000	1.0169333257
0.9950000000	0.8404154333
1.0000000000	0.7276871399
1.0050000000	0.6562512788
1.0100000000	0.6008080033
1.0150000000	0.5602792908
1.0200000000	0.5329934089
1.0250000000	0.5100305614
1.0300000000	0.4925469928
1.0350000000	0.4792729572
1.0400000000	0.4707940254
1.0450000000	0.4636644312
1.0500000000	0.4588656690
1.0550000000	0.4561230098
1.0600000000	0.4560703827
1.0650000000	0.4569438639
1.0700000000	0.4594556091
1.0750000000	0.4636139566
1.0800000000	0.4698856855
1.0850000000	0.4778590340
1.0900000000	0.4897447962
1.0950000000	0.5038796927
1.1000000000	0.5207601441
1.1050000000	0.5401685875
1.1100000000	0.5627391941
1.1150000000	0.5889721001
1.1200000000	0.6194812192
1.1250000000	0.6549661648
1.1300000000	0.6964856660
1.1350000000	0.7453178867
1.1400000000	0.8029425526
1.1450000000	0.8719518080
1.1500000000	0.9552548368
1.1550000000	1.0570148291
1.1600000000	1.1831043374
1.1650000000	1.3411660892
1.1700000000	1.5454011758
1.1750000000	1.8147632295
1.1800000000	2.1805404592
1.1850000000	2.6941320560
1.1900000000	3.4525539789
1.1950000000	4.6417492623
1.2000000000	6.6571669574
1.2050000000	10.4638017457
1.2100000000	18.8356575884
1.2150000000	41.4676375068
1.2200000000	101.7028513777
1.2250000000	91.4649560649
1.2300000000	36.5943204138
1.2350000000	17.2547388814
1.2400000000	9.9331596742
1.2450000000	6.5778853385
1.2500000000	4.8151946339
1.2550000000	3.8061927762
1.2600000000	3.2016320462
1.2650000000	2.8337740480
1.2700000000	2.6285107198
1.2750000000	2.5380329231
1.2800000000	2.5407345018
1.2850000000	2.6287116392
1.2900000000	2.8043760951
1.2950000000	3.0777428537
1.3000000000	3.4802133811
1.3050000000	4.0526702345
1.3100000000	4.8690408726
1.3150000000	6.0566913076
1.3200000000	7.8436472052
1.3250000000	10.6653688157
1.3300000000	15.4722844385
1.3350000000	24.4711601725
1.3400000000	43.7029720887
1.3450000000	91.4569010473
1.3500000000	194.2881628931
1.3550000000	181.3202308056
1.3600000000	83.6475342186
1.3650000000	41.1051938045
1.3700000000	23.5732967393
1.3750000000	15.1583118963
1.3800000000	10.5698331173
1.3850000000	7.8062435614
1.3900000000	6.0260207784
1.3950000000	4.8122237122
1.4000000000	3.9502984190
1.4050000000	3.3191616916
1.4100000000	2.8462103126
1.4150000000	2.4893736276
1.4200000000	2.2211021574
1.4250000000	2.0415711223
1.4300000000	1.9762333053
1.4350000000	2.0137567652
1.4400000000	1.5521016597
1.4450000000	0.1369645243
1.4500000000	-2.1592542821
1.4550000000	-0.6042317591
1.4600000000	2.6189536783
1.4650000000	1.4169983994
1.4700000000	-1.3423005111
1.4750000000	-5.8686345841
1.4800000000	-2.6121254659
1.4850000000	4.2917824581
1.4900000000	3.4789579745
1.4950000000	2.2517661540
1.5000000000	1.5820838938
1.5050000000	1.2214945180
1.5100000000	1.0159729211
1.5150000000	0.8911649272
1.5200000000	0.8105454534
1.5250000000	0.7604573490
1.5300000000	0.7222004650
1.5350000000	0.6958349928
1.5400000000	0.6784738513
1.5450000000	0.6685686516
1.5500000000	0.6651195733
1.5550000000	0.6681537279
1.5600000000	0.6794544292
1.5650000000	0.6981108659
1.5700000000	0.7283090341
1.5750000000	0.7751579708
1.5800000000	0.8482501125
1.5850000000	0.9662575965
1.5900000000	1.1685199041
1.5950000000	1.5420933170
1.6000000000	2.2708705795
1.6050000000	3.4759116180
1.6100000000	4.0340485314
1.6150000000	2.9878620694
1.6200000000	2.0063725300
1.6250000000	1.4882540648
1.6300000000	1.2280813699
1.6350000000	1.0941098654
1.6400000000	1.0261764167
1.6450000000	0.9963177011
1.6500000000	0.9905297164
1.6550000000	1.0022521549
1.6600000000	1.0275684795
1.6650000000	1.0646892952
1.6700000000	1.1129328823
1.6750000000	1.1723006602
1.6800000000	1.2433210195
1.6850000000	1.3268145453
1.6900000000	1.4235042233
1.6950000000	1.5320041310
1.7000000000	1.6504711220
1.7050000000	1.7717901836
1.7100000000	1.9101735962
1.7150000000	2.2548467007
1.7200000000	2.8599390164
1.7250000000	3.4139184504
1.7300000000	4.0081298076
1.7350000000	4.6611166100
1.7400000000	5.3020919472
1.7450000000	6.1254736692
1.7500000000	7.3705256678
1.7550000000	9.2235683655
1.7600000000	11.9960166348
1.7650000000	16.2697485517
1.7700000000	23.1539830538
1.7750000000	34.7521532815
1.7800000000	54.5152774969
1.7850000000	83.6614401174
1.7900000000	103.9692765413
1.7950000000	88.5323732715
1.8000000000	58.9211606811
1.8050000000	37.2103454484
1.8100000000	24.5338837061
1.8150000000	17.1036915428
1.8200000000	12.5310446453
1.8250000000	9.5665829480
1.8300000000	7.5538203257
1.8350000000	6.1331358981
1.8400000000	5.0981098386
1.8450000000	4.3235246830
1.8500000000	3.7304660560
1.8550000000	3.2695559071
1.8600000000	2.9063499099
1.8650000000	2.6174405380
1.8700000000	2.3861819090
1.8750000000	2.2003563213
1.8800000000	2.0502764074
1.8850000000	1.9273873410
1.8900000000	1.8218363412
1.8950000000	1.7189222938
1.9000000000	1.5932559085
1.9050000000	1.3551859355
1.9100000000	1.0276573507
1.9150000000	0.8554212684
1.9200000000	2.0856933500
1.9250000000	5.4818865650
1.9300000000	8.1752290525
1.9350000000	8.0488600786
1.9400000000	6.3302384230
1.9450000000	4.6640627839
1.9500000000	3.4942488357
1.9550000000	2.7277719042
1.9600000000	2.2212727818
1.9650000000	1.8822600635
1.9700000000	1.6375344039
1.9750000000	1.4581415020
1.9800000000	1.3211800303
1.9850000000	1.2100340665
1.9900000000	1.1119882078
1.9950000000	1.0159442790
2.0000000000	0.9202852694
2.0050000000	0.8591613913
2.0100000000	0.8941682015
2.0150000000	0.9906168958
2.0200000000	1.0500717194
2.0250000000	1.0658371377
2.0300000000	1.0693476528
2.0350000000	1.0757603870
2.0400000000	1.0907027109
2.0450000000	1.1156054311
2.0500000000	1.1513936615
2.0550000000	1.1989065933
2.0600000000	1.2581446232
2.0650000000	1.3255292415
2.0700000000	1.3921858578
2.0750000000	1.4514668275
2.0800000000	1.5092482480
2.0850000000	1.5776764501
2.0900000000	1.6648976069
2.0950000000	1.7743476121
2.1000000000	1.9097306146
2.1050000000	2.0698257803
2.1100000000	2.2658849505
2.1150000000	2.5061345180
2.1200000000	2.8021094182
2.1250000000	3.1699882320
2.1300000000	3.6325755357
2.1350000000	4.2224286584
2.1400000000	4.9865594758
2.1450000000	5.9936994243
2.1500000000	7.3439929625
2.1550000000	9.1791725320
2.1600000000	11.6806336791
2.1650000000	15.0019977551
2.1700000000	19.0818053515
2.1750000000	23.1379554827
2.1800000000	25.6440219882
2.1850000000	25.7739000651
2.1900000000	24.6338341774
2.1950000000	23.7464437028
2.2000000000	23.3527322097
2.2050000000	22.2606466178
2.2100000000	19.9426889197
2.2150000000	17.0930088632
2.2200000000	14.5349560834
2.2250000000	12.4206328603
2.2300000000	10.5583220638
2.2350000000	8.8740230788
2.2400000000	7.4270453569
2.2450000000	6.2692191256
2.2500000000	5.3816758421
2.2550000000	4.7150119440
2.2600000000	4.2159366362
2.2650000000	3.8310292487
2.2700000000	3.5025194793
2.2750000000	3.1734696333
2.2800000000	2.8190885804
2.2850000000	2.4817539387
2.2900000000	2.2485303992
2.2950000000	2.1687320226
2.3000000000	2.1970077597
2.3050000000	2.2403122438
2.3100000000	2.2438688039
2.3150000000	2.2081160357
2.3200000000	2.1567643941
2.3250000000	2.1143049674
2.3300000000	2.0932675195
2.3350000000	2.0957990075
2.3400000000	2.1148664892
2.3450000000	2.1345592329
2.3500000000	2.1348435727
2.3550000000	2.1029380529
2.3600000000	2.0424598033
2.3650000000	1.9692151786
2.3700000000	1.8994973324
2.3750000000	1.8430386402
2.3800000000	1.8030033290
2.3850000000	1.7785024882
2.3900000000	1.7675022610
2.3950000000	1.7676447143
2.4000000000	1.7795704246
2.4050000000	1.8072075088
2.4100000000	1.8518698506
2.4150000000	1.9153778183
2.4200000000	1.9988249234
2.4250000000	2.1041295805
2.4300000000	2.2340914585
2.4350000000	2.3924663752
2.4400000000	2.5841009931
2.4450000000	2.8151836712
2.4500000000	3.0935217211
2.4550000000	3.4289280665
2.4600000000	3.8334590304
2.4650000000	4.3215794704
2.4700000000	4.9098788393
2.4750000000	5.6149736235
2.4800000000	6.4540230552
2.4850000000	7.4338171251
2.4900000000	8.5447750190
2.4950000000	9.7471398421
2.5000000000	10.9568426257
2.5050000000	12.0884904622
2.5100000000	12.8530618655
2.5150000000	13.0838443693
2.5200000000	12.7410737511
2.5250000000	11.9305535723
2.5300000000	10.8366696741
2.5350000000	9.6372895652
2.5400000000	8.4581012978
2.5450000000	7.3701340832
2.5500000000	6.4049814356
2.5550000000	5.5698394080
2.5600000000	4.8532264958
2.5650000000	4.2507408146
2.5700000000	3.7481935053
2.5750000000	3.3367015452
2.5800000000	3.0096299783
2.5850000000	2.7597681208
2.5900000000	2.5752584540
2.5950000000	2.4394314003
2.6000000000	2.3349305298
2.6050000000	2.2606633500
2.6100000000	2.1963616287
2.6150000000	2.1410058886
2.6200000000	2.0956889583
2.6250000000	2.0616222967
2.6300000000	2.0396150069
2.6350000000	2.0300799561
2.6400000000	2.0332572028
2.6450000000	2.0493697386
2.6500000000	2.0788544756
2.6550000000	2.1218339605
2.6600000000	2.1789675175
2.6650000000	2.2509214475
2.6700000000	2.3385142416
2.6750000000	2.4427374177
2.6800000000	2.5646899664
2.6850000000	2.7054957641
2.6900000000	2.8660748951
2.6950000000	3.0469602372
2.7000000000	3.2479669785
2.7050000000	3.4919540175
2.7100000000	3.7582201270
2.7150000000	4.0415750349
2.7200000000	4.3344718100
2.7250000000	4.6274322581
2.7300000000	4.9097654375
2.7350000000	5.1701851773
2.7400000000	5.3969591416
2.7450000000	5.5796777816
2.7500000000	5.7021908619
2.7550000000	5.7547247995
2.7600000000	5.7298633043
2.7650000000	5.6267468917
2.7700000000	5.4522828457
2.7750000000	5.2203073145
2.7800000000	4.9488541429
2.7850000000	4.6570546344
2.7900000000	4.3620745885
2.7950000000	4.0776793918
2.8000000000	3.8136025835
2.8050000000	3.5464209723
2.8100000000	3.3177520369
2.8150000000	3.1269826449
2.8200000000	2.9710418241
2.8250000000	2.8458822411
2.8300000000	2.7474268096
2.8350000000	2.6721860734
2.8400000000	2.6164869903
2.8450000000	2.5804571222
2.8500000000	2.5614270531
2.8550000000	2.5583795321
2.8600000000	2.5705548524
2.8650000000	2.5972684312
2.8700000000	2.6377543044
2.8750000000	2.6910403663
2.8800000000	2.7558522642
2.8850000000	2.8305326129
2.8900000000	2.9130890033
2.8950000000	3.0012684531
2.9000000000	3.0927019150
2.9050000000	3.2025597893
2.9100000000	3.3079350380
2.9150000000	3.4055145293
2.9200000000	3.4918220634
2.9250000000	3.5629140004
2.9300000000	3.6151591470
2.9350000000	3.6429082552
2.9400000000	3.6437240183
2.9450000000	3.6165687062
2.9500000000	3.5630086458
2.9550000000	3.4871133433
2.9600000000	3.3947560733
2.9650000000	3.2925916042
2.9700000000	3.1870547488
2.9750000000	3.0836446045
2.9800000000	2.9865746722
2.9850000000	2.8987196210
2.9900000000	2.8218083432
2.9950000000	2.7566521843
3.0000000000	2.7034216874
