# energy (eV)    P(omega), $W$ = 300 nm, $h$ = 300 nm, $s$ = 20 nm, $d/W = 5$, $E_{\rm e}$ = 200 keV
0.2000000000	0.2534934354
0.2050000000	0.2573539652
0.2100000000	0.2609417715
0.2150000000	0.2642659566
0.2200000000	0.2673347159
0.2250000000	0.2701548100
0.2300000000	0.2727316411
0.2350000000	0.2750689580
0.2400000000	0.2771686777
0.2450000000	0.2790305210
0.2500000000	0.2806517641
0.2550000000	0.2820265581
0.2600000000	0.2831458066
0.2650000000	0.2839959874
0.2700000000	0.2845587375
0.2750000000	0.2848094518
0.2800000000	0.2847160559
0.2850000000	0.2842371485
0.2900000000	0.2833197840
0.2950000000	0.2818964944
0.3000000000	0.2798811794
0.3050000000	0.2771641039
0.3100000000	0.2736047229
0.3150000000	0.2897150380
0.3200000000	0.3088471423
0.3250000000	0.3330620509
0.3300000000	0.3655208707
0.3350000000	0.4059118932
0.3400000000	0.4588026382
0.3450000000	0.5228975202
0.3500000000	0.6067097936
0.3550000000	0.7175514573
0.3600000000	0.8621658679
0.3650000000	1.0636706603
0.3700000000	1.3291027775
0.3750000000	1.6980370260
0.3800000000	2.2312199840
0.3850000000	3.0614831105
0.3900000000	4.3720805135
0.3950000000	6.5965684226
0.4000000000	10.8342319020
0.4050000000	20.3283228540
0.4100000000	46.2145090352
0.4150000000	148.1712228631
0.4200000000	94.4691749293
0.4250000000	-177.3273846768
0.4300000000	49.2142799395
0.4350000000	30.6285765696
0.4400000000	18.6956442719
0.4450000000	12.2770729467
0.4500000000	8.5846061798
0.4550000000	6.3137354809
0.4600000000	4.8356088381
0.4650000000	3.8288970332
0.4700000000	3.1177001452
0.4750000000	2.6035198260
0.4800000000	2.2223738010
0.4850000000	1.9355697576
0.4900000000	1.7165871874
0.4950000000	1.5476304098
0.5000000000	1.4165336163
0.5050000000	1.3143798544
0.5100000000	1.2354178354
0.5150000000	1.1754090874
0.5200000000	1.1299512781
0.5250000000	1.0970367451
0.5300000000	1.0745309789
0.5350000000	1.0608660518
0.5400000000	1.0548845735
0.5450000000	1.0556201444
0.5500000000	1.0627478478
0.5550000000	1.0757169013
0.5600000000	1.0942338691
0.5650000000	1.1181585629
0.5700000000	1.1473557891
0.5750000000	1.1820251621
0.5800000000	1.2224895203
0.5850000000	1.2689554174
0.5900000000	1.3218370689
0.5950000000	1.3816649359
0.6000000000	1.4491120764
0.6050000000	1.5251716554
0.6100000000	1.6107785862
0.6150000000	1.7072205105
0.6200000000	1.8162165094
0.6250000000	1.9394128179
0.6300000000	2.0792478473
0.6350000000	2.2387596889
0.6400000000	2.4211055209
0.6450000000	2.6308501859
0.6500000000	2.8739909086
0.6550000000	3.1567671210
0.6600000000	3.4887771353
0.6650000000	3.8823237295
0.6700000000	4.3518677728
0.6750000000	4.9194731837
0.6800000000	5.6147959622
0.6850000000	6.4766704326
0.6900000000	7.5652416537
0.6950000000	8.9646073564
0.7000000000	10.8083344427
0.7050000000	13.3005594630
0.7100000000	16.7871009669
0.7150000000	21.8834707512
0.7200000000	29.7352439140
0.7250000000	42.7635431091
0.7300000000	66.6676219518
0.7350000000	117.7944652607
0.7400000000	257.9519190943
0.7450000000	855.0766723363
0.7500000000	2646.9420706438
0.7550000000	665.3692593762
0.7600000000	220.1800928116
0.7650000000	105.4139155777
0.7700000000	61.2560926218
0.7750000000	39.9481964358
0.7800000000	28.0907182018
0.7850000000	20.8462435690
0.7900000000	16.0924524325
0.7950000000	12.8151069810
0.8000000000	10.4600135592
0.8050000000	8.7066400350
0.8100000000	7.3700789631
0.8150000000	6.3110227172
0.8200000000	5.4754573936
0.8250000000	4.8028858499
0.8300000000	4.2521352271
0.8350000000	3.7994278593
0.8400000000	3.4200374281
0.8450000000	3.1017519845
0.8500000000	2.8327421702
0.8550000000	2.6006662738
0.8600000000	2.4025599497
0.8650000000	2.2333202030
0.8700000000	2.0838248565
0.8750000000	1.9565988874
0.8800000000	1.8485615964
0.8850000000	1.7517094921
0.8900000000	1.6738291846
0.8950000000	1.6029871999
0.9000000000	1.5466325642
0.9050000000	1.5074300005
0.9100000000	1.4714781547
0.9150000000	1.4491811941
0.9200000000	1.4453279745
0.9250000000	1.4422066901
0.9300000000	1.4200814785
0.9350000000	1.3563059924
0.9400000000	1.0058467758
0.9450000000	-0.5826942201
0.9500000000	-8.9569096185
0.9550000000	-51.3994172295
0.9600000000	12.1227070929
0.9650000000	21.2777077206
0.9700000000	9.4330093061
0.9750000000	4.9514798834
0.9800000000	3.1036507112
0.9850000000	2.2396456886
0.9900000000	1.7420602362
0.9950000000	1.4404260279
1.0000000000	1.2478568467
1.0050000000	1.1257163711
1.0100000000	1.0311195555
1.0150000000	0.9620392780
1.0200000000	0.9154808775
1.0250000000	0.8764889067
1.0300000000	0.8469180297
1.0350000000	0.8246103401
1.0400000000	0.8104738948
1.0450000000	0.7988295989
1.0500000000	0.7912760807
1.0550000000	0.7873532041
1.0600000000	0.7880772961
1.0650000000	0.7906157681
1.0700000000	0.7961311995
1.0750000000	0.8046478558
1.0800000000	0.8169332663
1.0850000000	0.8325126470
1.0900000000	0.8553466002
1.0950000000	0.8824289842
1.1000000000	0.9146401372
1.1050000000	0.9518269112
1.1100000000	0.9951300170
1.1150000000	1.0455332040
1.1200000000	1.1041662686
1.1250000000	1.1726628754
1.1300000000	1.2530273434
1.1350000000	1.3478174925
1.1400000000	1.4599053648
1.1450000000	1.5947035450
1.1500000000	1.7579583289
1.1550000000	1.9580406152
1.1600000000	2.2067610777
1.1650000000	2.5194040631
1.1700000000	2.9247895481
1.1750000000	3.4610105236
1.1800000000	4.1910988846
1.1850000000	5.2187048771
1.1900000000	6.7389472092
1.1950000000	9.1269471928
1.2000000000	13.1789310897
1.2050000000	20.8376047700
1.2100000000	37.6851757474
1.2150000000	83.2119033353
1.2200000000	204.2480012875
1.2250000000	183.3303624557
1.2300000000	72.9636924690
1.2350000000	34.0905955853
1.2400000000	19.3640115216
1.2450000000	12.5947702088
1.2500000000	9.0144578615
1.2550000000	6.9374405027
1.2600000000	5.6612016199
1.2650000000	4.8475183185
1.2700000000	4.3436617226
1.2750000000	4.0503607278
1.2800000000	3.9188075662
1.2850000000	3.9256439521
1.2900000000	4.0648984658
1.2950000000	4.3427143506
1.3000000000	4.7963860559
1.3050000000	5.4731059695
1.3100000000	6.4638276009
1.3150000000	7.9266757146
1.3200000000	10.1470895978
1.3250000000	13.6682623498
1.3300000000	19.6836961854
1.3350000000	30.9567607776
1.3400000000	55.0524819312
1.3450000000	114.8567838301
1.3500000000	243.4963137562
1.3550000000	226.9427724441
1.3600000000	104.6158276331
1.3650000000	51.3963625295
1.3700000000	29.4777541649
1.3750000000	18.9609159795
1.3800000000	13.2269249066
1.3850000000	9.7724347637
1.3900000000	7.5449862791
1.3950000000	6.0244808787
1.4000000000	4.9413603008
1.4050000000	4.1438294379
1.4100000000	3.5391385951
1.4150000000	3.0704892049
1.4200000000	2.6956239632
1.4250000000	2.3954592093
1.4300000000	2.1528208281
1.4350000000	1.9063672897
1.4400000000	1.1248127463
1.4450000000	-0.8996364145
1.4500000000	-4.6024107462
1.4550000000	-1.6710023599
1.4600000000	4.2011446735
1.4650000000	2.5559380892
1.4700000000	-1.0931014120
1.4750000000	-6.6723597364
1.4800000000	-2.9085682604
1.4850000000	5.2366833153
1.4900000000	4.2365294635
1.4950000000	2.7603076198
1.5000000000	1.9522854401
1.5050000000	1.5133457537
1.5100000000	1.2617047876
1.5150000000	1.1068178532
1.5200000000	1.0049359595
1.5250000000	0.9400844013
1.5300000000	0.8885596845
1.5350000000	0.8508448125
1.5400000000	0.8232189692
1.5450000000	0.8034090421
1.5500000000	0.7899232017
1.5550000000	0.7820065789
1.5600000000	0.7809235539
1.5650000000	0.7837631122
1.5700000000	0.7931673734
1.5750000000	0.8109289210
1.5800000000	0.8406869292
1.5850000000	0.8896098085
1.5900000000	0.9728167666
1.5950000000	1.1235325561
1.6000000000	1.4109956526
1.6050000000	1.8763538241
1.6100000000	2.0828563431
1.6150000000	1.6832171424
1.6200000000	1.3218798861
1.6250000000	1.1427549062
1.6300000000	1.0645462188
1.6350000000	1.0366849962
1.6400000000	1.0365279866
1.6450000000	1.0538348044
1.6500000000	1.0837716062
1.6550000000	1.1243226190
1.6600000000	1.1747090450
1.6650000000	1.2350272933
1.6700000000	1.3059651199
1.6750000000	1.3887156968
1.6800000000	1.4849710448
1.6850000000	1.5969830440
1.6900000000	1.7276396014
1.6950000000	1.8796839273
1.7000000000	2.0589060570
1.7050000000	2.2758602599
1.7100000000	2.5430787200
1.7150000000	2.9225735173
1.7200000000	3.4484832689
1.7250000000	4.0858277040
1.7300000000	4.8861812905
1.7350000000	5.7414951558
1.7400000000	6.4967239172
1.7450000000	7.4359080708
1.7500000000	8.8929243622
1.7550000000	11.0923193863
1.7600000000	14.3995333046
1.7650000000	19.5047947198
1.7700000000	27.7285384572
1.7750000000	41.5752827103
1.7800000000	65.1468604247
1.7850000000	99.8537653362
1.7900000000	123.9190941271
1.7950000000	105.3525570415
1.8000000000	69.9867308836
1.8050000000	44.1040458313
1.8100000000	29.0068685874
1.8150000000	20.1635126012
1.8200000000	14.7228803900
1.8250000000	11.1953504038
1.8300000000	8.7986389290
1.8350000000	7.1043512200
1.8400000000	5.8666607588
1.8450000000	4.9361383077
1.8500000000	4.2184803867
1.8550000000	3.6545240244
1.8600000000	3.2024325571
1.8650000000	2.8332957911
1.8700000000	2.5257711652
1.8750000000	2.2631259285
1.8800000000	2.0306479782
1.8850000000	1.8134178868
1.8900000000	1.5924762187
1.8950000000	1.3389944910
1.9000000000	1.0044550389
1.9050000000	0.4350232745
1.9100000000	-0.3918184801
1.9150000000	-1.2821564753
1.9200000000	-0.8829812098
1.9250000000	1.7208474644
1.9300000000	3.8123294520
1.9350000000	3.9817727993
1.9400000000	3.2820025753
1.9450000000	2.5750068461
1.9500000000	2.0666813508
1.9550000000	1.7256461478
1.9600000000	1.4955632427
1.9650000000	1.3432329739
1.9700000000	1.2278880451
1.9750000000	1.1432345789
1.9800000000	1.0794717842
1.9850000000	1.0296757768
1.9900000000	0.9889119356
1.9950000000	0.9531822173
2.0000000000	0.9215235132
2.0050000000	0.9053821487
2.0100000000	0.9201740835
2.0150000000	0.9555485276
2.0200000000	0.9833768604
2.0250000000	1.0023259260
2.0300000000	1.0225440673
2.0350000000	1.0484104173
2.0400000000	1.0832607220
2.0450000000	1.1292637858
2.0500000000	1.1890257499
2.0550000000	1.2651897150
2.0600000000	1.3578819576
2.0650000000	1.4583025583
2.0700000000	1.5446197319
2.0750000000	1.5994948155
2.0800000000	1.6347678439
2.0850000000	1.6768807192
2.0900000000	1.7422042205
2.0950000000	1.8357443187
2.1000000000	1.9601980397
2.1050000000	2.1127236099
2.1100000000	2.3039622208
2.1150000000	2.5413024429
2.1200000000	2.8357083215
2.1250000000	3.2029397448
2.1300000000	3.6654675561
2.1350000000	4.2555208181
2.1400000000	5.0196854609
2.1450000000	6.0260554032
2.1500000000	7.3737561320
2.1550000000	9.2028930229
2.1600000000	11.6926009179
2.1650000000	14.9943697872
2.1700000000	19.0508247104
2.1750000000	23.0992210890
2.1800000000	25.6589013520
2.1850000000	25.9470450445
2.1900000000	25.0658229934
2.1950000000	24.4807332095
2.2000000000	24.3122319302
2.2050000000	23.1431453515
2.2100000000	20.3793074269
2.2150000000	16.8686463562
2.2200000000	13.6565277258
2.2250000000	11.0837335151
2.2300000000	9.0585217491
2.2350000000	7.4497417257
2.2400000000	6.1732358784
2.2450000000	5.1768644091
2.2500000000	4.3998225590
2.2550000000	3.7867724889
2.2600000000	3.2915111757
2.2650000000	2.8755877570
2.2700000000	2.5066858387
2.2750000000	2.1621101316
2.2800000000	1.8434419274
2.2850000000	1.5906833876
2.2900000000	1.4631085836
2.2950000000	1.4811643097
2.3000000000	1.5864121739
2.3050000000	1.6892826944
2.3100000000	1.7336705324
2.3150000000	1.7224202846
2.3200000000	1.6800947263
2.3250000000	1.6317699850
2.3300000000	1.5909968139
2.3350000000	1.5624704591
2.3400000000	1.5452147477
2.3450000000	1.5341967598
2.3500000000	1.5226976561
2.3550000000	1.5064209773
2.3600000000	1.4865583929
2.3650000000	1.4683215521
2.3700000000	1.4568774923
2.3750000000	1.4547524829
2.3800000000	1.4615209378
2.3850000000	1.4745967916
2.3900000000	1.4910986075
2.3950000000	1.5085614129
2.4000000000	1.5284559086
2.4050000000	1.5562631638
2.4100000000	1.5947676471
2.4150000000	1.6475016079
2.4200000000	1.7168678811
2.4250000000	1.8050533445
2.4300000000	1.9145113815
2.4350000000	2.0483173096
2.4400000000	2.2104280336
2.4450000000	2.4059482709
2.4500000000	2.6413747765
2.4550000000	2.9249266964
2.4600000000	3.2667530425
2.4650000000	3.6791340331
2.4700000000	4.1762938740
2.4750000000	4.7727110683
2.4800000000	5.4840454553
2.4850000000	6.3173367283
2.4900000000	7.2656850949
2.4950000000	8.2947870031
2.5000000000	9.3284422120
2.5050000000	10.2837895039
2.5100000000	10.9009879474
2.5150000000	11.0361501831
2.5200000000	10.6706607074
2.5250000000	9.9188715488
2.5300000000	8.9547699887
2.5350000000	7.9309789066
2.5400000000	6.9441759817
2.5450000000	6.0421494980
2.5500000000	5.2427600530
2.5550000000	4.5482783000
2.5600000000	3.9486297729
2.5650000000	3.4424979137
2.5700000000	3.0197830587
2.5750000000	2.6745067733
2.5800000000	2.4020001726
2.5850000000	2.1964798804
2.5900000000	2.0475056572
2.5950000000	1.9399635871
2.6000000000	1.8580455101
2.6050000000	1.7996197938
2.6100000000	1.7471602352
2.6150000000	1.7000216841
2.6200000000	1.6593821710
2.6250000000	1.6264000787
2.6300000000	1.6017751474
2.6350000000	1.5858107564
2.6400000000	1.5786662328
2.6450000000	1.5805210644
2.6500000000	1.5917609337
2.6550000000	1.6124505351
2.6600000000	1.6431321672
2.6650000000	1.6842850916
2.6700000000	1.7364739950
2.6750000000	1.8003688933
2.6800000000	1.8767154699
2.6850000000	1.9663280090
2.6900000000	2.0699931937
2.6950000000	2.1884238954
2.7000000000	2.3221135353
2.7050000000	2.4871586851
2.7100000000	2.6721356328
2.7150000000	2.8757722324
2.7200000000	3.0953215715
2.7250000000	3.3262094295
2.7300000000	3.5617111859
2.7350000000	3.7926670792
2.7400000000	4.0073341894
2.7450000000	4.1933166339
2.7500000000	4.3326205218
2.7550000000	4.4128857254
2.7600000000	4.4248297926
2.7650000000	4.3660652696
2.7700000000	4.2419429194
2.7750000000	4.0644677749
2.7800000000	3.8495621546
2.7850000000	3.6141651951
2.7900000000	3.3734085737
2.7950000000	3.1394081004
2.8000000000	2.9207093665
2.8050000000	2.6983251720
2.8100000000	2.5063548890
2.8150000000	2.3443608542
2.8200000000	2.2097969749
2.8250000000	2.0992792401
2.8300000000	2.0094129167
2.8350000000	1.9373048500
2.8400000000	1.8798793971
2.8450000000	1.8373437339
2.8500000000	1.8074439084
2.8550000000	1.7893399590
2.8600000000	1.7824376265
2.8650000000	1.7862673925
2.8700000000	1.8004109596
2.8750000000	1.8244404644
2.8800000000	1.8578606431
2.8850000000	1.9000557469
2.8900000000	1.9502677224
2.8950000000	2.0075708185
2.9000000000	2.0708672980
2.9050000000	2.1540066647
2.9100000000	2.2393593934
2.9150000000	2.3236345255
2.9200000000	2.4028750186
2.9250000000	2.4724928573
2.9300000000	2.5281759108
2.9350000000	2.5641828614
2.9400000000	2.5776380433
2.9450000000	2.5670689166
2.9500000000	2.5333427263
2.9550000000	2.4795359521
2.9600000000	2.4103344500
2.9650000000	2.3311741605
2.9700000000	2.2473893289
2.9750000000	2.1636082877
2.9800000000	2.0834205365
2.9850000000	2.0093302033
2.9900000000	1.9428781338
2.9950000000	1.8848493325
3.0000000000	1.8354968470
