# energy (eV)    P(omega), $W$ = 400 nm, $h$ = 300 nm, $s$ = 20 nm, $d/W = 5$, $E_{\rm e}$ = 200 keV
0.2000000000	0.1013874769
0.2050000000	0.1023097367
0.2100000000	0.1029591287
0.2150000000	0.1033247165
0.2200000000	0.1033912076
0.2250000000	0.1031378274
0.2300000000	0.1025372417
0.2350000000	0.1015538610
0.2400000000	0.1001419165
0.2450000000	0.0982424221
0.2500000000	0.0957799641
0.2550000000	0.0926575075
0.2600000000	0.0887500098
0.2650000000	0.0928445326
0.2700000000	0.1032451458
0.2750000000	0.1181281603
0.2800000000	0.1388645170
0.2850000000	0.1694354543
0.2900000000	0.2073152828
0.2950000000	0.2616194333
0.3000000000	0.3346201179
0.3050000000	0.4465131167
0.3100000000	0.6023773793
0.3150000000	0.9039681770
0.3200000000	1.3749965664
0.3250000000	1.6974878616
0.3300000000	2.1435988210
0.3350000000	2.7760271641
0.3400000000	3.7688140955
0.3450000000	5.4721216606
0.3500000000	8.8686714948
0.3550000000	16.7312817156
0.3600000000	41.1193580160
0.3650000000	0.1856006720
0.3700000000	19.0576008020
0.3750000000	25.0600929024
0.3800000000	11.6772034416
0.3850000000	6.5779129001
0.3900000000	4.2191748061
0.3950000000	2.9731833085
0.4000000000	2.2517541160
0.4050000000	1.7814320972
0.4100000000	1.4752421047
0.4150000000	1.2732933510
0.4200000000	1.1456587012
0.4250000000	1.0454181053
0.4300000000	0.9269675546
0.4350000000	0.8332209193
0.4400000000	0.7590778857
0.4450000000	0.7001255502
0.4500000000	0.6535831966
0.4550000000	0.6166766407
0.4600000000	0.5878867847
0.4650000000	0.5656068995
0.4700000000	0.5487732990
0.4750000000	0.5366417819
0.4800000000	0.5285629095
0.4850000000	0.5239672246
0.4900000000	0.5225179867
0.4950000000	0.5239561157
0.5000000000	0.5280602588
0.5050000000	0.5347317528
0.5100000000	0.5438897911
0.5150000000	0.5554863543
0.5200000000	0.5695454997
0.5250000000	0.5860869572
0.5300000000	0.6053535735
0.5350000000	0.6274533118
0.5400000000	0.6525805931
0.5450000000	0.6809903429
0.5500000000	0.7130432662
0.5550000000	0.7491338909
0.5600000000	0.7897424362
0.5650000000	0.8354864099
0.5700000000	0.8872182384
0.5750000000	0.9455697279
0.5800000000	1.0117230227
0.5850000000	1.0872933148
0.5900000000	1.1733701104
0.5950000000	1.2722459405
0.6000000000	1.3869495143
0.6050000000	1.5197508678
0.6100000000	1.6758535636
0.6150000000	1.8595727871
0.6200000000	2.0783160226
0.6250000000	2.3427105001
0.6300000000	2.6635942560
0.6350000000	3.0613327622
0.6400000000	3.5583946924
0.6450000000	4.1955524828
0.6500000000	5.0248889703
0.6550000000	6.1346269157
0.6600000000	7.6737290748
0.6650000000	9.8775437138
0.6700000000	13.2146466565
0.6750000000	18.5802075149
0.6800000000	28.0648523447
0.6850000000	47.0964165157
0.6900000000	94.3888618271
0.6950000000	264.9639503732
0.7000000000	1285.0991505200
0.7050000000	624.7834537189
0.7100000000	160.4940640695
0.7150000000	68.2512485482
0.7200000000	37.2729587016
0.7250000000	23.4141326502
0.7300000000	16.0588957837
0.7350000000	11.7108462096
0.7400000000	8.9265110769
0.7450000000	7.0366130248
0.7500000000	5.6978437398
0.7550000000	4.7142881800
0.7600000000	3.9729598057
0.7650000000	3.3980698484
0.7700000000	2.9442528173
0.7750000000	2.5799224547
0.7800000000	2.2838551156
0.7850000000	2.0400738704
0.7900000000	1.8358416528
0.7950000000	1.6652701735
0.8000000000	1.5202383719
0.8050000000	1.3959832294
0.8100000000	1.2902048278
0.8150000000	1.1974944602
0.8200000000	1.1167801637
0.8250000000	1.0490468200
0.8300000000	0.9897577266
0.8350000000	0.9382145033
0.8400000000	0.8971681183
0.8450000000	0.8613530150
0.8500000000	0.8309856931
0.8550000000	0.8117910924
0.8600000000	0.7964160513
0.8650000000	0.7854076388
0.8700000000	0.7892410390
0.8750000000	0.7905841137
0.8800000000	0.7863294328
0.8850000000	0.7521399764
0.8900000000	0.5836864789
0.8950000000	-0.2605233688
0.9000000000	-4.7874137052
0.9050000000	-31.4568689031
0.9100000000	5.9900238433
0.9150000000	14.1892508157
0.9200000000	5.8902381811
0.9250000000	3.0642735390
0.9300000000	1.8705046512
0.9350000000	1.3001599608
0.9400000000	0.9924823623
0.9450000000	0.8219375575
0.9500000000	0.7008222615
0.9550000000	0.6197476706
0.9600000000	0.5696047114
0.9650000000	0.5282292649
0.9700000000	0.4987022780
0.9750000000	0.4785746340
0.9800000000	0.4663135839
0.9850000000	0.4640494428
0.9900000000	0.4684871800
0.9950000000	0.4864750559
1.0000000000	0.5295076590
1.0050000000	0.6299998134
1.0100000000	0.8933785889
1.0150000000	1.7960941657
1.0200000000	3.4487891059
1.0250000000	1.5682207740
1.0300000000	0.8035027258
1.0350000000	0.5755791922
1.0400000000	0.4859503995
1.0450000000	0.4439047164
1.0500000000	0.4228310575
1.0550000000	0.4117770416
1.0600000000	0.4068182550
1.0650000000	0.4058946076
1.0700000000	0.4078639678
1.0750000000	0.4123244877
1.0800000000	0.4184780215
1.0850000000	0.4268507782
1.0900000000	0.4389480636
1.0950000000	0.4530506525
1.1000000000	0.4692967618
1.1050000000	0.4877158165
1.1100000000	0.5085992694
1.1150000000	0.5322250261
1.1200000000	0.5589228665
1.1250000000	0.5889656358
1.1300000000	0.6231317344
1.1350000000	0.6619456657
1.1400000000	0.7061931098
1.1450000000	0.7568729788
1.1500000000	0.8147624923
1.1550000000	0.8822821776
1.1600000000	0.9609621384
1.1650000000	1.0528057737
1.1700000000	1.1582250036
1.1750000000	1.2651168324
1.1800000000	1.3662346805
1.1850000000	1.8991124910
1.1900000000	2.3567482648
1.1950000000	3.2305740382
1.2000000000	4.3996961202
1.2050000000	3.8594200730
1.2100000000	3.6936552006
1.2150000000	4.1121602438
1.2200000000	4.9182164506
1.2250000000	6.1560421682
1.2300000000	8.0382356836
1.2350000000	11.0156657628
1.2400000000	16.0311480207
1.2450000000	25.4752726485
1.2500000000	45.9286007275
1.2550000000	99.4211603206
1.2600000000	240.1439194379
1.2650000000	243.2562305203
1.2700000000	101.1898177326
1.2750000000	46.7094119069
1.2800000000	25.8685687398
1.2850000000	16.2677388422
1.2900000000	11.1500847496
1.2950000000	8.1263775956
1.3000000000	6.2004109130
1.3050000000	4.9036657130
1.3100000000	3.9892543008
1.3150000000	3.3285505650
1.3200000000	2.8387750029
1.3250000000	2.4702078138
1.3300000000	2.1926501712
1.3350000000	1.9875731239
1.3400000000	1.8453596191
1.3450000000	1.7633778211
1.3500000000	1.7536070430
1.3550000000	1.8433155648
1.3600000000	2.1018775219
1.3650000000	2.7058249941
1.3700000000	4.1480457286
1.3750000000	7.7363254663
1.3800000000	12.6371117011
1.3850000000	8.8278685859
1.3900000000	4.4985567008
1.3950000000	2.6100854139
1.4000000000	1.7092752038
1.4050000000	1.1556925704
1.4100000000	0.6547443366
1.4150000000	-0.0924357017
1.4200000000	-1.7651062072
1.4250000000	-6.1971210803
1.4300000000	-8.3325433696
1.4350000000	3.8176805514
1.4400000000	4.8833543980
1.4450000000	2.9278152349
1.4500000000	1.8218284924
1.4550000000	1.2558761337
1.4600000000	0.9273813435
1.4650000000	0.6677276381
1.4700000000	0.3899311797
1.4750000000	0.4583547742
1.4800000000	0.6721765866
1.4850000000	0.6103524206
1.4900000000	0.5404353124
1.4950000000	0.4952141500
1.5000000000	0.4655086364
1.5050000000	0.4458672801
1.5100000000	0.4325051407
1.5150000000	0.4252126741
1.5200000000	0.4198358904
1.5250000000	0.4178926895
1.5300000000	0.4195607807
1.5350000000	0.4256052409
1.5400000000	0.4379357647
1.5450000000	0.4607937980
1.5500000000	0.5037127406
1.5550000000	0.5856952729
1.5600000000	0.7087547242
1.5650000000	0.7284803039
1.5700000000	0.6174452549
1.5750000000	0.5395360026
1.5800000000	0.5059366697
1.5850000000	0.4953772370
1.5900000000	0.4967679121
1.5950000000	0.5052928621
1.6000000000	0.5188541576
1.6050000000	0.5367299795
1.6100000000	0.5583811718
1.6150000000	0.5837277966
1.6200000000	0.6131738151
1.6250000000	0.6470677175
1.6300000000	0.6859820335
1.6350000000	0.7306548042
1.6400000000	0.7820297344
1.6450000000	0.8413120996
1.6500000000	0.9100147932
1.6550000000	0.9900550575
1.6600000000	1.0839168814
1.6650000000	1.1948065667
1.6700000000	1.3258417976
1.6750000000	1.4846728157
1.6800000000	1.6780622238
1.6850000000	1.9166487190
1.6900000000	2.2155373980
1.6950000000	2.5968946392
1.7000000000	3.0940898709
1.7050000000	3.7799908366
1.7100000000	4.7369571049
1.7150000000	6.1279503515
1.7200000000	8.2479117291
1.7250000000	11.6112042385
1.7300000000	16.7796375124
1.7350000000	23.4118079102
1.7400000000	31.7946639366
1.7450000000	46.5053883169
1.7500000000	65.6018688741
1.7550000000	66.6569403132
1.7600000000	46.7641912871
1.7650000000	29.1298564949
1.7700000000	18.6734904473
1.7750000000	12.7276138198
1.7800000000	9.2138660680
1.7850000000	7.0525029734
1.7900000000	5.7121814547
1.7950000000	4.9453621084
1.8000000000	4.6360274302
1.8050000000	4.5382653295
1.8100000000	4.0378188853
1.8150000000	3.1286340206
1.8200000000	2.4022573227
1.8250000000	2.0277817074
1.8300000000	1.7653844611
1.8350000000	1.5321791872
1.8400000000	1.3420189533
1.8450000000	1.1911183038
1.8500000000	1.0695111560
1.8550000000	0.9690522031
1.8600000000	0.8766466050
1.8650000000	0.7985278360
1.8700000000	0.7195796211
1.8750000000	0.6057726094
1.8800000000	0.3463517877
1.8850000000	-0.2222246729
1.8900000000	-0.9869988187
1.8950000000	-1.1182285471
1.9000000000	0.1197056805
1.9050000000	1.2739074865
1.9100000000	1.4085878039
1.9150000000	1.1899994720
1.9200000000	0.9757617658
1.9250000000	0.8237364402
1.9300000000	0.7316669633
1.9350000000	0.6613729929
1.9400000000	0.6146069428
1.9450000000	0.5836450434
1.9500000000	0.5620026217
1.9550000000	0.5439016451
1.9600000000	0.5282809619
1.9650000000	0.5171919508
1.9700000000	0.5112716356
1.9750000000	0.5101256845
1.9800000000	0.5134348599
1.9850000000	0.5212951859
1.9900000000	0.5342222336
1.9950000000	0.5528609294
2.0000000000	0.5767270840
2.0050000000	0.6038067550
2.0100000000	0.6232439512
2.0150000000	0.6362252674
2.0200000000	0.6518786140
2.0250000000	0.6760246359
2.0300000000	0.7103777369
2.0350000000	0.7557979763
2.0400000000	0.8138459555
2.0450000000	0.8872281386
2.0500000000	0.9798308715
2.0550000000	1.0959730424
2.0600000000	1.2377502915
2.0650000000	1.4029358998
2.0700000000	1.5940136537
2.0750000000	1.8322992047
2.0800000000	2.1529834085
2.0850000000	2.5903787469
2.0900000000	3.1644400981
2.0950000000	3.8339205302
2.1000000000	4.4306009825
2.1050000000	4.7196939717
2.1100000000	4.5823027411
2.1150000000	4.2662248045
2.1200000000	4.0427625472
2.1250000000	4.0330736688
2.1300000000	4.2730917164
2.1350000000	4.7912872008
2.1400000000	5.6446969821
2.1450000000	6.9342395349
2.1500000000	8.8012429612
2.1550000000	11.3518738285
2.1600000000	14.3804427644
2.1650000000	16.9259174859
2.1700000000	17.5273904362
2.1750000000	15.6898662769
2.1800000000	12.6668579287
2.1850000000	9.7730862655
2.1900000000	7.5105781322
2.1950000000	5.8759764732
2.2000000000	4.7291603456
2.2050000000	3.9379438950
2.2100000000	3.3886722930
2.2150000000	2.9673782090
2.2200000000	2.5898839244
2.2250000000	2.2308374153
2.2300000000	1.9057508389
2.2350000000	1.6266197080
2.2400000000	1.3902043847
2.2450000000	1.1860671007
2.2500000000	1.0038190628
2.2550000000	0.8376506995
2.2600000000	0.6714788308
2.2650000000	0.5505947648
2.2700000000	0.4849329110
2.2750000000	0.5014684189
2.2800000000	0.5968483754
2.2850000000	0.7183026403
2.2900000000	0.8072056560
2.2950000000	0.8466107573
2.3000000000	0.8511211822
2.3050000000	0.8375295656
2.3100000000	0.8196249999
2.3150000000	0.8037615081
2.3200000000	0.7924512233
2.3250000000	0.7870738982
2.3300000000	0.7887460483
2.3350000000	0.7983927207
2.3400000000	0.8168042258
2.3450000000	0.8447802618
2.3500000000	0.8831680030
2.3550000000	0.9332372715
2.3600000000	0.9941663623
2.3650000000	1.0663342833
2.3700000000	1.1495404287
2.3750000000	1.2446880970
2.3800000000	1.3552119410
2.3850000000	1.4851873679
2.3900000000	1.6355153690
2.3950000000	1.7995015376
2.4000000000	1.9599366988
2.4050000000	2.0981920401
2.4100000000	2.1748155427
2.4150000000	2.1821237206
2.4200000000	2.1388533423
2.4250000000	2.0769551389
2.4300000000	2.0247857757
2.4350000000	1.9994621601
2.4400000000	2.0078144240
2.4450000000	2.0509454468
2.4500000000	2.1289921705
2.4550000000	2.2436927375
2.4600000000	2.4024015899
2.4650000000	2.6126578603
2.4700000000	2.8828577484
2.4750000000	3.2182459176
2.4800000000	3.6161770467
2.4850000000	4.0596728844
2.4900000000	4.5098943358
2.4950000000	4.9023890537
2.5000000000	5.1565035233
2.5050000000	5.1891788408
2.5100000000	4.9672489090
2.5150000000	4.5512904523
2.5200000000	4.0380961743
2.5250000000	3.5127015158
2.5300000000	3.0269411824
2.5350000000	2.6025945564
2.5400000000	2.2428683092
2.5450000000	1.9424255342
2.5500000000	1.6935320872
2.5550000000	1.4892389162
2.5600000000	1.3184154275
2.5650000000	1.1905756064
2.5700000000	1.0987202844
2.5750000000	1.0395736843
2.5800000000	1.0065703945
2.5850000000	0.9907309777
2.5900000000	0.9836283531
2.5950000000	0.9800150388
2.6000000000	0.9781991061
2.6050000000	0.9860071394
2.6100000000	0.9983741218
2.6150000000	1.0171923905
2.6200000000	1.0434673149
2.6250000000	1.0772607617
2.6300000000	1.1176189119
2.6350000000	1.1625174633
2.6400000000	1.2088633773
2.6450000000	1.2527344293
2.6500000000	1.2899767565
2.6550000000	1.3171845912
2.6600000000	1.3327758715
2.6650000000	1.3376797334
2.6700000000	1.3351399199
2.6750000000	1.3298980235
2.6800000000	1.3265485963
2.6850000000	1.3293842786
2.6900000000	1.3413944407
2.6950000000	1.3644161766
2.7000000000	1.3993302756
2.7050000000	1.4515970802
2.7100000000	1.5188661511
2.7150000000	1.6000497440
2.7200000000	1.6928994941
2.7250000000	1.7935987989
2.7300000000	1.8963858814
2.7350000000	1.9934927034
2.7400000000	2.0756792603
2.7450000000	2.1335637468
2.7500000000	2.1595843275
2.7550000000	2.1499311042
2.7600000000	2.1055772572
2.7650000000	2.0319277983
2.7700000000	1.9372536636
2.7750000000	1.8307185206
2.7800000000	1.7207251851
2.7850000000	1.6139956885
2.7900000000	1.5144271408
2.7950000000	1.4262840767
2.8000000000	1.3504487340
2.8050000000	1.2802119442
2.8100000000	1.2248361369
2.8150000000	1.1821409676
2.8200000000	1.1497578244
2.8250000000	1.1255131646
2.8300000000	1.1075596085
2.8350000000	1.0943647868
2.8400000000	1.0846338468
2.8450000000	1.0772674059
2.8500000000	1.0713826721
2.8550000000	1.0663935872
2.8600000000	1.0621017907
2.8650000000	1.0587258925
2.8700000000	1.0568459874
2.8750000000	1.0572598776
2.8800000000	1.0608064500
2.8850000000	1.0682063219
2.8900000000	1.0799509075
2.8950000000	1.0962355121
2.9000000000	1.1169264259
2.9050000000	1.1478769248
2.9100000000	1.1818186673
2.9150000000	1.2164853709
2.9200000000	1.2490129493
2.9250000000	1.2763246530
2.9300000000	1.2955637940
2.9350000000	1.3045944248
2.9400000000	1.3024146813
2.9450000000	1.2893480789
2.9500000000	1.2669225326
2.9550000000	1.2374808974
2.9600000000	1.2036872019
2.9650000000	1.1680648729
2.9700000000	1.1326891477
2.9750000000	1.0990525159
2.9800000000	1.0680738251
2.9850000000	1.0401975355
2.9900000000	1.0155269711
2.9950000000	0.9939539299
3.0000000000	0.9752644046
