# energy (eV)    P(omega), $W$ = 300 nm, $h$ = 300 nm, $s$ = 20 nm, $d/W = 5$, $E_{\rm e}$ = 200 keV
0.2000000000	0.1243059857
0.2050000000	0.1260910908
0.2100000000	0.1277693421
0.2150000000	0.1293440747
0.2200000000	0.1308181628
0.2250000000	0.1321939814
0.2300000000	0.1334732716
0.2350000000	0.1346571185
0.2400000000	0.1357458258
0.2450000000	0.1367386462
0.2500000000	0.1376339331
0.2550000000	0.1384285322
0.2600000000	0.1391178348
0.2650000000	0.1396954249
0.2700000000	0.1401525056
0.2750000000	0.1404775658
0.2800000000	0.1406556855
0.2850000000	0.1406677903
0.2900000000	0.1404893759
0.2950000000	0.1400895412
0.3000000000	0.1394285008
0.3050000000	0.1384559878
0.3100000000	0.1371074691
0.3150000000	0.1444876142
0.3200000000	0.1532538290
0.3250000000	0.1643351186
0.3300000000	0.1791633789
0.3350000000	0.1976269147
0.3400000000	0.2218077546
0.3450000000	0.2511633894
0.3500000000	0.2895821410
0.3550000000	0.3404433251
0.3600000000	0.4069035980
0.3650000000	0.4996012087
0.3700000000	0.6219527956
0.3750000000	0.7922815318
0.3800000000	1.0388071687
0.3850000000	1.4231833481
0.3900000000	2.0308859790
0.3950000000	3.0639194767
0.4000000000	5.0346076570
0.4050000000	9.4558717638
0.4100000000	21.5287404439
0.4150000000	69.1502974419
0.4200000000	44.0153427768
0.4250000000	-83.0928368708
0.4300000000	23.1564213569
0.4350000000	14.4491150390
0.4400000000	8.8464574470
0.4450000000	5.8284425727
0.4500000000	4.0898776856
0.4550000000	3.0193129215
0.4600000000	2.3216521087
0.4650000000	1.8459851909
0.4700000000	1.5096346729
0.4750000000	1.2662980742
0.4800000000	1.0858449225
0.4850000000	0.9500571971
0.4900000000	0.8464313156
0.4950000000	0.7665698586
0.5000000000	0.7047346440
0.5050000000	0.6567104883
0.5100000000	0.6197887888
0.5150000000	0.5919765317
0.5200000000	0.5711778695
0.5250000000	0.5564595953
0.5300000000	0.5468115384
0.5350000000	0.5414970602
0.5400000000	0.5399739992
0.5450000000	0.5417897207
0.5500000000	0.5468096139
0.5550000000	0.5547812518
0.5600000000	0.5655818063
0.5650000000	0.5791594937
0.5700000000	0.5954705701
0.5750000000	0.6146318206
0.5800000000	0.6368330472
0.5850000000	0.6621990128
0.5900000000	0.6909669467
0.5950000000	0.7234309723
0.6000000000	0.7599652632
0.6050000000	0.8011060520
0.6100000000	0.8473699694
0.6150000000	0.8994580981
0.6200000000	0.9583062253
0.6250000000	1.0248103037
0.6300000000	1.1002946129
0.6350000000	1.1864097380
0.6400000000	1.2848738902
0.6450000000	1.3981659003
0.6500000000	1.5295460750
0.6550000000	1.6824090795
0.6600000000	1.8619702226
0.6650000000	2.0749269425
0.6700000000	2.3291527255
0.6750000000	2.6366494548
0.6800000000	3.0135764521
0.6850000000	3.4810869295
0.6900000000	4.0719702676
0.6950000000	4.8320703786
0.7000000000	5.8342531602
0.7050000000	7.1899087771
0.7100000000	9.0878341111
0.7150000000	11.8641518106
0.7200000000	16.1447578937
0.7250000000	23.2529678574
0.7300000000	36.3051972493
0.7350000000	64.2441213662
0.7400000000	140.8985749305
0.7450000000	467.7763003135
0.7500000000	1450.2667166940
0.7550000000	365.1254459582
0.7600000000	121.0150442160
0.7650000000	58.0291559148
0.7700000000	33.7746444094
0.7750000000	22.0615904009
0.7800000000	15.5383954968
0.7850000000	11.5499536083
0.7900000000	8.9307973961
0.7950000000	7.1237617946
0.8000000000	5.8242974034
0.8050000000	4.8561523985
0.8100000000	4.1176309676
0.8150000000	3.5319586143
0.8200000000	3.0695825381
0.8250000000	2.6971762222
0.8300000000	2.3920131592
0.8350000000	2.1410568082
0.8400000000	1.9306317997
0.8450000000	1.7540189392
0.8500000000	1.6047174529
0.8550000000	1.4758398676
0.8600000000	1.3658192159
0.8650000000	1.2718653872
0.8700000000	1.1888239512
0.8750000000	1.1182228516
0.8800000000	1.0583712448
0.8850000000	1.0047052359
0.8900000000	0.9617719276
0.8950000000	0.9227111428
0.9000000000	0.8918807353
0.9050000000	0.8708873191
0.9100000000	0.8516606713
0.9150000000	0.8402913758
0.9200000000	0.8396288989
0.9250000000	0.8392857047
0.9300000000	0.8275593046
0.9350000000	0.7908164747
0.9400000000	0.5833553591
0.9450000000	-0.3620585394
0.9500000000	-5.3564605067
0.9550000000	-30.7073020677
0.9600000000	7.2531045105
0.9650000000	12.7482834667
0.9700000000	5.6582095450
0.9750000000	2.9717783524
0.9800000000	1.8629018045
0.9850000000	1.3441314295
0.9900000000	1.0450731044
0.9950000000	0.8636698493
1.0000000000	0.7478216126
1.0050000000	0.6744087727
1.0100000000	0.6174309365
1.0150000000	0.5757804209
1.0200000000	0.5477393604
1.0250000000	0.5241408147
1.0300000000	0.5061731476
1.0350000000	0.4925314582
1.0400000000	0.4838176146
1.0450000000	0.4764902830
1.0500000000	0.4715581997
1.0550000000	0.4687390261
1.0600000000	0.4686842977
1.0650000000	0.4695811051
1.0700000000	0.4721613626
1.0750000000	0.4764336373
1.0800000000	0.4828776557
1.0850000000	0.4910700485
1.0900000000	0.5032826393
1.0950000000	0.5178062671
1.1000000000	0.5351510678
1.1050000000	0.5550932635
1.1100000000	0.5782845312
1.1150000000	0.6052387413
1.1200000000	0.6365867317
1.1250000000	0.6730470995
1.1300000000	0.7157077110
1.1350000000	0.7658817913
1.1400000000	0.8250897307
1.1450000000	0.8959945653
1.1500000000	0.9815853455
1.1550000000	1.0861394167
1.1600000000	1.2156903526
1.1650000000	1.3780905171
1.1700000000	1.5879301880
1.1750000000	1.8646826974
1.1800000000	2.2404941101
1.1850000000	2.7681727536
1.1900000000	3.5473948538
1.1950000000	4.7692010813
1.2000000000	6.8398832775
1.2050000000	10.7508956475
1.2100000000	19.3523060715
1.2150000000	42.6048743546
1.2200000000	104.4919361936
1.2250000000	93.9736429407
1.2300000000	37.5983805783
1.2350000000	17.7284494960
1.2400000000	10.2060968295
1.2450000000	6.7588304272
1.2500000000	4.9478322526
1.2550000000	3.9112019208
1.2600000000	3.2901146519
1.2650000000	2.9122329730
1.2700000000	2.7014198355
1.2750000000	2.6085577625
1.2800000000	2.6114527740
1.2850000000	2.7019908263
1.2900000000	2.8826592487
1.2950000000	3.1637598883
1.3000000000	3.5775779508
1.3050000000	4.1661477126
1.3100000000	5.0054743580
1.3150000000	6.2265023095
1.3200000000	8.0636616877
1.3250000000	10.9646447649
1.3300000000	15.9065709866
1.3350000000	25.1581853986
1.3400000000	44.9301310379
1.3450000000	94.0252733378
1.3500000000	199.7447685605
1.3550000000	186.4128896307
1.3600000000	85.9969717609
1.3650000000	42.2597400397
1.3700000000	24.2354109616
1.3750000000	15.5840647288
1.3800000000	10.8667032709
1.3850000000	8.0254899397
1.3900000000	6.1952658830
1.3950000000	4.9473782011
1.4000000000	4.0612476344
1.4050000000	3.4123903083
1.4100000000	2.9261653488
1.4150000000	2.5593237446
1.4200000000	2.2835484018
1.4250000000	2.0990347116
1.4300000000	2.0319891919
1.4350000000	2.0707994873
1.4400000000	1.5963468509
1.4450000000	0.1416866441
1.4500000000	-2.2183264832
1.4550000000	-0.6204477793
1.4600000000	2.6917356302
1.4650000000	1.4561407642
1.4700000000	-1.3804932637
1.4750000000	-6.0340263208
1.4800000000	-2.6857958690
1.4850000000	4.4124282404
1.4900000000	3.5767602627
1.4950000000	2.3150514512
1.5000000000	1.6265349420
1.5050000000	1.2558071500
1.5100000000	1.0445079789
1.5150000000	0.9161927571
1.5200000000	0.8333089059
1.5250000000	0.7818147514
1.5300000000	0.7424851040
1.5350000000	0.7153814683
1.5400000000	0.6975356806
1.5450000000	0.6873560312
1.5500000000	0.6838146635
1.5550000000	0.6869398672
1.5600000000	0.6985654937
1.5650000000	0.7177560541
1.5700000000	0.7488163715
1.5750000000	0.7970012477
1.5800000000	0.8721766798
1.5850000000	0.9935472907
1.5900000000	1.2015744767
1.5950000000	1.5857975465
1.6000000000	2.3353554111
1.6050000000	3.5747670356
1.6100000000	4.1488379611
1.6150000000	3.0728206836
1.6200000000	2.0633313533
1.6250000000	1.5304247904
1.6300000000	1.2628199016
1.6350000000	1.1250149324
1.6400000000	1.0551306115
1.6450000000	1.0244057649
1.6500000000	1.0184366000
1.6550000000	1.0304755290
1.6600000000	1.0564938716
1.6650000000	1.0946507774
1.6700000000	1.1442445872
1.6750000000	1.2052761246
1.6800000000	1.2782880102
1.6850000000	1.3641231509
1.6900000000	1.4635235391
1.6950000000	1.5750612556
1.7000000000	1.6968359286
1.7050000000	1.8215194214
1.7100000000	1.9637274998
1.7150000000	2.3181228241
1.7200000000	2.9403764268
1.7250000000	3.5099566111
1.7300000000	4.1208195929
1.7350000000	4.7921241501
1.7400000000	5.4511442255
1.7450000000	6.2977286088
1.7500000000	7.5778370550
1.7550000000	9.4830312889
1.7600000000	12.3334938822
1.7650000000	16.7274793520
1.7700000000	23.8054219851
1.7750000000	35.7299475802
1.7800000000	56.0491962116
1.7850000000	86.0155639390
1.7900000000	106.8949816637
1.7950000000	91.0238210190
1.8000000000	60.5794032627
1.8050000000	38.2576456986
1.8100000000	25.2244555450
1.8150000000	17.5851649880
1.8200000000	12.8838343363
1.8250000000	9.8359464571
1.8300000000	7.7665413568
1.8350000000	6.3058782114
1.8400000000	5.2417282847
1.8450000000	4.4453505710
1.8500000000	3.8356101418
1.8550000000	3.3617396757
1.8600000000	2.9883260745
1.8650000000	2.6913038314
1.8700000000	2.4535596872
1.8750000000	2.2625336606
1.8800000000	2.1082680134
1.8850000000	1.9819704769
1.8900000000	1.8735160663
1.8950000000	1.7677979074
1.9000000000	1.6387250551
1.9050000000	1.3941562004
1.9100000000	1.0577170542
1.9150000000	0.8811153626
1.9200000000	2.1467612550
1.9250000000	5.6395497866
1.9300000000	8.4094793134
1.9350000000	8.2793297631
1.9400000000	6.5113924638
1.9450000000	4.7974258501
1.9500000000	3.5940663796
1.9550000000	2.8056155450
1.9600000000	2.2845990428
1.9650000000	1.9358683030
1.9700000000	1.6841312162
1.9750000000	1.4995987547
1.9800000000	1.3587127788
1.9850000000	1.2443806984
1.9900000000	1.1435220781
1.9950000000	1.0447199343
2.0000000000	0.9463110553
2.0050000000	0.8834272543
2.0100000000	0.9194381409
2.0150000000	1.0186568960
2.0200000000	1.0798149855
2.0250000000	1.0960238035
2.0300000000	1.0996216499
2.0350000000	1.1062017642
2.0400000000	1.1215522209
2.0450000000	1.1471436429
2.0500000000	1.1839260585
2.0550000000	1.2327610167
2.0600000000	1.2936488608
2.0650000000	1.3629139812
2.0700000000	1.4314409710
2.0750000000	1.4924026186
2.0800000000	1.5518365331
2.0850000000	1.6222213377
2.0900000000	1.7119271961
2.0950000000	1.8244859341
2.1000000000	1.9637073001
2.1050000000	2.1283372187
2.1100000000	2.3299462858
2.1150000000	2.5769942413
2.1200000000	2.8813427403
2.1250000000	3.2596283487
2.1300000000	3.7353009717
2.1350000000	4.3418390952
2.1400000000	5.1275847581
2.1450000000	6.1632140286
2.1500000000	7.5517048345
2.1550000000	9.4387999765
2.1600000000	12.0110277188
2.1650000000	15.4263567451
2.1700000000	19.6215869423
2.1750000000	23.7924814496
2.1800000000	26.3694064054
2.1850000000	26.5028584733
2.1900000000	25.3303766731
2.1950000000	24.4176890716
2.2000000000	24.0126980246
2.2050000000	22.8897830591
2.2100000000	20.5065683664
2.2150000000	17.5767355700
2.2200000000	14.9467731059
2.2250000000	12.7729556564
2.2300000000	10.8580720207
2.2350000000	9.1260688018
2.2400000000	7.6380337861
2.2450000000	6.4473365525
2.2500000000	5.5346040924
2.2550000000	4.8490392025
2.2600000000	4.3358384904
2.2650000000	3.9400596634
2.2700000000	3.6022807473
2.2750000000	3.2639302516
2.2800000000	2.8994978682
2.2850000000	2.5525615761
2.2900000000	2.3126677375
2.2950000000	2.2305448954
2.3000000000	2.2595677921
2.3050000000	2.3040562195
2.3100000000	2.3076846002
2.3150000000	2.2709021279
2.3200000000	2.2180893171
2.3250000000	2.1744296596
2.3300000000	2.1528066963
2.3350000000	2.1554265035
2.3400000000	2.1750535042
2.3450000000	2.1953203183
2.3500000000	2.1956185980
2.3550000000	2.1628002006
2.3600000000	2.1005859945
2.3650000000	2.0252357669
2.3700000000	1.9535101957
2.3750000000	1.8954213009
2.3800000000	1.8542250359
2.3850000000	1.8290085379
2.3900000000	1.8176810612
2.3950000000	1.8178181242
2.4000000000	1.8300779135
2.4050000000	1.8584986919
2.4100000000	1.9044304010
2.4150000000	1.9697438387
2.4200000000	2.0555626626
2.4250000000	2.1638594398
2.4300000000	2.2975133630
2.4350000000	2.4603869786
2.4400000000	2.6574647098
2.4450000000	2.8951107937
2.4500000000	3.1813543765
2.4550000000	3.5262871452
2.4600000000	3.9423078930
2.4650000000	4.4442922637
2.4700000000	5.0493007696
2.4750000000	5.7744214452
2.4800000000	6.6372999655
2.4850000000	7.6449180168
2.4900000000	8.7874214592
2.4950000000	10.0239243215
2.5000000000	11.2679730623
2.5050000000	12.4317563354
2.5100000000	13.2180555441
2.5150000000	13.4554264405
2.5200000000	13.1029669041
2.5250000000	12.2694695741
2.5300000000	11.1445452503
2.5350000000	9.9111106970
2.5400000000	8.6984294064
2.5450000000	7.5795549920
2.5500000000	6.5869835891
2.5550000000	5.7281179144
2.5600000000	4.9911505978
2.5650000000	4.3715532392
2.5700000000	3.8547328844
2.5750000000	3.4315533432
2.5800000000	3.0951906538
2.5850000000	2.8382292112
2.5900000000	2.6484750394
2.5950000000	2.5087858005
2.6000000000	2.4013128687
2.6050000000	2.3249334290
2.6100000000	2.2588039041
2.6150000000	2.2018757893
2.6200000000	2.1552727382
2.6250000000	2.1202405914
2.6300000000	2.0976114487
2.6350000000	2.0878099215
2.6400000000	2.0910829678
2.6450000000	2.1076598841
2.6500000000	2.1379900580
2.6550000000	2.1821995833
2.6600000000	2.2409665977
2.6650000000	2.3149764885
2.6700000000	2.4050711818
2.6750000000	2.5122704809
2.6800000000	2.6377047297
2.6850000000	2.7825297704
2.6900000000	2.9476917097
2.6950000000	3.1337382921
2.7000000000	3.3404789723
2.7050000000	3.5914240463
2.7100000000	3.8652802476
2.7150000000	4.1567079069
2.7200000000	4.4579434028
2.7250000000	4.7592371129
2.7300000000	5.0495929787
2.7350000000	5.3174039967
2.7400000000	5.5506057337
2.7450000000	5.7384952422
2.7500000000	5.8644662549
2.7550000000	5.9184701267
2.7600000000	5.8928817937
2.7650000000	5.7868183674
2.7700000000	5.6073836422
2.7750000000	5.3688065933
2.7800000000	5.0896329000
2.7850000000	4.7895368150
2.7900000000	4.4861714036
2.7950000000	4.1936927958
2.8000000000	3.9221108447
2.8050000000	3.6473363808
2.8100000000	3.4121699518
2.8150000000	3.2159810756
2.8200000000	3.0556115198
2.8250000000	2.9268989986
2.8300000000	2.8256506026
2.8350000000	2.7482776885
2.8400000000	2.6910028942
2.8450000000	2.6539573195
2.8500000000	2.6343957125
2.8550000000	2.6312718868
2.8600000000	2.6438044942
2.8650000000	2.6712893954
2.8700000000	2.7129387038
2.8750000000	2.7677524014
2.8800000000	2.8344195745
2.8850000000	2.9112352659
2.8900000000	2.9961498440
2.8950000000	3.0868457341
2.9000000000	3.1808860281
2.9050000000	3.2938714604
2.9100000000	3.4022430945
2.9150000000	3.5025939834
2.9200000000	3.5913497478
2.9250000000	3.6644555311
2.9300000000	3.7181777660
2.9350000000	3.7467073232
2.9400000000	3.7475381815
2.9450000000	3.7196034940
2.9500000000	3.6645144180
2.9550000000	3.5864563076
2.9600000000	3.4914694640
2.9650000000	3.3863978713
2.9700000000	3.2778592228
2.9750000000	3.1715088700
2.9800000000	3.0716800073
2.9850000000	2.9813289468
2.9900000000	2.9022336450
2.9950000000	2.8352284065
3.0000000000	2.7804885555
