# energy (eV)    P(omega), $W$ = 400 nm, $h$ = 300 nm, $s$ = 20 nm, $d/W = 5$, $E_{\rm e}$ = 200 keV
0.2000000000	0.1089603266
0.2050000000	0.1099516758
0.2100000000	0.1106504513
0.2150000000	0.1110448831
0.2200000000	0.1111185237
0.2250000000	0.1108490364
0.2300000000	0.1102070473
0.2350000000	0.1091543147
0.2400000000	0.1076416767
0.2450000000	0.1056057650
0.2500000000	0.1029655839
0.2550000000	0.0996169096
0.2600000000	0.0954254520
0.2650000000	0.0998216758
0.2700000000	0.1109866456
0.2750000000	0.1269639050
0.2800000000	0.1492257307
0.2850000000	0.1820466835
0.2900000000	0.2227169250
0.2950000000	0.2810234413
0.3000000000	0.3594081163
0.3050000000	0.4795570455
0.3100000000	0.6469291097
0.3150000000	0.9707909723
0.3200000000	1.4766234115
0.3250000000	1.8229937921
0.3300000000	2.3021504974
0.3350000000	2.9814450432
0.3400000000	4.0478225902
0.3450000000	5.8774217458
0.3500000000	9.5258720025
0.3550000000	17.9717839714
0.3600000000	44.1697119864
0.3650000000	0.1976483590
0.3700000000	20.4734753066
0.3750000000	26.9227536213
0.3800000000	12.5457318315
0.3850000000	7.0675148588
0.3900000000	4.5334459668
0.3950000000	3.1948139811
0.4000000000	2.4197369096
0.4050000000	1.9144329069
0.4100000000	1.5854689695
0.4150000000	1.3685037888
0.4200000000	1.2313879485
0.4250000000	1.1237030697
0.4300000000	0.9964364004
0.4350000000	0.8957122899
0.4400000000	0.8160516440
0.4450000000	0.7527135464
0.4500000000	0.7027107541
0.4550000000	0.6630626029
0.4600000000	0.6321371969
0.4650000000	0.6082082059
0.4700000000	0.5901328024
0.4750000000	0.5771115429
0.4800000000	0.5684467274
0.4850000000	0.5635265367
0.4900000000	0.5619893130
0.4950000000	0.5635567769
0.5000000000	0.5679913325
0.5050000000	0.5751871329
0.5100000000	0.5850575672
0.5150000000	0.5975512993
0.5200000000	0.6126944484
0.5250000000	0.6305085387
0.5300000000	0.6512550329
0.5350000000	0.6750503832
0.5400000000	0.7021040496
0.5450000000	0.7326905030
0.5500000000	0.7671982145
0.5550000000	0.8060519217
0.5600000000	0.8497687281
0.5650000000	0.8990134145
0.5700000000	0.9547037060
0.5750000000	1.0175199133
0.5800000000	1.0887346821
0.5850000000	1.1700867646
0.5900000000	1.2627494212
0.5950000000	1.3691906186
0.6000000000	1.4926708471
0.6050000000	1.6356345281
0.6100000000	1.8036833089
0.6150000000	2.0014633933
0.6200000000	2.2369496577
0.6250000000	2.5215831530
0.6300000000	2.8670332713
0.6350000000	3.2952250830
0.6400000000	3.8303501465
0.6450000000	4.5163046201
0.6500000000	5.4091644980
0.6550000000	6.6039145220
0.6600000000	8.2609354000
0.6650000000	10.6336205529
0.6700000000	14.2264685143
0.6750000000	20.0032889527
0.6800000000	30.2150168975
0.6850000000	50.7057369060
0.6900000000	101.6246578384
0.6950000000	285.2818907271
0.7000000000	1383.6715765004
0.7050000000	672.7207919595
0.7100000000	172.8117121047
0.7150000000	73.4909107023
0.7200000000	40.1352220821
0.7250000000	25.2126558706
0.7300000000	17.2927819345
0.7350000000	12.6109000150
0.7400000000	9.6127604455
0.7450000000	7.5777199170
0.7500000000	6.1361202449
0.7550000000	5.0770081715
0.7600000000	4.2787237178
0.7650000000	3.6596594131
0.7700000000	3.1709667654
0.7750000000	2.7786345667
0.7800000000	2.4598094615
0.7850000000	2.1972873209
0.7900000000	1.9773527882
0.7950000000	1.7936659361
0.8000000000	1.6374815383
0.8050000000	1.5036705616
0.8100000000	1.3897569977
0.8150000000	1.2899157697
0.8200000000	1.2029928829
0.8250000000	1.1300501847
0.8300000000	1.0662012465
0.8350000000	1.0106941692
0.8400000000	0.9664932955
0.8450000000	0.9279263610
0.8500000000	0.8952268673
0.8550000000	0.8745635606
0.8600000000	0.8580143809
0.8650000000	0.8461688793
0.8700000000	0.8503145086
0.8750000000	0.8517758926
0.8800000000	0.8472035903
0.8850000000	0.8103702660
0.8900000000	0.6288411913
0.8950000000	-0.2809468652
0.9000000000	-5.1595975646
0.9050000000	-33.9018788244
0.9100000000	6.4556489330
0.9150000000	15.2925053376
0.9200000000	6.3482424916
0.9250000000	3.3025118287
0.9300000000	2.0158831053
0.9350000000	1.4011576266
0.9400000000	1.0695254569
0.9450000000	0.8856903750
0.9500000000	0.7551225069
0.9550000000	0.6677029937
0.9600000000	0.6136129546
0.9650000000	0.5689573407
0.9700000000	0.5370526975
0.9750000000	0.5152501594
0.9800000000	0.5018830555
0.9850000000	0.4992226989
0.9900000000	0.5036679979
0.9950000000	0.5225044213
1.0000000000	0.5678945466
1.0050000000	0.6741678830
1.0100000000	0.9528709215
1.0150000000	1.9084334249
1.0200000000	3.6582356502
1.0250000000	1.6674790162
1.0300000000	0.8578483765
1.0350000000	0.6165357776
1.0400000000	0.5216623698
1.0450000000	0.4771881750
1.0500000000	0.4549461191
1.0550000000	0.4433221333
1.0600000000	0.4381704489
1.0650000000	0.4373106810
1.0700000000	0.4395339969
1.0750000000	0.4444198351
1.0800000000	0.4511154377
1.0850000000	0.4601935576
1.0900000000	0.4732811167
1.0950000000	0.4885255176
1.1000000000	0.5060773008
1.1050000000	0.5259699352
1.1100000000	0.5485183863
1.1150000000	0.5740232636
1.1200000000	0.6028407527
1.1250000000	0.6352652573
1.1300000000	0.6721374625
1.1350000000	0.7140227520
1.1400000000	0.7617694066
1.1450000000	0.8164548992
1.1500000000	0.8789169151
1.1550000000	0.9517673024
1.1600000000	1.0366554126
1.1650000000	1.1357395371
1.1700000000	1.2494610338
1.1750000000	1.3647509095
1.1800000000	1.4738436998
1.1850000000	2.0491352437
1.1900000000	2.5425896681
1.1950000000	3.4845695152
1.2000000000	4.7450104470
1.2050000000	4.1631466626
1.2100000000	3.9850968354
1.2150000000	4.4370212213
1.2200000000	5.3069914971
1.2250000000	6.6428360043
1.2300000000	8.6740225399
1.2350000000	11.8871255360
1.2400000000	17.2996072620
1.2450000000	27.4913199490
1.2500000000	49.5638388421
1.2550000000	107.2915222066
1.2600000000	259.1570581010
1.2650000000	262.5187936225
1.2700000000	109.2039566364
1.2750000000	50.4093767870
1.2800000000	27.9180489805
1.2850000000	17.5568247329
1.2900000000	12.0338255304
1.2950000000	8.7706155463
1.3000000000	6.6920952203
1.3050000000	5.2926407747
1.3100000000	4.3058118519
1.3150000000	3.5927961273
1.3200000000	3.0642602434
1.3250000000	2.6665498745
1.3300000000	2.3670802351
1.3350000000	2.1458637220
1.3400000000	1.9925357982
1.3450000000	1.9042822705
1.3500000000	1.8940780552
1.3550000000	1.9914431926
1.3600000000	2.2714477040
1.3650000000	2.9250928040
1.3700000000	4.4856479953
1.3750000000	8.3680323360
1.3800000000	13.6704205697
1.3850000000	9.5492990505
1.3900000000	4.8655072761
1.3950000000	2.8225131711
1.4000000000	1.8481357144
1.4050000000	1.2495521179
1.4100000000	0.7082205366
1.4150000000	-0.0986959263
1.4200000000	-1.9045517625
1.4250000000	-6.6890563213
1.4300000000	-8.9944408461
1.4350000000	4.1217014324
1.4400000000	5.2720986166
1.4450000000	3.1610206506
1.4500000000	1.9670350490
1.4550000000	1.3560179581
1.4600000000	1.0013070939
1.4650000000	0.7207931597
1.4700000000	0.4204871660
1.4750000000	0.4946686197
1.4800000000	0.7260903996
1.4850000000	0.6592881343
1.4900000000	0.5837092056
1.4950000000	0.5348307634
1.5000000000	0.5027252160
1.5050000000	0.4814950701
1.5100000000	0.4670486023
1.5150000000	0.4591559630
1.5200000000	0.4533292591
1.5250000000	0.4512041926
1.5300000000	0.4529679523
1.5350000000	0.4594384683
1.5400000000	0.4726622836
1.5450000000	0.4971867012
1.5500000000	0.5432334547
1.5550000000	0.6311766040
1.5600000000	0.7631690607
1.5650000000	0.7843483842
1.5700000000	0.6653389388
1.5750000000	0.5818752972
1.5800000000	0.5459396043
1.5850000000	0.5347224625
1.5900000000	0.5363333535
1.5950000000	0.5456098474
1.6000000000	0.5603043445
1.6050000000	0.5796461336
1.6100000000	0.6030584643
1.6150000000	0.6304579702
1.6200000000	0.6622825589
1.6250000000	0.6989100640
1.6300000000	0.7409597802
1.6350000000	0.7892296319
1.6400000000	0.8447396041
1.6450000000	0.9087922226
1.6500000000	0.9830224060
1.6550000000	1.0695018822
1.6600000000	1.1709147772
1.6650000000	1.2907257099
1.6700000000	1.4323042127
1.6750000000	1.6039159377
1.6800000000	1.8128692379
1.6850000000	2.0706608419
1.6900000000	2.3936141698
1.6950000000	2.8056849503
1.7000000000	3.3429374436
1.7050000000	4.0841233101
1.7100000000	5.1182670079
1.7150000000	6.6215213725
1.7200000000	8.9127191116
1.7250000000	12.5478794173
1.7300000000	18.1340054038
1.7350000000	25.3000535931
1.7400000000	34.3533700353
1.7450000000	50.2414283205
1.7500000000	70.8684397783
1.7550000000	72.0076311281
1.7600000000	50.5184899747
1.7650000000	31.4689182542
1.7700000000	20.1732924861
1.7750000000	13.7501408548
1.7800000000	9.9543431006
1.7850000000	7.6195205147
1.7900000000	6.1717142703
1.7950000000	5.3435641564
1.8000000000	5.0097879479
1.8050000000	4.9045960299
1.8100000000	4.3638628975
1.8150000000	3.3810777087
1.8200000000	2.5959189288
1.8250000000	2.1912630808
1.8300000000	1.9077347093
1.8350000000	1.6557133990
1.8400000000	1.4502070801
1.8450000000	1.2871353156
1.8500000000	1.1557274182
1.8550000000	1.0471799835
1.8600000000	0.9473446729
1.8650000000	0.8629574767
1.8700000000	0.7776904276
1.8750000000	0.6547763382
1.8800000000	0.3745249417
1.8850000000	-0.2398089997
1.8900000000	-1.0661747708
1.8950000000	-1.2080319003
1.9000000000	0.1294618596
1.9050000000	1.3765177308
1.9100000000	1.5220245459
1.9150000000	1.2858323798
1.9200000000	1.0543363849
1.9250000000	0.8900534671
1.9300000000	0.7905426577
1.9350000000	0.7145450884
1.9400000000	0.6639482224
1.9450000000	0.6304090834
1.9500000000	0.6069576644
1.9550000000	0.5874115775
1.9600000000	0.5706123522
1.9650000000	0.5587126640
1.9700000000	0.5523733119
1.9750000000	0.5511691724
1.9800000000	0.5547604894
1.9850000000	0.5632535490
1.9900000000	0.5772047555
1.9950000000	0.5973086292
2.0000000000	0.6230449157
2.0050000000	0.6522623252
2.0100000000	0.6732773056
2.0150000000	0.6873767645
2.0200000000	0.7043814457
2.0250000000	0.7305539847
2.0300000000	0.7677442095
2.0350000000	0.8168867583
2.0400000000	0.8796740900
2.0450000000	0.9590361887
2.0500000000	1.0591773829
2.0550000000	1.1847683700
2.0600000000	1.3380759774
2.0650000000	1.5166968331
2.0700000000	1.7233223392
2.0750000000	1.9810043231
2.0800000000	2.3277975328
2.0850000000	2.8008088062
2.0900000000	3.4216164332
2.0950000000	4.1456083009
2.1000000000	4.7908451737
2.1050000000	5.1033918486
2.1100000000	4.9546499986
2.1150000000	4.6126147482
2.1200000000	4.3706975015
2.1250000000	4.3599170179
2.1300000000	4.6191092515
2.1350000000	5.1790265670
2.1400000000	6.1012992922
2.1450000000	7.4949940621
2.1500000000	9.5128659518
2.1550000000	12.2696800085
2.1600000000	15.5431311616
2.1650000000	18.2944813539
2.1700000000	18.9446793724
2.1750000000	16.9586697420
2.1800000000	13.6912892615
2.1850000000	10.5635617758
2.1900000000	8.1181206832
2.1950000000	6.3513485959
2.2000000000	5.1118025850
2.2050000000	4.2566125362
2.2100000000	3.6629327714
2.2150000000	3.2075744905
2.2200000000	2.7995472445
2.2250000000	2.4114493850
2.2300000000	2.0600532138
2.2350000000	1.7583288956
2.2400000000	1.5027766312
2.2450000000	1.2821141461
2.2500000000	1.0851115007
2.2550000000	0.9054880448
2.2600000000	0.7258570224
2.2650000000	0.5951758285
2.2700000000	0.5241846617
2.2750000000	0.5420458114
2.2800000000	0.6451370621
2.2850000000	0.7764144414
2.2900000000	0.8725023851
2.2950000000	0.9150797323
2.3000000000	0.9199327654
2.3050000000	0.9052157741
2.3100000000	0.8858443830
2.3150000000	0.8686959368
2.3200000000	0.8564888408
2.3250000000	0.8507095514
2.3300000000	0.8525567124
2.3350000000	0.8630242555
2.3400000000	0.8829639403
2.3450000000	0.9132400598
2.3500000000	0.9547693521
2.3550000000	1.0089259397
2.3600000000	1.0748227915
2.3650000000	1.1528711877
2.3700000000	1.2428557410
2.3750000000	1.3457544278
2.3800000000	1.4652815686
2.3850000000	1.6058433746
2.3900000000	1.7684127559
2.3950000000	1.9457487974
2.4000000000	2.1192397382
2.4050000000	2.2687368378
2.4100000000	2.3515763140
2.4150000000	2.3594494100
2.4200000000	2.3126211787
2.4250000000	2.2456450159
2.4300000000	2.1891874064
2.4350000000	2.1617600165
2.4400000000	2.1707513179
2.4450000000	2.2173564344
2.4500000000	2.3017255662
2.4550000000	2.4257362280
2.4600000000	2.5973373748
2.4650000000	2.8246762395
2.4700000000	3.1168286263
2.4750000000	3.4794643277
2.4800000000	3.9097241849
2.4850000000	4.3892525853
2.4900000000	4.8760573575
2.4950000000	5.3004525067
2.5000000000	5.5752320179
2.5050000000	5.6105891264
2.5100000000	5.3706597932
2.5150000000	4.9209375864
2.5200000000	4.3660760254
2.5250000000	3.7980171558
2.5300000000	3.2728071220
2.5350000000	2.8139952285
2.5400000000	2.4250492908
2.5450000000	2.1002001338
2.5500000000	1.8310855191
2.5550000000	1.6101923255
2.5600000000	1.4254859947
2.5650000000	1.2872541872
2.5700000000	1.1879294454
2.5750000000	1.1239704546
2.5800000000	1.0882790869
2.5850000000	1.0711469700
2.5900000000	1.0634630575
2.5950000000	1.0595540109
2.6000000000	1.0575906736
2.6050000000	1.0660359687
2.6100000000	1.0794116446
2.6150000000	1.0997626392
2.6200000000	1.1281752837
2.6250000000	1.1647161580
2.6300000000	1.2083540597
2.6350000000	1.2569007318
2.6400000000	1.3070127635
2.6450000000	1.3544501841
2.6500000000	1.3947224922
2.6550000000	1.4241475369
2.6600000000	1.4410145992
2.6650000000	1.4463276631
2.6700000000	1.4435933842
2.6750000000	1.4379379812
2.6800000000	1.4343289306
2.6850000000	1.4374076651
2.6900000000	1.4504064511
2.6950000000	1.4753118659
2.7000000000	1.5130764869
2.7050000000	1.5696058618
2.7100000000	1.6423576276
2.7150000000	1.7301557324
2.7200000000	1.8305691403
2.7250000000	1.9394706770
2.7300000000	2.0506298556
2.7350000000	2.1556467765
2.7400000000	2.2445287616
2.7450000000	2.3071304081
2.7500000000	2.3352740040
2.7550000000	2.3248395624
2.7600000000	2.2768784634
2.7650000000	2.1972357074
2.7700000000	2.0948551869
2.7750000000	1.9796467402
2.7800000000	1.8606965070
2.7850000000	1.7452744725
2.7900000000	1.6375951799
2.7950000000	1.5422705785
2.8000000000	1.4602552251
2.8050000000	1.3842929101
2.8100000000	1.3244020961
2.8150000000	1.2782255018
2.8200000000	1.2432020923
2.8250000000	1.2169817341
2.8300000000	1.1975667110
2.8350000000	1.1832998066
2.8400000000	1.1727805091
2.8450000000	1.1648195937
2.8500000000	1.1584620622
2.8550000000	1.1530738693
2.8600000000	1.1484402689
2.8650000000	1.1447974529
2.8700000000	1.1427725520
2.8750000000	1.1432282303
2.8800000000	1.1470714922
2.8850000000	1.1550816364
2.8900000000	1.1677899372
2.8950000000	1.1854076812
2.9000000000	1.2077901498
2.9050000000	1.2412678992
2.9100000000	1.2779797603
2.9150000000	1.3154747677
2.9200000000	1.3506554896
2.9250000000	1.3801944473
2.9300000000	1.4010021482
2.9350000000	1.4107686162
2.9400000000	1.4084103856
2.9450000000	1.3942774303
2.9500000000	1.3700223334
2.9550000000	1.3381790524
2.9600000000	1.3016290007
2.9650000000	1.2631014914
2.9700000000	1.2248410919
2.9750000000	1.1884621397
2.9800000000	1.1549584437
2.9850000000	1.1248107512
2.9900000000	1.0981308139
2.9950000000	1.0748015464
3.0000000000	1.0545913705
