# energy (eV)    P(omega), $W$ = 300 nm, $h$ = 300 nm, $s$ = 20 nm, $d/W = 5$, $E_{\rm e}$ = 200 keV
0.2000000000	0.0511779964
0.2050000000	0.0519573333
0.2100000000	0.0526815632
0.2150000000	0.0533525264
0.2200000000	0.0539718795
0.2250000000	0.0545409902
0.2300000000	0.0550609510
0.2350000000	0.0555325222
0.2400000000	0.0559560910
0.2450000000	0.0563316034
0.2500000000	0.0566585112
0.2550000000	0.0569356349
0.2600000000	0.0571611388
0.2650000000	0.0573322948
0.2700000000	0.0574453949
0.2750000000	0.0574954732
0.2800000000	0.0574760545
0.2850000000	0.0573787809
0.2900000000	0.0571929627
0.2950000000	0.0569049792
0.3000000000	0.0564974466
0.3050000000	0.0559482108
0.3100000000	0.0552288963
0.3150000000	0.0584815169
0.3200000000	0.0623442314
0.3250000000	0.0672331912
0.3300000000	0.0737866564
0.3350000000	0.0819416228
0.3400000000	0.0926202963
0.3450000000	0.1055609783
0.3500000000	0.1224825234
0.3550000000	0.1448611463
0.3600000000	0.1740581864
0.3650000000	0.2147409741
0.3700000000	0.2683298508
0.3750000000	0.3428145303
0.3800000000	0.4504588721
0.3850000000	0.6180797153
0.3900000000	0.8826727110
0.3950000000	1.3317653074
0.4000000000	2.1872836935
0.4050000000	4.1039803343
0.4100000000	9.3299255513
0.4150000000	29.9129617308
0.4200000000	19.0715678653
0.4250000000	-35.7982822582
0.4300000000	9.9350570246
0.4350000000	6.1830217396
0.4400000000	3.7740582344
0.4450000000	2.4783170285
0.4500000000	1.7329097480
0.4550000000	1.2744863999
0.4600000000	0.9760968782
0.4650000000	0.7728729630
0.4700000000	0.6293050102
0.4750000000	0.5255087511
0.4800000000	0.4485679466
0.4850000000	0.3906716817
0.4900000000	0.3464662335
0.4950000000	0.3123592016
0.5000000000	0.2858946337
0.5050000000	0.2652725123
0.5100000000	0.2493317950
0.5150000000	0.2372168552
0.5200000000	0.2280390258
0.5250000000	0.2213930012
0.5300000000	0.2168478808
0.5350000000	0.2140871598
0.5400000000	0.2128771802
0.5450000000	0.2130228428
0.5500000000	0.2144585339
0.5550000000	0.2170730483
0.5600000000	0.2208071201
0.5650000000	0.2256324216
0.5700000000	0.2315216315
0.5750000000	0.2385149895
0.5800000000	0.2466776150
0.5850000000	0.2560511381
0.5900000000	0.2667191116
0.5950000000	0.2787885243
0.6000000000	0.2923951568
0.6050000000	0.3077393557
0.6100000000	0.3250097190
0.6150000000	0.3444660128
0.6200000000	0.3664550253
0.6250000000	0.3913088698
0.6300000000	0.4195194557
0.6350000000	0.4516996828
0.6400000000	0.4884864614
0.6450000000	0.5308006946
0.6500000000	0.5798522372
0.6550000000	0.6368997983
0.6600000000	0.7038797258
0.6650000000	0.7832739064
0.6700000000	0.8779996412
0.6750000000	0.9925079284
0.6800000000	1.1327814715
0.6850000000	1.3066545335
0.6900000000	1.5262603139
0.6950000000	1.8085642349
0.7000000000	2.1805112275
0.7050000000	2.6832823106
0.7100000000	3.3866404481
0.7150000000	4.4147543342
0.7200000000	5.9987232017
0.7250000000	8.6269645834
0.7300000000	13.4491949821
0.7350000000	23.7631084574
0.7400000000	52.0372320636
0.7450000000	172.4954163591
0.7500000000	533.9665265067
0.7550000000	134.2237729266
0.7600000000	44.4162499157
0.7650000000	21.2646840044
0.7700000000	12.3568408571
0.7750000000	8.0584686942
0.7800000000	5.6665063826
0.7850000000	4.2051119522
0.7900000000	3.2461547322
0.7950000000	2.5850352881
0.8000000000	2.1099576445
0.8050000000	1.7562622034
0.8100000000	1.4866481955
0.8150000000	1.2730138057
0.8200000000	1.1044628238
0.8250000000	0.9687915141
0.8300000000	0.8576941977
0.8350000000	0.7663744076
0.8400000000	0.6898442052
0.8450000000	0.6256401710
0.8500000000	0.5713760175
0.8550000000	0.5245622098
0.8600000000	0.4846006928
0.8650000000	0.4504620569
0.8700000000	0.4203062781
0.8750000000	0.3946425380
0.8800000000	0.3728493839
0.8850000000	0.3533125074
0.8900000000	0.3376023218
0.8950000000	0.3233119275
0.9000000000	0.3119436553
0.9050000000	0.3040348486
0.9100000000	0.2967818092
0.9150000000	0.2922828337
0.9200000000	0.2915036897
0.9250000000	0.2908722568
0.9300000000	0.2864083908
0.9350000000	0.2735452068
0.9400000000	0.2028671524
0.9450000000	-0.1174909320
0.9500000000	-1.8062880964
0.9550000000	-10.3654588936
0.9600000000	2.4447211877
0.9650000000	4.2909289610
0.9700000000	1.9022844751
0.9750000000	0.9985277533
0.9800000000	0.6258911335
0.9850000000	0.4516545983
0.9900000000	0.3513110784
0.9950000000	0.2904833437
1.0000000000	0.2516497347
1.0050000000	0.2270187019
1.0100000000	0.2079422659
1.0150000000	0.1940115069
1.0200000000	0.1846224389
1.0250000000	0.1767593273
1.0300000000	0.1707960973
1.0350000000	0.1662975932
1.0400000000	0.1634468647
1.0450000000	0.1610988167
1.0500000000	0.1595757599
1.0550000000	0.1587849015
1.0600000000	0.1589311670
1.0650000000	0.1594434262
1.0700000000	0.1605561020
1.0750000000	0.1622740784
1.0800000000	0.1647521144
1.0850000000	0.1678946000
1.0900000000	0.1725003085
1.0950000000	0.1779629230
1.1000000000	0.1844599735
1.1050000000	0.1919606907
1.1100000000	0.2006951213
1.1150000000	0.2108616934
1.1200000000	0.2226882741
1.1250000000	0.2365044969
1.1300000000	0.2527146321
1.1350000000	0.2718346275
1.1400000000	0.2944437896
1.1450000000	0.3216340388
1.1500000000	0.3545644771
1.1550000000	0.3949236749
1.1600000000	0.4450940797
1.1650000000	0.5081587903
1.1700000000	0.5899314985
1.1750000000	0.6980962628
1.1800000000	0.8453679094
1.1850000000	1.0526546529
1.1900000000	1.3593155985
1.1950000000	1.8410203287
1.2000000000	2.6583824174
1.2050000000	4.2032816034
1.2100000000	7.6017501101
1.2150000000	16.7853116035
1.2200000000	41.2003458929
1.2250000000	36.9806296734
1.2300000000	14.7177297152
1.2350000000	6.8763748693
1.2400000000	3.9057785259
1.2450000000	2.5403050168
1.2500000000	1.8180858741
1.2550000000	1.3991011258
1.2600000000	1.1416413465
1.2650000000	0.9774811515
1.2700000000	0.8758111225
1.2750000000	0.8166056089
1.2800000000	0.7900170871
1.2850000000	0.7913311215
1.2900000000	0.8193389236
1.2950000000	0.8752743284
1.3000000000	0.9666500671
1.3050000000	1.1029722516
1.3100000000	1.3025651478
1.3150000000	1.5972872661
1.3200000000	2.0446491251
1.3250000000	2.7540930752
1.3300000000	3.9660895825
1.3350000000	6.2374066191
1.3400000000	11.0922577882
1.3450000000	23.1417233355
1.3500000000	49.0601351563
1.3550000000	45.7247155107
1.3600000000	21.0780849888
1.3650000000	10.3553777035
1.3700000000	5.9392043758
1.3750000000	3.8202684228
1.3800000000	2.6649826992
1.3850000000	1.9689710877
1.3900000000	1.5201833645
1.3950000000	1.2138303856
1.4000000000	0.9956007865
1.4050000000	0.8349107762
1.4100000000	0.7130723433
1.4150000000	0.6186400668
1.4200000000	0.5430969396
1.4250000000	0.4825907744
1.4300000000	0.4336425972
1.4350000000	0.3838736897
1.4400000000	0.2263045134
1.4450000000	-0.1817516850
1.4500000000	-0.9282392244
1.4550000000	-0.3371190645
1.4600000000	0.8469421941
1.4650000000	0.5153861646
1.4700000000	-0.2199311792
1.4750000000	-1.3440103847
1.4800000000	-0.5858262108
1.4850000000	1.0550510328
1.4900000000	0.8535464517
1.4950000000	0.5561443393
1.5000000000	0.3933583009
1.5050000000	0.3049276026
1.5100000000	0.2542311037
1.5150000000	0.2230271319
1.5200000000	0.2025020595
1.5250000000	0.1894378742
1.5300000000	0.1790588276
1.5350000000	0.1714625596
1.5400000000	0.1658995988
1.5450000000	0.1619121416
1.5500000000	0.1591999859
1.5550000000	0.1576113896
1.5600000000	0.1574017380
1.5650000000	0.1579854151
1.5700000000	0.1598963177
1.5750000000	0.1634982198
1.5800000000	0.1695290392
1.5850000000	0.1794420788
1.5900000000	0.1963023720
1.5950000000	0.2268452294
1.6000000000	0.2851063447
1.6050000000	0.3794249563
1.6100000000	0.4212632921
1.6150000000	0.3402227704
1.6200000000	0.2669455621
1.6250000000	0.2306030011
1.6300000000	0.2147138603
1.6350000000	0.2090263313
1.6400000000	0.2089496647
1.6450000000	0.2124073257
1.6500000000	0.2184188041
1.6550000000	0.2265743457
1.6600000000	0.2367150645
1.6650000000	0.2488591785
1.6700000000	0.2631444853
1.6750000000	0.2798108896
1.6800000000	0.2991989999
1.6850000000	0.3217622577
1.6900000000	0.3480824524
1.6950000000	0.3787124502
1.7000000000	0.4148190151
1.7050000000	0.4585293939
1.7100000000	0.5123660570
1.7150000000	0.5888057347
1.7200000000	0.6947308264
1.7250000000	0.8231313471
1.7300000000	0.9843866068
1.7350000000	1.1567066262
1.7400000000	1.3088393956
1.7450000000	1.4980202393
1.7500000000	1.7915226502
1.7550000000	2.2345809391
1.7600000000	2.9008098741
1.7650000000	3.9292522322
1.7700000000	5.5859038344
1.7750000000	8.3752891059
1.7800000000	13.1236987323
1.7850000000	20.1152499682
1.7900000000	24.9630389073
1.7950000000	21.2227931197
1.8000000000	14.0984495827
1.8050000000	8.8844840841
1.8100000000	5.8432260765
1.8150000000	4.0617763023
1.8200000000	2.9657901807
1.8250000000	2.2551893823
1.8300000000	1.7723858946
1.8350000000	1.4310816618
1.8400000000	1.1817560703
1.8450000000	0.9943073365
1.8500000000	0.8497384386
1.8550000000	0.7361311967
1.8600000000	0.6450577896
1.8650000000	0.5706942634
1.8700000000	0.5087410609
1.8750000000	0.4558271622
1.8800000000	0.4089884457
1.8850000000	0.3652188130
1.8900000000	0.3206980108
1.8950000000	0.2696171621
1.9000000000	0.2022002666
1.9050000000	0.0874521411
1.9100000000	-0.0791700511
1.9150000000	-0.2586184842
1.9200000000	-0.1783650515
1.9250000000	0.3459320161
1.9300000000	0.7670676004
1.9350000000	0.8012437409
1.9400000000	0.6604808230
1.9450000000	0.5182535204
1.9500000000	0.4159884682
1.9550000000	0.3473758588
1.9600000000	0.3010838543
1.9650000000	0.2704360864
1.9700000000	0.2472274100
1.9750000000	0.2301941323
1.9800000000	0.2173645886
1.9850000000	0.2073459557
1.9900000000	0.1991457052
1.9950000000	0.1919598372
2.0000000000	0.1855944461
2.0050000000	0.1823509106
2.0100000000	0.1853261768
2.0150000000	0.1924399849
2.0200000000	0.1980394278
2.0250000000	0.2018568493
2.0300000000	0.2059324586
2.0350000000	0.2111464298
2.0400000000	0.2181703674
2.0450000000	0.2274414325
2.0500000000	0.2394851469
2.0550000000	0.2548344755
2.0600000000	0.2735148046
2.0650000000	0.2937514876
2.0700000000	0.3111419354
2.0750000000	0.3221894888
2.0800000000	0.3292812765
2.0850000000	0.3377488191
2.0900000000	0.3508926585
2.0950000000	0.3697216069
2.1000000000	0.3947783078
2.1050000000	0.4254896220
2.1100000000	0.4639982725
2.1150000000	0.5117917650
2.1200000000	0.5710777634
2.1250000000	0.6450298087
2.1300000000	0.7381728934
2.1350000000	0.8569972068
2.1400000000	1.0108840814
2.1450000000	1.2135460514
2.1500000000	1.4849446539
2.1550000000	1.8532938046
2.1600000000	2.3546666629
2.1650000000	3.0195691325
2.1700000000	3.8364458054
2.1750000000	4.6516962671
2.1800000000	5.1671528043
2.1850000000	5.2251799434
2.1900000000	5.0477340412
2.1950000000	4.9299276449
2.2000000000	4.8960006648
2.2050000000	4.6605351859
2.2100000000	4.1038733067
2.2150000000	3.3967903574
2.2200000000	2.7498317823
2.2250000000	2.2316559813
2.2300000000	1.8238077717
2.2350000000	1.4998653443
2.2400000000	1.2428525498
2.2450000000	1.0422490254
2.2500000000	0.8858021982
2.2550000000	0.7623675836
2.2600000000	0.6626426684
2.2650000000	0.5788875406
2.2700000000	0.5045988609
2.2750000000	0.4352120925
2.2800000000	0.3710499856
2.2850000000	0.3201675570
2.2900000000	0.2944964809
2.2950000000	0.2981493424
2.3000000000	0.3193561685
2.3050000000	0.3400812324
2.3100000000	0.3490268206
2.3150000000	0.3467664713
2.3200000000	0.3382466508
2.3250000000	0.3285170442
2.3300000000	0.3203064848
2.3350000000	0.3145607489
2.3400000000	0.3110839145
2.3450000000	0.3088635905
2.3500000000	0.3065481433
2.3550000000	0.3032732301
2.3600000000	0.2992785695
2.3650000000	0.2956125364
2.3700000000	0.2933144575
2.3750000000	0.2928922388
2.3800000000	0.2942597476
2.3850000000	0.2968959360
2.3900000000	0.3002203386
2.3950000000	0.3037365041
2.4000000000	0.3077407456
2.4050000000	0.3133369579
2.4100000000	0.3210862989
2.4150000000	0.3317003269
2.4200000000	0.3456630066
2.4250000000	0.3634146369
2.4300000000	0.3854490960
2.4350000000	0.4123854427
2.4400000000	0.4450201830
2.4450000000	0.4843809188
2.4500000000	0.5317754809
2.4550000000	0.5888584509
2.4600000000	0.6576729667
2.4650000000	0.7406911684
2.4700000000	0.8407766515
2.4750000000	0.9608443143
2.4800000000	1.1040470721
2.4850000000	1.2718026804
2.4900000000	1.4627226597
2.4950000000	1.6699014849
2.5000000000	1.8779979672
2.5050000000	2.0703290622
2.5100000000	2.1945802620
2.5150000000	2.2217829830
2.5200000000	2.1481914135
2.5250000000	1.9968308089
2.5300000000	1.8027312812
2.5350000000	1.5966193035
2.5400000000	1.3979569078
2.5450000000	1.2163631017
2.5500000000	1.0554322664
2.5550000000	0.9156210954
2.5600000000	0.7949011370
2.5650000000	0.6930077424
2.5700000000	0.6079078192
2.5750000000	0.5383979389
2.5800000000	0.4835382384
2.5850000000	0.4421643871
2.5900000000	0.4121744797
2.5950000000	0.3905256552
2.6000000000	0.3740352982
2.6050000000	0.3622741356
2.6100000000	0.3517137524
2.6150000000	0.3422242760
2.6200000000	0.3340428360
2.6250000000	0.3274025698
2.6300000000	0.3224442507
2.6350000000	0.3192289137
2.6400000000	0.3177885804
2.6450000000	0.3181594242
2.6500000000	0.3204191190
2.6550000000	0.3245807362
2.6600000000	0.3307534581
2.6650000000	0.3390337369
2.6700000000	0.3495352189
2.6750000000	0.3623927415
2.6800000000	0.3777563750
2.6850000000	0.3957900197
2.6900000000	0.4166520577
2.6950000000	0.4404860424
2.7000000000	0.4673914122
2.7050000000	0.5006079158
2.7100000000	0.5378368913
2.7150000000	0.5788227213
2.7200000000	0.6230129637
2.7250000000	0.6694873567
2.7300000000	0.7168925025
2.7350000000	0.7633845630
2.7400000000	0.8065993503
2.7450000000	0.8440411064
2.7500000000	0.8720868753
2.7550000000	0.8882481267
2.7600000000	0.8906558530
2.7650000000	0.8788292990
2.7700000000	0.8538455992
2.7750000000	0.8181215573
2.7800000000	0.7748624601
2.7850000000	0.7274781864
2.7900000000	0.6790149371
2.7950000000	0.6319115643
2.8000000000	0.5878883261
2.8050000000	0.5431233573
2.8100000000	0.5044804620
2.8150000000	0.4718714917
2.8200000000	0.4447838819
2.8250000000	0.4225364001
2.8300000000	0.4044456688
2.8350000000	0.3899292692
2.8400000000	0.3783680522
2.8450000000	0.3698037215
2.8500000000	0.3637825328
2.8550000000	0.3601354201
2.8600000000	0.3587427777
2.8650000000	0.3595101129
2.8700000000	0.3623533059
2.8750000000	0.3671862754
2.8800000000	0.3739094326
2.8850000000	0.3823989516
2.8900000000	0.3925023758
2.8950000000	0.4040335043
2.9000000000	0.4167714840
2.9050000000	0.4335041941
2.9100000000	0.4506832748
2.9150000000	0.4676462343
2.9200000000	0.4835964206
2.9250000000	0.4976101370
2.9300000000	0.5088192358
2.9350000000	0.5160679335
2.9400000000	0.5187772987
2.9450000000	0.5166508789
2.9500000000	0.5098631883
2.9550000000	0.4990334694
2.9600000000	0.4851048825
2.9650000000	0.4691715883
2.9700000000	0.4523072740
2.9750000000	0.4354435359
2.9800000000	0.4193028740
2.9850000000	0.4043893092
2.9900000000	0.3910130069
2.9950000000	0.3793319592
3.0000000000	0.3693971058
