# energy (eV)    P(omega), $W$ = 300 nm, $h$ = 300 nm, $s$ = 20 nm, $d/W = 5$, $E_{\rm e}$ = 200 keV
0.2000000000	0.0786173645
0.2050000000	0.0797954417
0.2100000000	0.0808969524
0.2150000000	0.0819243916
0.2200000000	0.0828798868
0.2250000000	0.0837652454
0.2300000000	0.0845818475
0.2350000000	0.0853306081
0.2400000000	0.0860118713
0.2450000000	0.0866253761
0.2500000000	0.0871701108
0.2550000000	0.0876441443
0.2600000000	0.0880445803
0.2650000000	0.0883672113
0.2700000000	0.0886063394
0.2750000000	0.0887544134
0.2800000000	0.0888016309
0.2850000000	0.0887353899
0.2900000000	0.0885395480
0.2950000000	0.0881936237
0.3000000000	0.0876714531
0.3050000000	0.0869396966
0.3100000000	0.0859556710
0.3150000000	0.0908419310
0.3200000000	0.0966449922
0.3250000000	0.1039846976
0.3300000000	0.1138141508
0.3350000000	0.1260493002
0.3400000000	0.1420714160
0.3450000000	0.1615046494
0.3500000000	0.1869263393
0.3550000000	0.2205632816
0.3600000000	0.2644819720
0.3650000000	0.3257082280
0.3700000000	0.4064374738
0.3750000000	0.5187324799
0.3800000000	0.6811397431
0.3850000000	0.9341969579
0.3900000000	1.3339643628
0.3950000000	2.0130057628
0.4000000000	3.3074818967
0.4050000000	6.2096303597
0.4100000000	14.1284062315
0.4150000000	45.3409405757
0.4200000000	28.8889153868
0.4250000000	-54.3755151804
0.4300000000	15.1201050186
0.4350000000	9.4220644367
0.4400000000	5.7595995333
0.4450000000	3.7881573929
0.4500000000	2.6532585483
0.4550000000	1.9548557549
0.4600000000	1.4999940148
0.4650000000	1.1900342447
0.4700000000	0.9709610436
0.4750000000	0.8125227900
0.4800000000	0.6950538622
0.4850000000	0.6066611370
0.4900000000	0.5391879968
0.4950000000	0.4871589218
0.5000000000	0.4468312115
0.5050000000	0.4154589038
0.5100000000	0.3912737609
0.5150000000	0.3729739714
0.5200000000	0.3591990101
0.5250000000	0.3493357079
0.5300000000	0.3427260623
0.5350000000	0.3388888163
0.5400000000	0.3374691617
0.5450000000	0.3381706997
0.5500000000	0.3408995634
0.5550000000	0.3454886489
0.5600000000	0.3518525223
0.5650000000	0.3599527771
0.5700000000	0.3697544040
0.5750000000	0.3813258658
0.5800000000	0.3947784661
0.5850000000	0.4101848070
0.5900000000	0.4276856499
0.5950000000	0.4474581043
0.6000000000	0.4697277774
0.6050000000	0.4948217205
0.6100000000	0.5230519243
0.6150000000	0.5548446737
0.6200000000	0.5907686116
0.6250000000	0.6313689285
0.6300000000	0.6774514767
0.6350000000	0.7300206361
0.6400000000	0.7901214515
0.6450000000	0.8592624198
0.6500000000	0.9394269257
0.6550000000	1.0326796054
0.6600000000	1.1421937340
0.6650000000	1.2720409622
0.6700000000	1.4270080948
0.6750000000	1.6143946748
0.6800000000	1.8440170174
0.6850000000	2.1287344220
0.6900000000	2.4884635977
0.6950000000	2.9510596493
0.7000000000	3.5607703453
0.7050000000	4.3852389905
0.7100000000	5.5390787488
0.7150000000	7.2263140686
0.7200000000	9.8267755720
0.7250000000	14.1433675565
0.7300000000	22.0665161572
0.7350000000	39.0197546153
0.7400000000	85.5144743455
0.7450000000	283.6926123273
0.7500000000	878.8809609667
0.7550000000	221.1015069038
0.7600000000	73.2236939817
0.7650000000	35.0846172452
0.7700000000	20.4039555239
0.7750000000	13.3170831135
0.7800000000	9.3717903368
0.7850000000	6.9604316596
0.7900000000	5.3774998095
0.7950000000	4.2857872646
0.8000000000	3.5009950081
0.8050000000	2.9164998527
0.8100000000	2.4707897657
0.8150000000	2.1174683057
0.8200000000	1.8386171896
0.8250000000	1.6140895950
0.8300000000	1.4301663250
0.8350000000	1.2789474384
0.8400000000	1.1521819576
0.8450000000	1.0458093187
0.8500000000	0.9558938190
0.8550000000	0.8783005197
0.8600000000	0.8120617375
0.8650000000	0.7554826986
0.8700000000	0.7054904689
0.8750000000	0.6629650365
0.8800000000	0.6268814201
0.8850000000	0.5945304654
0.8900000000	0.5685798295
0.8950000000	0.5449727301
0.9000000000	0.5262636355
0.9050000000	0.5133798322
0.9100000000	0.5015731268
0.9150000000	0.4944130491
0.9200000000	0.4935552101
0.9250000000	0.4929199910
0.9300000000	0.4856929489
0.9350000000	0.4639977590
0.9400000000	0.3431185289
0.9450000000	-0.2063261296
0.9500000000	-3.1059945576
0.9550000000	-17.8136411994
0.9600000000	4.2033953172
0.9650000000	7.3839081806
0.9700000000	3.2750481664
0.9750000000	1.7193218382
0.9800000000	1.0775213346
0.9850000000	0.7773493022
0.9900000000	0.6043963194
0.9950000000	0.4995216831
1.0000000000	0.4325589421
1.0050000000	0.3901063892
1.0100000000	0.3571949689
1.0150000000	0.3331510635
1.0200000000	0.3169563172
1.0250000000	0.3033630128
1.0300000000	0.2930363320
1.0350000000	0.2852241704
1.0400000000	0.2802575094
1.0450000000	0.2761274710
1.0500000000	0.2734028791
1.0550000000	0.2719224148
1.0600000000	0.2720506830
1.0650000000	0.2727728718
1.0700000000	0.2745027005
1.0750000000	0.2772473647
1.0800000000	0.2812783282
1.0850000000	0.2863937504
1.0900000000	0.2939399107
1.0950000000	0.3029014570
1.1000000000	0.3135791370
1.1050000000	0.3258853183
1.1100000000	0.3402088010
1.1150000000	0.3568716225
1.1200000000	0.3762556531
1.1250000000	0.3988596291
1.1300000000	0.4253520851
1.1350000000	0.4565651152
1.1400000000	0.4934463801
1.1450000000	0.5377256508
1.1500000000	0.5912840599
1.1550000000	0.6568410403
1.1600000000	0.7382332174
1.1650000000	0.8404389238
1.1700000000	0.9727836303
1.1750000000	1.1476474333
1.1800000000	1.3854964402
1.1850000000	1.7199718673
1.1900000000	2.2144762015
1.1950000000	2.9907459282
1.2000000000	4.3074075102
1.2050000000	6.7955485618
1.2100000000	12.2689663941
1.2150000000	27.0636090880
1.2200000000	66.4196552703
1.2250000000	59.6745114456
1.2300000000	23.8042464137
1.2350000000	11.1648836026
1.2400000000	6.3774004723
1.2450000000	4.1792434769
1.2500000000	3.0196445628
1.2550000000	2.3504387964
1.2600000000	1.9432503038
1.2650000000	1.6882279742
1.2700000000	1.5362073875
1.2750000000	1.4553119751
1.2800000000	1.4303719157
1.2850000000	1.4547671831
1.2900000000	1.5279745993
1.2950000000	1.6538040411
1.3000000000	1.8477842050
1.3050000000	2.1298304160
1.3100000000	2.5370652924
1.3150000000	3.1337180159
1.3200000000	4.0352530354
1.3250000000	5.4617453353
1.3300000000	7.8951756147
1.3350000000	12.4530214602
1.3400000000	22.1944650599
1.3450000000	46.3778081033
1.3500000000	98.4255049431
1.3550000000	91.7963589638
1.3600000000	42.3318114129
1.3650000000	20.7991868950
1.3700000000	11.9280941971
1.3750000000	7.6708451861
1.3800000000	5.3495606065
1.3850000000	3.9512442332
1.3900000000	3.0500142001
1.3950000000	2.4351345207
1.4000000000	1.9977621914
1.4050000000	1.6765281296
1.4100000000	1.4342658998
1.4150000000	1.2487758114
1.4200000000	1.1044018125
1.4250000000	0.9970027201
1.4300000000	0.9287607610
1.4350000000	0.8837923971
1.4400000000	0.6078720121
1.4450000000	-0.1566573129
1.4500000000	-1.4867143932
1.4550000000	-0.4965533352
1.4600000000	1.5129303174
1.4650000000	0.8762437148
1.4700000000	-0.5599707284
1.4750000000	-2.8322998644
1.4800000000	-1.2496128791
1.4850000000	2.1407154349
1.4900000000	1.7329751171
1.4950000000	1.1243345303
1.5000000000	0.7915808810
1.5050000000	0.6114454505
1.5100000000	0.5083306770
1.5150000000	0.4451088861
1.5200000000	0.4036992613
1.5250000000	0.3774151671
1.5300000000	0.3567022168
1.5350000000	0.3416548868
1.5400000000	0.3307535336
1.5450000000	0.3230919125
1.5500000000	0.3180433056
1.5550000000	0.3153463830
1.5600000000	0.3155402837
1.5650000000	0.3175346382
1.5700000000	0.3224910764
1.5750000000	0.3313211609
1.5800000000	0.3458408862
1.5850000000	0.3696264894
1.5900000000	0.4102439205
1.5950000000	0.4844196271
1.6000000000	0.6274052039
1.6050000000	0.8620823083
1.6100000000	0.9715381765
1.6150000000	0.7737920988
1.6200000000	0.5904325281
1.6250000000	0.4972501852
1.6300000000	0.4545109361
1.6350000000	0.4369289212
1.6400000000	0.4330508425
1.6450000000	0.4376382456
1.6500000000	0.4481415775
1.6550000000	0.4635148052
1.6600000000	0.4832252619
1.6650000000	0.5072023730
1.6700000000	0.5356460020
1.6750000000	0.5689667230
1.6800000000	0.6077644251
1.6850000000	0.6528397085
1.6900000000	0.7051226659
1.6950000000	0.7651525970
1.7000000000	0.8342518950
1.7050000000	0.9141954037
1.7100000000	1.0110895934
1.7150000000	1.1739866099
1.7200000000	1.4200415968
1.7250000000	1.6859698287
1.7300000000	2.0021473823
1.7350000000	2.3442443174
1.7400000000	2.6600942433
1.7450000000	3.0581700369
1.7500000000	3.6683868817
1.7550000000	4.5836334350
1.7600000000	5.9567935218
1.7650000000	8.0752306644
1.7700000000	11.4877995218
1.7750000000	17.2355738695
1.7800000000	27.0250476957
1.7850000000	41.4509712325
1.7900000000	51.4784632826
1.7950000000	43.8001165329
1.8000000000	29.1222249521
1.8050000000	18.3700421562
1.8100000000	12.0950319950
1.8150000000	8.4179974087
1.8200000000	6.1552681517
1.8250000000	4.6880723130
1.8300000000	3.6913533829
1.8350000000	2.9870692059
1.8400000000	2.4730292827
1.8450000000	2.0871655108
1.8500000000	1.7903203906
1.8550000000	1.5579429462
1.8600000000	1.3727652509
1.8650000000	1.2229180836
1.8700000000	1.0997532275
1.8750000000	0.9966376512
1.8800000000	0.9079260935
1.8850000000	0.8281154013
1.8900000000	0.7503955277
1.8950000000	0.6644502962
1.9000000000	0.5527992974
1.9050000000	0.3583936160
1.9100000000	0.0792324565
1.9150000000	-0.1893930277
1.9200000000	0.1360794434
1.9250000000	1.4365621028
1.9300000000	2.4754266648
1.9350000000	2.4985457642
1.9400000000	2.0056257794
1.9450000000	1.5199796917
1.9500000000	1.1757737394
1.9550000000	0.9481005138
1.9600000000	0.7963838313
1.9650000000	0.6952886442
1.9700000000	0.6208718391
1.9750000000	0.5663033492
1.9800000000	0.5248861366
1.9850000000	0.4918175137
1.9900000000	0.4635222817
1.9950000000	0.4369697375
2.0000000000	0.4116153415
2.0050000000	0.3965377893
2.0100000000	0.4066719240
2.0150000000	0.4331005621
2.0200000000	0.4509543411
2.0250000000	0.4587101819
2.0300000000	0.4646204281
2.0350000000	0.4725034366
2.0400000000	0.4842153643
2.0450000000	0.5005432296
2.0500000000	0.5222866820
2.0550000000	0.5502408681
2.0600000000	0.5844513473
2.0650000000	0.6221900173
2.0700000000	0.6566657341
2.0750000000	0.6825755029
2.0800000000	0.7038634653
2.0850000000	0.7290999166
2.0900000000	0.7637367960
2.0950000000	0.8096647699
2.1000000000	0.8683333303
2.1050000000	0.9388593601
2.1100000000	1.0261565487
2.1150000000	1.1337471708
2.1200000000	1.2666965311
2.1250000000	1.4321918608
2.1300000000	1.6404165149
2.1350000000	1.9059407042
2.1400000000	2.2498076726
2.1450000000	2.7027761081
2.1500000000	3.3096383879
2.1550000000	4.1337483020
2.1600000000	5.2561633643
2.1650000000	6.7455767569
2.1700000000	8.5758051563
2.1750000000	10.4008324114
2.1800000000	11.5469659824
2.1850000000	11.6543508170
2.1900000000	11.2191390849
2.1950000000	10.9103652781
2.2000000000	10.8024856318
2.2050000000	10.2949514176
2.2100000000	9.1307813821
2.2150000000	7.6659965076
2.2200000000	6.3336985396
2.2250000000	5.2541148999
2.2300000000	4.3677623206
2.2350000000	3.6258997478
2.2400000000	3.0167428057
2.2450000000	2.5357303727
2.2500000000	2.1629733435
2.2550000000	1.8744872785
2.2600000000	1.6480670878
2.2650000000	1.4636957337
2.2700000000	1.3024236979
2.2750000000	1.1482348823
2.2800000000	0.9974063035
2.2850000000	0.8683518275
2.2900000000	0.7924404280
2.2950000000	0.7837364016
2.3000000000	0.8180305610
2.3050000000	0.8541748139
2.3100000000	0.8669437172
2.3150000000	0.8571299000
2.3200000000	0.8356396054
2.3250000000	0.8136822386
2.3300000000	0.7972087612
2.3350000000	0.7879562961
2.3400000000	0.7846176097
2.3450000000	0.7833896945
2.3500000000	0.7793740859
2.3550000000	0.7694414993
2.3600000000	0.7544576779
2.3650000000	0.7382396503
2.3700000000	0.7246670565
2.3750000000	0.7158962956
2.3800000000	0.7122736699
2.3850000000	0.7129330684
2.3900000000	0.7167681533
2.3950000000	0.7227185717
2.4000000000	0.7313123396
2.4050000000	0.7447915562
2.4100000000	0.7641087874
2.4150000000	0.7905796519
2.4200000000	0.8251114382
2.4250000000	0.8686770154
2.4300000000	0.9224703587
2.4350000000	0.9880222015
2.4400000000	1.0673025058
2.4450000000	1.1628372401
2.4500000000	1.2778278309
2.4550000000	1.4163136778
2.4600000000	1.5832615884
2.4650000000	1.7846593377
2.4700000000	2.0273970659
2.4750000000	2.3184222069
2.4800000000	2.6650662289
2.4850000000	3.0703739888
2.4900000000	3.5305477021
2.4950000000	4.0288007188
2.5000000000	4.5288931684
2.5050000000	4.9923932225
2.5100000000	5.2963067288
2.5150000000	5.3716408139
2.5200000000	5.2068621926
2.5250000000	4.8530749335
2.5300000000	4.3914828397
2.5350000000	3.8957549146
2.5400000000	3.4145092662
2.5450000000	2.9731165108
2.5500000000	2.5817930303
2.5550000000	2.2422934873
2.5600000000	1.9497751277
2.5650000000	1.7031730668
2.5700000000	1.4972513750
2.5750000000	1.3288464316
2.5800000000	1.1955397696
2.5850000000	1.0944774815
2.5900000000	1.0206693745
2.5950000000	0.9669531579
2.6000000000	0.9258419635
2.6050000000	0.8965070382
2.6100000000	0.8704987697
2.6150000000	0.8474683265
2.6200000000	0.8279563983
2.6250000000	0.8125173228
2.6300000000	0.8015066141
2.6350000000	0.7950947053
2.6400000000	0.7933713425
2.6450000000	0.7964276081
2.6500000000	0.8044506693
2.6550000000	0.8174823265
2.6600000000	0.8358086048
2.6650000000	0.8597015895
2.6700000000	0.8894817729
2.6750000000	0.9255239208
2.6800000000	0.9682287100
2.6850000000	1.0180062146
2.6900000000	1.0752192011
2.6950000000	1.1401453395
2.7000000000	1.2128866795
2.7050000000	1.3019544965
2.7100000000	1.4005770455
2.7150000000	1.5075508140
2.7200000000	1.6208534488
2.7250000000	1.7376090929
2.7300000000	1.8540951107
2.7350000000	1.9657550572
2.7400000000	2.0671686813
2.7450000000	2.1529272849
2.7500000000	2.2149991488
2.7550000000	2.2480677760
2.7600000000	2.2481181707
2.7650000000	2.2142659987
2.7700000000	2.1492075903
2.7750000000	2.0587650175
2.7800000000	1.9506224404
2.7850000000	1.8329528943
2.7900000000	1.7130784991
2.7950000000	1.5968682524
2.8000000000	1.4884749241
2.8050000000	1.3783749997
2.8100000000	1.2835974295
2.8150000000	1.2039301240
2.8200000000	1.1381285818
2.8250000000	1.0845382317
2.8300000000	1.0414902249
2.8350000000	1.0075640196
2.8400000000	0.9812485047
2.8450000000	0.9626356544
2.8500000000	0.9506153447
2.8550000000	0.9447678169
2.8600000000	0.9447835773
2.8650000000	0.9503999413
2.8700000000	0.9613608822
2.8750000000	0.9773739450
2.8800000000	0.9980819417
2.8850000000	1.0230322464
2.8900000000	1.0516846644
2.8950000000	1.0833989314
2.9000000000	1.1174708534
2.9050000000	1.1605560415
2.9100000000	1.2036162131
2.9150000000	1.2451139152
2.9200000000	1.2832840628
2.9250000000	1.3160897816
2.9300000000	1.3416337389
2.9350000000	1.3572547900
2.9400000000	1.3616848946
2.9450000000	1.3543044512
2.9500000000	1.3356195608
2.9550000000	1.3072193765
2.9600000000	1.2714674103
2.9650000000	1.2310847936
2.9700000000	1.1887332087
2.9750000000	1.1467076416
2.9800000000	1.1067827819
2.9850000000	1.0701851159
2.9900000000	1.0376704247
2.9950000000	1.0096051453
3.0000000000	0.9860955481
