# energy (eV)    P(omega), $W$ = 300 nm, $h$ = 300 nm, $s$ = 20 nm, $d/W = 5$, $E_{\rm e}$ = 200 keV
0.2000000000	0.0664152737
0.2050000000	0.0673693340
0.2100000000	0.0682661365
0.2150000000	0.0691074714
0.2200000000	0.0698948823
0.2250000000	0.0706296451
0.2300000000	0.0713126971
0.2350000000	0.0719446239
0.2400000000	0.0725255928
0.2450000000	0.0730552091
0.2500000000	0.0735325972
0.2550000000	0.0739560739
0.2600000000	0.0743231800
0.2650000000	0.0746304873
0.2700000000	0.0748732968
0.2750000000	0.0750454567
0.2800000000	0.0751389933
0.2850000000	0.0751437113
0.2900000000	0.0750465122
0.2950000000	0.0748308798
0.3000000000	0.0744755449
0.3050000000	0.0739536380
0.3100000000	0.0732306635
0.3150000000	0.0771758917
0.3200000000	0.0818620754
0.3250000000	0.0877859521
0.3300000000	0.0957130941
0.3350000000	0.1055835800
0.3400000000	0.1185104828
0.3450000000	0.1342034374
0.3500000000	0.1547411430
0.3550000000	0.1819299165
0.3600000000	0.2174567627
0.3650000000	0.2670083500
0.3700000000	0.3324098113
0.3750000000	0.4234550159
0.3800000000	0.5552269601
0.3850000000	0.7606788980
0.3900000000	1.0854939976
0.3950000000	1.6376362762
0.4000000000	2.6909233610
0.4050000000	5.0539447218
0.4100000000	11.5063760131
0.4150000000	36.9575733793
0.4200000000	23.5244365150
0.4250000000	-44.4068589978
0.4300000000	12.3747679715
0.4350000000	7.7213442475
0.4400000000	4.7272143141
0.4450000000	3.1143795283
0.4500000000	2.1853020162
0.4550000000	1.6132083055
0.4600000000	1.2403943797
0.4650000000	0.9862123149
0.4700000000	0.8064787972
0.4750000000	0.6764496470
0.4800000000	0.5800233724
0.4850000000	0.5074643742
0.4900000000	0.4520909447
0.4950000000	0.4094156791
0.5000000000	0.3763722054
0.5050000000	0.3507080641
0.5100000000	0.3309758063
0.5150000000	0.3161103700
0.5200000000	0.3049918946
0.5250000000	0.2971216085
0.5300000000	0.2919597262
0.5350000000	0.2891125778
0.5400000000	0.2882904199
0.5450000000	0.2892513575
0.5500000000	0.2919233394
0.5550000000	0.2961714334
0.5600000000	0.3019298989
0.5650000000	0.3091709729
0.5700000000	0.3178711611
0.5750000000	0.3280927193
0.5800000000	0.3399368453
0.5850000000	0.3534700337
0.5900000000	0.3688187985
0.5950000000	0.3861400303
0.6000000000	0.4056333288
0.6050000000	0.4275848075
0.6100000000	0.4522700791
0.6150000000	0.4800631968
0.6200000000	0.5114634364
0.6250000000	0.5469488352
0.6300000000	0.5872259504
0.6350000000	0.6331754686
0.6400000000	0.6857141190
0.6450000000	0.7461644874
0.6500000000	0.8162661124
0.6550000000	0.8978301981
0.6600000000	0.9936394033
0.6650000000	1.1072670153
0.6700000000	1.2429139458
0.6750000000	1.4069836627
0.6800000000	1.6080978102
0.6850000000	1.8575424026
0.6900000000	2.1728117703
0.6950000000	2.5783650944
0.7000000000	3.1130786956
0.7050000000	3.8363824808
0.7100000000	4.8490045758
0.7150000000	6.3302752143
0.7200000000	8.6141246037
0.7250000000	12.4065689194
0.7300000000	19.3702754474
0.7350000000	34.2763121221
0.7400000000	75.1728480172
0.7450000000	249.5665051161
0.7500000000	773.7303679625
0.7550000000	194.7948803964
0.7600000000	64.5607370015
0.7650000000	30.9577250226
0.7700000000	18.0180266726
0.7750000000	11.7691989779
0.7800000000	8.2891483837
0.7850000000	6.1613745622
0.7900000000	4.7641040185
0.7950000000	3.8000911767
0.8000000000	3.1068607810
0.8050000000	2.5903841495
0.8100000000	2.1964074551
0.8150000000	1.8839730736
0.8200000000	1.6373141969
0.8250000000	1.4386516185
0.8300000000	1.2758614627
0.8350000000	1.1419885769
0.8400000000	1.0297377955
0.8450000000	0.9355243958
0.8500000000	0.8558803401
0.8550000000	0.7871316409
0.8600000000	0.7284421166
0.8650000000	0.6783231065
0.8700000000	0.6340254958
0.8750000000	0.5963637409
0.8800000000	0.5644358028
0.8850000000	0.5358076335
0.8900000000	0.5129038363
0.8950000000	0.4920659600
0.9000000000	0.4756176580
0.9050000000	0.4644153961
0.9100000000	0.4541557635
0.9150000000	0.4480863025
0.9200000000	0.4477261720
0.9250000000	0.4475367158
0.9300000000	0.4412786966
0.9350000000	0.4216843239
0.9400000000	0.3110737131
0.9450000000	-0.1929635890
0.9500000000	-2.8556290011
0.9550000000	-16.3707565373
0.9600000000	3.8667575302
0.9650000000	6.7962510263
0.9700000000	3.0164288073
0.9750000000	1.5842688655
0.9800000000	0.9931220290
0.9850000000	0.7165643981
0.9900000000	0.5571369128
0.9950000000	0.4604315543
1.0000000000	0.3986734195
1.0050000000	0.3595370736
1.0100000000	0.3291626551
1.0150000000	0.3069592263
1.0200000000	0.2920106669
1.0250000000	0.2794308057
1.0300000000	0.2698528601
1.0350000000	0.2625812242
1.0400000000	0.2579365267
1.0450000000	0.2540313975
1.0500000000	0.2514033969
1.0550000000	0.2499020259
1.0600000000	0.2498744629
1.0650000000	0.2503546677
1.0700000000	0.2517327003
1.0750000000	0.2540131325
1.0800000000	0.2574516331
1.0850000000	0.2618230325
1.0900000000	0.2683388221
1.0950000000	0.2760874782
1.1000000000	0.2853410114
1.1050000000	0.2959806100
1.1100000000	0.3083537944
1.1150000000	0.3227347765
1.1200000000	0.3394600206
1.1250000000	0.3589135529
1.1300000000	0.3816757230
1.1350000000	0.4084473885
1.1400000000	0.4400397863
1.1450000000	0.4778746899
1.1500000000	0.5235471713
1.1550000000	0.5793401318
1.1600000000	0.6484738150
1.1650000000	0.7351389982
1.1700000000	0.8471233120
1.1750000000	0.9948200679
1.1800000000	1.1953864119
1.1850000000	1.4770077400
1.1900000000	1.8928829634
1.1950000000	2.5449764851
1.2000000000	3.6501351959
1.2050000000	5.7375190242
1.2100000000	10.3282627788
1.2150000000	22.7385615757
1.2200000000	55.7683971250
1.2250000000	50.1537741382
1.2300000000	20.0653837831
1.2350000000	9.4605590720
1.2400000000	5.4457716335
1.2450000000	3.6058741213
1.2500000000	2.6392451291
1.2550000000	2.0858793378
1.2600000000	1.7542666684
1.2650000000	1.5524264577
1.2700000000	1.4397152451
1.2750000000	1.3899116042
1.2800000000	1.3911586484
1.2850000000	1.4391095224
1.2900000000	1.5350682058
1.2950000000	1.6845023853
1.3000000000	1.9045866130
1.3050000000	2.2176786910
1.3100000000	2.6642176421
1.3150000000	3.3138762416
1.3200000000	4.2913949221
1.3250000000	5.8349874244
1.3300000000	8.4645874177
1.3350000000	13.3873994936
1.3400000000	23.9081190030
1.3450000000	50.0317520390
1.3500000000	106.2850227984
1.3550000000	99.1904274938
1.3600000000	45.7588796610
1.3650000000	22.4863281318
1.3700000000	12.8956240603
1.3750000000	8.2922705124
1.3800000000	5.7821795577
1.3850000000	4.2703781549
1.3900000000	3.2965170252
1.3950000000	2.6325131856
1.4000000000	2.1609943445
1.4050000000	1.8157221807
1.4100000000	1.5569764194
1.4150000000	1.3617360448
1.4200000000	1.2149180340
1.4250000000	1.1165880412
1.4300000000	1.0805929601
1.4350000000	1.1006588196
1.4400000000	0.8477796124
1.4450000000	0.0731973356
1.4500000000	-1.1843142573
1.4550000000	-0.3320314942
1.4600000000	1.4342138379
1.4650000000	0.7764550474
1.4700000000	-0.7333300521
1.4750000000	-3.2093024175
1.4800000000	-1.4283516096
1.4850000000	2.3475922614
1.4900000000	1.9029680807
1.4950000000	1.2317358323
1.5000000000	0.8654388140
1.5050000000	0.6682010248
1.5100000000	0.5557814388
1.5150000000	0.4875091573
1.5200000000	0.4434065169
1.5250000000	0.4160042874
1.5300000000	0.3950722611
1.5350000000	0.3806440991
1.5400000000	0.3711404042
1.5450000000	0.3657137762
1.5500000000	0.3638171385
1.5550000000	0.3654644367
1.5600000000	0.3716302442
1.5650000000	0.3818143740
1.5700000000	0.3983040400
1.5750000000	0.4238892333
1.5800000000	0.4638085436
1.5850000000	0.5282591770
1.5900000000	0.6387250904
1.5950000000	0.8427486568
1.6000000000	1.2407534407
1.6050000000	1.8988398134
1.6100000000	2.2036172561
1.6150000000	1.6322685637
1.6200000000	1.0962791802
1.6250000000	0.8133508267
1.6300000000	0.6712920932
1.6350000000	0.5981550020
1.6400000000	0.5610841580
1.6450000000	0.5448090659
1.6500000000	0.5416827351
1.6550000000	0.5481229032
1.6600000000	0.5619916061
1.6650000000	0.5823125233
1.6700000000	0.6087144189
1.6750000000	0.6411994083
1.6800000000	0.6800578200
1.6850000000	0.7257400565
1.6900000000	0.7786442752
1.6950000000	0.8380185467
1.7000000000	0.9028656814
1.7050000000	0.9693204159
1.7100000000	1.0451490098
1.7150000000	1.2336184826
1.7200000000	1.5642964519
1.7250000000	1.8672651498
1.7300000000	2.1924022735
1.7350000000	2.5496620314
1.7400000000	2.9002226496
1.7450000000	3.3504988035
1.7500000000	4.0314274629
1.7550000000	5.0449184156
1.7600000000	6.5612882743
1.7650000000	8.8987851701
1.7700000000	12.6640824751
1.7750000000	19.0076297153
1.7800000000	29.8169098867
1.7850000000	45.7580747015
1.7900000000	56.8650267668
1.7950000000	48.4216829372
1.8000000000	32.2259927897
1.8050000000	20.3514600370
1.8100000000	13.4182098035
1.8150000000	9.3543589026
1.8200000000	6.8534097752
1.8250000000	5.2320364992
1.8300000000	4.1311806147
1.8350000000	3.3541511775
1.8400000000	2.7880492354
1.8450000000	2.3643880728
1.8500000000	2.0400059812
1.8550000000	1.7878956196
1.8600000000	1.5892169770
1.8650000000	1.4311660849
1.8700000000	1.3046365318
1.8750000000	1.2029428656
1.8800000000	1.1207821624
1.8850000000	1.0534687810
1.8900000000	0.9956036191
1.8950000000	0.9391300060
1.9000000000	0.8701356115
1.9050000000	0.7395202920
1.9100000000	0.5597627205
1.9150000000	0.4645873272
1.9200000000	1.1359507959
1.9250000000	2.9913966237
1.9300000000	4.4628891873
1.9350000000	4.3942267239
1.9400000000	3.4561678499
1.9450000000	2.5466951098
1.9500000000	1.9081418604
1.9550000000	1.4897424543
1.9600000000	1.2132513645
1.9650000000	1.0281912340
1.9700000000	0.8945928149
1.9750000000	0.7966601222
1.9800000000	0.7218924556
1.9850000000	0.6612202580
1.9900000000	0.6077035393
1.9950000000	0.5552854042
2.0000000000	0.5030828494
2.0050000000	0.4697323515
2.0100000000	0.4888406219
2.0150000000	0.5414791291
2.0200000000	0.5739362868
2.0250000000	0.5825594544
2.0300000000	0.5845025711
2.0350000000	0.5880362728
2.0400000000	0.5962336302
2.0450000000	0.6098780778
2.0500000000	0.6294778234
2.0550000000	0.6554943555
2.0600000000	0.6879280288
2.0650000000	0.7248145033
2.0700000000	0.7612822877
2.0750000000	0.7936806925
2.0800000000	0.8252311860
2.0850000000	0.8625958870
2.0900000000	0.9102406293
2.0950000000	0.9700461291
2.1000000000	1.0440356297
2.1050000000	1.1315392143
2.1100000000	1.2387067320
2.1150000000	1.3700338416
2.1200000000	1.5318252345
2.1250000000	1.7329242241
2.1300000000	1.9857963640
2.1350000000	2.3082386357
2.1400000000	2.7259492881
2.1450000000	3.2764993520
2.1500000000	4.0146311863
2.1550000000	5.0178201486
2.1600000000	6.3852225383
2.1650000000	8.2008114560
2.1700000000	10.4309950128
2.1750000000	12.6482653313
2.1800000000	14.0182656763
2.1850000000	14.0894695559
2.1900000000	13.4665981863
2.1950000000	12.9819099256
2.2000000000	12.7669829156
2.2050000000	12.1698736692
2.2100000000	10.9021374349
2.2150000000	9.3434405537
2.2200000000	7.9441732495
2.2250000000	6.7877456253
2.2300000000	5.7694993834
2.2350000000	4.8489003657
2.2400000000	4.0581665055
2.2450000000	3.4254826846
2.2500000000	2.9404751877
2.2550000000	2.5761297941
2.2600000000	2.3033255529
2.2650000000	2.0928814322
2.2700000000	1.9132530175
2.2750000000	1.7333626707
2.2800000000	1.5396948501
2.2850000000	1.3554118850
2.2900000000	1.2280690627
2.2950000000	1.1845840066
2.3000000000	1.2001479890
2.3050000000	1.2239036180
2.3100000000	1.2259060532
2.3150000000	1.2063986737
2.3200000000	1.1783440334
2.3250000000	1.1551309061
2.3300000000	1.1436099981
2.3350000000	1.1449582696
2.3400000000	1.1553388462
2.3450000000	1.1660678420
2.3500000000	1.1662105202
2.3550000000	1.1487906085
2.3600000000	1.1157824382
2.3650000000	1.0758133414
2.3700000000	1.0377761033
2.3750000000	1.0069818720
2.3800000000	0.9851557724
2.3850000000	0.9718094704
2.3900000000	0.9658298928
2.3950000000	0.9659277998
2.4000000000	0.9724544138
2.4050000000	0.9875590319
2.4100000000	1.0119621033
2.4150000000	1.0466609131
2.4200000000	1.0922548700
2.4250000000	1.1497929310
2.4300000000	1.2208048796
2.4350000000	1.3073428517
2.4400000000	1.4120549501
2.4450000000	1.5383223635
2.4500000000	1.6904109790
2.4550000000	1.8736826361
2.4600000000	2.0947250404
2.4650000000	2.3614421382
2.4700000000	2.6828989252
2.4750000000	3.0681757242
2.4800000000	3.5266504409
2.4850000000	4.0620354916
2.4900000000	4.6690980572
2.4950000000	5.3261139002
2.5000000000	5.9871397017
2.5050000000	6.6055010927
2.5100000000	7.0232482824
2.5150000000	7.1492806621
2.5200000000	6.9618882567
2.5250000000	6.5189168798
2.5300000000	5.9211426788
2.5350000000	5.2657604539
2.5400000000	4.6214364751
2.5450000000	4.0269676329
2.5500000000	3.4996061058
2.5550000000	3.0432791847
2.5600000000	2.6517126895
2.5650000000	2.3225044428
2.5700000000	2.0479037257
2.5750000000	1.8230585216
2.5800000000	1.6443445587
2.5850000000	1.5078220666
2.5900000000	1.4070112540
2.5950000000	1.3328021623
2.6000000000	1.2757093736
2.6050000000	1.2351344616
2.6100000000	1.2000018833
2.6150000000	1.1697547384
2.6200000000	1.1449906053
2.6250000000	1.1263715203
2.6300000000	1.1143395644
2.6350000000	1.1091203097
2.6400000000	1.1108447621
2.6450000000	1.1196348321
2.6500000000	1.1357291321
2.6550000000	1.1591944985
2.6600000000	1.1903910421
2.6650000000	1.2296825416
2.6700000000	1.2775158773
2.6750000000	1.3344325955
2.6800000000	1.4010329133
2.6850000000	1.4779308299
2.6900000000	1.5656292884
2.6950000000	1.6644199917
2.7000000000	1.7742029224
2.7050000000	1.9074641890
2.7100000000	2.0529006170
2.7150000000	2.2076802277
2.7200000000	2.3676840703
2.7250000000	2.5277376763
2.7300000000	2.6820023573
2.7350000000	2.8243117129
2.7400000000	2.9482526567
2.7450000000	3.0481325526
2.7500000000	3.1151210925
2.7550000000	3.1438725668
2.7600000000	3.1303307161
2.7650000000	3.0740238009
2.7700000000	2.9787254085
2.7750000000	2.8519961774
2.7800000000	2.7036908937
2.7850000000	2.5442641456
2.7900000000	2.3830962417
2.7950000000	2.2277093284
2.8000000000	2.0834222961
2.8050000000	1.9374376836
2.8100000000	1.8124940108
2.8150000000	1.7082561432
2.8200000000	1.6230461339
2.8250000000	1.5546524542
2.8300000000	1.5008473599
2.8350000000	1.4597243143
2.8400000000	1.4292762986
2.8450000000	1.4095731867
2.8500000000	1.3991563956
2.8550000000	1.3974701643
2.8600000000	1.4040994958
2.8650000000	1.4186705369
2.8700000000	1.4407650904
2.8750000000	1.4698525876
2.8800000000	1.5052374548
2.8850000000	1.5460150904
2.8900000000	1.5910981086
2.8950000000	1.6392566852
2.9000000000	1.6891975151
2.9050000000	1.7492111377
2.9100000000	1.8067833212
2.9150000000	1.8601031083
2.9200000000	1.9072698827
2.9250000000	1.9461271163
2.9300000000	1.9746890863
2.9350000000	1.9898677427
2.9400000000	1.9903302374
2.9450000000	1.9755087986
2.9500000000	1.9462585904
2.9550000000	1.9048027319
2.9600000000	1.8543500630
2.9650000000	1.7985364690
2.9700000000	1.7408778296
2.9750000000	1.6843788341
2.9800000000	1.6313417839
2.9850000000	1.5833374772
2.9900000000	1.5413106990
2.9950000000	1.5057049562
3.0000000000	1.4766135685
