# energy (eV)    P(omega), $W$ = 300 nm, $h$ = 300 nm, $s$ = 20 nm, $d/W = 5$, $E_{\rm e}$ = 200 keV
0.2000000000	0.1270353367
0.2050000000	0.1288603515
0.2100000000	0.1305757757
0.2150000000	0.1321850371
0.2200000000	0.1336910910
0.2250000000	0.1350963814
0.2300000000	0.1364027040
0.2350000000	0.1376111811
0.2400000000	0.1387221348
0.2450000000	0.1397348124
0.2500000000	0.1406475404
0.2550000000	0.1414571004
0.2600000000	0.1421587898
0.2650000000	0.1427460512
0.2700000000	0.1432098968
0.2750000000	0.1435385593
0.2800000000	0.1437167860
0.2850000000	0.1437250740
0.2900000000	0.1435383665
0.2950000000	0.1431250691
0.3000000000	0.1424444943
0.3050000000	0.1414452416
0.3100000000	0.1400613225
0.3150000000	0.1476084761
0.3200000000	0.1565730644
0.3250000000	0.1679053865
0.3300000000	0.1830700190
0.3350000000	0.2019522436
0.3400000000	0.2266813819
0.3450000000	0.2567018206
0.3500000000	0.2959901194
0.3550000000	0.3480016575
0.3600000000	0.4159634498
0.3650000000	0.5107538864
0.3700000000	0.6358638579
0.3750000000	0.8100283528
0.3800000000	1.0620998069
0.3850000000	1.4551150424
0.3900000000	2.0764609338
0.3950000000	3.1326613786
0.4000000000	5.1475005489
0.4050000000	9.6677206226
0.4100000000	22.0105149070
0.4150000000	70.6956621857
0.4200000000	44.9997263725
0.4250000000	-84.9443146475
0.4300000000	23.6710036428
0.4350000000	14.7696235933
0.4400000000	9.0422872032
0.4450000000	5.9571807871
0.4500000000	4.1800042830
0.4550000000	3.0856844260
0.4600000000	2.3725559015
0.4650000000	1.8863510478
0.4700000000	1.5425538315
0.4750000000	1.2938324046
0.4800000000	1.1093872156
0.4850000000	0.9705956137
0.4900000000	0.8646766143
0.4950000000	0.7830465817
0.5000000000	0.7198400687
0.5050000000	0.6707485252
0.5100000000	0.6330032186
0.5150000000	0.6045668512
0.5200000000	0.5832973714
0.5250000000	0.5682406786
0.5300000000	0.5583642675
0.5350000000	0.5529151039
0.5400000000	0.5513389489
0.5450000000	0.5531730906
0.5500000000	0.5582796587
0.5550000000	0.5664005333
0.5600000000	0.5774099189
0.5650000000	0.5912546717
0.5700000000	0.6078898018
0.5750000000	0.6274343272
0.5800000000	0.6500817269
0.5850000000	0.6759591174
0.5900000000	0.7053083908
0.5950000000	0.7384295311
0.6000000000	0.7757041889
0.6050000000	0.8176794643
0.6100000000	0.8648823608
0.6150000000	0.9180281264
0.6200000000	0.9780714547
0.6250000000	1.0459264351
0.6300000000	1.1229441177
0.6350000000	1.2108085315
0.6400000000	1.3112726073
0.6450000000	1.4268653565
0.6500000000	1.5609130656
0.6550000000	1.7168790555
0.6600000000	1.9000842557
0.6650000000	2.1173613288
0.6700000000	2.3767431387
0.6750000000	2.6904741331
0.6800000000	3.0750402745
0.6850000000	3.5520222029
0.6900000000	4.1548718383
0.6950000000	4.9303588899
0.7000000000	5.9528208771
0.7050000000	7.3358968027
0.7100000000	9.2721938881
0.7150000000	12.1046183005
0.7200000000	16.4716937258
0.7250000000	23.7234252784
0.7300000000	37.0390715461
0.7350000000	65.5415906207
0.7400000000	143.7416040156
0.7450000000	477.2065159968
0.7500000000	1479.4772612518
0.7550000000	372.4729798839
0.7600000000	123.4480675716
0.7650000000	59.1947830398
0.7700000000	34.4524565711
0.7750000000	22.5039339852
0.7800000000	15.8496626924
0.7850000000	11.7811120226
0.7900000000	9.1093727076
0.7950000000	7.2660739765
0.8000000000	5.9405430788
0.8050000000	4.9529858463
0.8100000000	4.1996623840
0.8150000000	3.6022571354
0.8200000000	3.1306217746
0.8250000000	2.7507603884
0.8300000000	2.4394908801
0.8350000000	2.1835140340
0.8400000000	1.9688808397
0.8450000000	1.7887368384
0.8500000000	1.6364507343
0.8550000000	1.5049976166
0.8600000000	1.3927785003
0.8650000000	1.2969468149
0.8700000000	1.2122462398
0.8750000000	1.1402338148
0.8800000000	1.0791847357
0.8850000000	1.0244451321
0.8900000000	0.9806506058
0.8950000000	0.9408063566
0.9000000000	0.9093549624
0.9050000000	0.8879338092
0.9100000000	0.8683151113
0.9150000000	0.8567078153
0.9200000000	0.8560163025
0.9250000000	0.8556512893
0.9300000000	0.8436843004
0.9350000000	0.8062207815
0.9400000000	0.5947493260
0.9450000000	-0.3688872628
0.9500000000	-5.4594464691
0.9550000000	-31.2979788413
0.9600000000	7.3925368309
0.9650000000	12.9931603361
0.9700000000	5.7668362003
0.9750000000	3.0288169609
0.9800000000	1.8986580385
0.9850000000	1.3699335719
0.9900000000	1.0651396986
0.9950000000	0.8802583279
1.0000000000	0.7621891299
1.0050000000	0.6873681311
1.0100000000	0.6292984061
1.0150000000	0.5868500102
1.0200000000	0.5582713586
1.0250000000	0.5342213658
1.0300000000	0.5159104894
1.0350000000	0.5020088826
1.0400000000	0.4931294263
1.0450000000	0.4856640636
1.0500000000	0.4806404189
1.0550000000	0.4777707742
1.0600000000	0.4777187985
1.0650000000	0.4786377979
1.0700000000	0.4812734369
1.0750000000	0.4856344577
1.0800000000	0.4922096172
1.0850000000	0.5005686670
1.0900000000	0.5130279098
1.0950000000	0.5278445299
1.1000000000	0.5455385838
1.1050000000	0.5658831416
1.1100000000	0.5895426427
1.1150000000	0.6170414471
1.1200000000	0.6490228817
1.1250000000	0.6862215456
1.1300000000	0.7297471368
1.1350000000	0.7809399014
1.1400000000	0.8413510860
1.1450000000	0.9136997783
1.1500000000	1.0010361568
1.1550000000	1.1077258609
1.1600000000	1.2399270281
1.1650000000	1.4056536852
1.1700000000	1.6197985029
1.1750000000	1.9022368174
1.1800000000	2.2857786629
1.1850000000	2.8243237828
1.1900000000	3.6196054308
1.1950000000	4.8666131920
1.2000000000	6.9800282252
1.2050000000	10.9717744859
1.2100000000	19.7507482836
1.2150000000	43.4831935916
1.2200000000	106.6466088006
1.2250000000	95.9093053552
1.2300000000	38.3707415737
1.2350000000	18.0909799070
1.2400000000	10.4134354224
1.2450000000	6.8949501230
1.2500000000	5.0464168063
1.2550000000	3.9881611720
1.2600000000	3.3539552725
1.2650000000	2.9679022016
1.2700000000	2.7522752504
1.2750000000	2.6569277639
1.2800000000	2.6591804740
1.2850000000	2.7507135924
1.2900000000	2.9340103400
1.2950000000	3.2195131082
1.3000000000	3.6400400829
1.3050000000	4.2383125852
1.3100000000	5.0916070403
1.3150000000	6.3330650579
1.3200000000	8.2010623948
1.3250000000	11.1508177170
1.3300000000	16.1759142525
1.3350000000	25.5832905639
1.3400000000	45.6881374535
1.3450000000	95.6097577976
1.3500000000	203.1082394072
1.3550000000	189.5503422272
1.3600000000	87.4439601405
1.3650000000	42.9707423622
1.3700000000	24.6431788037
1.3750000000	15.8463041593
1.3800000000	11.0495942266
1.3850000000	8.1605852899
1.3900000000	6.2995628043
1.3950000000	5.0306676558
1.4000000000	4.1296035617
1.4050000000	3.4697906197
1.4100000000	2.9753226680
1.4150000000	2.6022034283
1.4200000000	2.3216025564
1.4250000000	2.1336280594
1.4300000000	2.0646965240
1.4350000000	2.1027754139
1.4400000000	1.6193395644
1.4450000000	0.1388865805
1.4500000000	-2.2649678977
1.4550000000	-0.6353558160
1.4600000000	2.7416144513
1.4650000000	1.4845212770
1.4700000000	-1.4008224911
1.4750000000	-6.1322612580
1.4800000000	-2.7292018381
1.4850000000	4.4860654060
1.4900000000	3.6364161847
1.4950000000	2.3537647135
1.5000000000	1.6538090068
1.5050000000	1.2769045731
1.5100000000	1.0620792130
1.5150000000	0.9316142972
1.5200000000	0.8473348722
1.5250000000	0.7949684859
1.5300000000	0.7549652397
1.5350000000	0.7273898598
1.5400000000	0.7092241088
1.5450000000	0.6988483718
1.5500000000	0.6952170631
1.5550000000	0.6983562255
1.5600000000	0.7101275364
1.5650000000	0.7295738113
1.5700000000	0.7610639270
1.5750000000	0.8099260439
1.5800000000	0.8861647033
1.5850000000	1.0092543476
1.5900000000	1.2202246336
1.5950000000	1.6098708252
1.6000000000	2.3699781855
1.6050000000	3.6267774659
1.6100000000	4.2088216458
1.6150000000	3.1176683943
1.6200000000	2.0940584942
1.6250000000	1.5537435702
1.6300000000	1.2824598404
1.6350000000	1.1428024179
1.6400000000	1.0720251097
1.6450000000	1.0409650687
1.6500000000	1.0350187204
1.6550000000	1.0473450742
1.6600000000	1.0738616766
1.6650000000	1.1127045833
1.6700000000	1.1631655520
1.6750000000	1.2252495258
1.6800000000	1.2995121550
1.6850000000	1.3868151247
1.6900000000	1.4879209598
1.6950000000	1.6013965850
1.7000000000	1.7253432658
1.7050000000	1.8523912145
1.7100000000	1.9973766890
1.7150000000	2.3574890967
1.7200000000	2.9892034297
1.7250000000	3.5681185067
1.7300000000	4.1894940811
1.7350000000	4.8722379476
1.7400000000	5.5421043311
1.7450000000	6.4024842270
1.7500000000	7.7036241160
1.7550000000	9.6402621729
1.7600000000	12.5378455728
1.7650000000	17.0045013157
1.7700000000	24.1994992730
1.7750000000	36.3211930461
1.7800000000	56.9763001037
1.7850000000	87.4377086905
1.7900000000	108.6614827025
1.7950000000	92.5272218602
1.8000000000	61.5793517703
1.8050000000	38.8886994327
1.8100000000	25.6401948315
1.8150000000	17.8747304791
1.8200000000	13.0957596320
1.8250000000	9.9975375432
1.8300000000	7.8939515727
1.8350000000	6.4091517416
1.8400000000	5.3274034343
1.8450000000	4.5178375417
1.8500000000	3.8979776319
1.8550000000	3.4162159761
1.8600000000	3.0365511991
1.8650000000	2.7345157366
1.8700000000	2.4927071698
1.8750000000	2.2983485935
1.8800000000	2.1413040821
1.8850000000	2.0126159284
1.8900000000	1.9019609345
1.8950000000	1.7939340897
1.9000000000	1.6619349580
1.9050000000	1.4120992065
1.9100000000	1.0682286748
1.9150000000	0.8857678362
1.9200000000	2.1677270283
1.9250000000	5.7119789327
1.9300000000	8.5228299629
1.9350000000	8.3919021098
1.9400000000	6.6005683436
1.9450000000	4.8637985939
1.9500000000	3.6443784943
1.9550000000	2.8453706868
1.9600000000	2.3173578704
1.9650000000	1.9639514868
1.9700000000	1.7088160190
1.9750000000	1.5217920001
1.9800000000	1.3790074480
1.9850000000	1.2631428329
1.9900000000	1.1609456360
1.9950000000	1.0608499619
2.0000000000	0.9611693584
2.0050000000	0.8974902179
2.0100000000	0.9339801390
2.0150000000	1.0344961599
2.0200000000	1.0964800853
2.0250000000	1.1129579597
2.0300000000	1.1166849510
2.0350000000	1.1234532696
2.0400000000	1.1391322047
2.0450000000	1.1652192724
2.0500000000	1.2026868918
2.0550000000	1.2524183713
2.0600000000	1.3144144821
2.0650000000	1.3849175571
2.0700000000	1.4546087020
2.0750000000	1.5165034067
2.0800000000	1.5767618295
2.0850000000	1.6481252135
2.0900000000	1.7391331240
2.0950000000	1.8533802073
2.1000000000	1.9947310381
2.1050000000	2.1619042456
2.1100000000	2.3666488729
2.1150000000	2.6175533673
2.1200000000	2.9266626664
2.1250000000	3.3108719905
2.1300000000	3.7939970999
2.1350000000	4.4100398041
2.1400000000	5.2080974917
2.1450000000	6.2599510224
2.1500000000	7.6701876155
2.1550000000	9.5868264649
2.1600000000	12.1993088525
2.1650000000	15.6680675300
2.1700000000	19.9289268620
2.1750000000	24.1651276990
2.1800000000	26.7826270498
2.1850000000	26.9187985488
2.1900000000	25.7289894410
2.1950000000	24.8032232087
2.2000000000	24.3927835494
2.2050000000	23.2519055328
2.2100000000	20.8294445351
2.2150000000	17.8509038179
2.2200000000	15.1769683272
2.2250000000	12.9671594570
2.2300000000	11.0216097610
2.2350000000	9.2628265391
2.2400000000	7.7522395836
2.2450000000	6.5436072323
2.2500000000	5.6170736199
2.2550000000	4.9210217112
2.2600000000	4.3998206201
2.2650000000	3.9977314886
2.2700000000	3.6545090971
2.2750000000	3.3108073786
2.2800000000	2.9408268861
2.2850000000	2.5888183937
2.2900000000	2.3456148019
2.2950000000	2.2626188283
2.3000000000	2.2924209962
2.3050000000	2.3378588862
2.3100000000	2.3417203096
2.3150000000	2.3044724155
2.3200000000	2.2508816049
2.3250000000	2.2065283104
2.3300000000	2.1845020047
2.3350000000	2.1870534784
2.3400000000	2.2068571786
2.3450000000	2.2273310322
2.3500000000	2.2275945455
2.3550000000	2.1943261728
2.3600000000	2.1312960237
2.3650000000	2.0549783828
2.3700000000	1.9823542946
2.3750000000	1.9235650753
2.3800000000	1.8819036960
2.3850000000	1.8564356924
2.3900000000	1.8450337516
2.3950000000	1.8452345784
2.4000000000	1.8577098791
2.4050000000	1.8865672816
2.4100000000	1.9331845617
2.4150000000	1.9994684732
2.4200000000	2.0865653035
2.4250000000	2.1964793446
2.4300000000	2.3321329549
2.4350000000	2.4974462698
2.4400000000	2.6974778634
2.4450000000	2.9386866681
2.4500000000	3.2292217390
2.4550000000	3.5793257287
2.4600000000	4.0015831042
2.4650000000	4.5110928384
2.4700000000	5.1251719289
2.4750000000	5.8611669766
2.4800000000	6.7369936255
2.4850000000	7.7597449423
2.4900000000	8.9194258608
2.4950000000	10.1745360704
2.5000000000	11.4373057515
2.5050000000	12.6185637881
2.5100000000	13.4165647343
2.5150000000	13.6572761170
2.5200000000	13.2992373507
2.5250000000	12.4529723865
2.5300000000	11.3110093313
2.5350000000	10.0590220061
2.5400000000	8.8281756095
2.5450000000	7.6925740785
2.5500000000	6.6851669386
2.5550000000	5.8134533620
2.5600000000	5.0654474599
2.5650000000	4.4365623511
2.5700000000	3.9119933976
2.5750000000	3.4824729978
2.5800000000	3.1410785102
2.5850000000	2.8802839970
2.5900000000	2.6877107410
2.5950000000	2.5459551012
2.6000000000	2.4368960974
2.6050000000	2.3593895946
2.6100000000	2.2922776105
2.6150000000	2.2344964198
2.6200000000	2.1871878506
2.6250000000	2.1516166711
2.6300000000	2.1286273806
2.6350000000	2.1186508900
2.6400000000	2.1219373560
2.6450000000	2.1387197128
2.6500000000	2.1694537219
2.6550000000	2.2142669981
2.6600000000	2.2738473992
2.6650000000	2.3488897113
2.6700000000	2.4402474271
2.6750000000	2.5489549411
2.6800000000	2.6761586573
2.6850000000	2.8230314119
2.6900000000	2.9905340486
2.6950000000	3.1792241118
2.7000000000	3.3889111096
2.7050000000	3.6434445272
2.7100000000	3.9212371336
2.7150000000	4.2168815969
2.7200000000	4.5225125705
2.7250000000	4.8282481877
2.7300000000	5.1229367340
2.7350000000	5.3947988594
2.7400000000	5.6315821295
2.7450000000	5.8224088560
2.7500000000	5.9504068941
2.7550000000	6.0053609028
2.7600000000	5.9795196903
2.7650000000	5.8719807057
2.7700000000	5.6899522112
2.7750000000	5.4478775341
2.7800000000	5.1645828158
2.7850000000	4.8600401113
2.7900000000	4.5521690848
2.7950000000	4.2553396752
2.8000000000	3.9797128059
2.8050000000	3.7008422362
2.8100000000	3.4621643297
2.8150000000	3.2630388463
2.8200000000	3.1002604704
2.8250000000	2.9696045278
2.8300000000	2.8668153820
2.8350000000	2.7882510793
2.8400000000	2.7300776070
2.8450000000	2.6924285509
2.8500000000	2.6725175894
2.8550000000	2.6692830962
2.8600000000	2.6819323599
2.8650000000	2.7097513188
2.8700000000	2.7519412985
2.8750000000	2.8074891176
2.8800000000	2.8750665024
2.8850000000	2.9529460401
2.8900000000	3.0390513218
2.8950000000	3.1310338153
2.9000000000	3.2264236749
2.9050000000	3.3410591622
2.9100000000	3.4510358533
2.9150000000	3.5528938622
2.9200000000	3.6430016633
2.9250000000	3.7172385433
2.9300000000	3.7718101512
2.9350000000	3.8008165696
2.9400000000	3.8017109631
2.9450000000	3.7734082411
2.9500000000	3.7175415783
2.9550000000	3.6383574854
2.9600000000	3.5419855723
2.9650000000	3.4353712610
2.9700000000	3.3252308454
2.9750000000	3.2173041533
2.9800000000	3.1159892757
2.9850000000	3.0242869595
2.9900000000	2.9440020930
2.9950000000	2.8759820166
3.0000000000	2.8204050880
