# energy (eV)    P(omega), $W$ = 300 nm, $h$ = 300 nm, $s$ = 20 nm, $d/W = 5$, $E_{\rm e}$ = 200 keV
0.2000000000	0.1366190137
0.2050000000	0.1386995954
0.2100000000	0.1406331106
0.2150000000	0.1424244685
0.2200000000	0.1440780894
0.2250000000	0.1455976218
0.2300000000	0.1469859791
0.2350000000	0.1482451899
0.2400000000	0.1493762855
0.2450000000	0.1503791197
0.2500000000	0.1512522279
0.2550000000	0.1519924590
0.2600000000	0.1525949125
0.2650000000	0.1530523038
0.2700000000	0.1533547329
0.2750000000	0.1534889432
0.2800000000	0.1534376471
0.2850000000	0.1531785332
0.2900000000	0.1526830638
0.2950000000	0.1519148778
0.3000000000	0.1508275681
0.3050000000	0.1493619931
0.3100000000	0.1474424032
0.3150000000	0.1561254119
0.3200000000	0.1664370859
0.3250000000	0.1794883209
0.3300000000	0.1969829374
0.3350000000	0.2187528085
0.3400000000	0.2472597672
0.3450000000	0.2818053030
0.3500000000	0.3269779250
0.3550000000	0.3867184772
0.3600000000	0.4646612313
0.3650000000	0.5732658536
0.3700000000	0.7163243290
0.3750000000	0.9151657989
0.3800000000	1.2025297221
0.3850000000	1.6500059140
0.3900000000	2.3563581826
0.3950000000	3.5552499051
0.4000000000	5.8391357475
0.4050000000	10.9559470786
0.4100000000	24.9071588586
0.4150000000	79.8558805283
0.4200000000	50.9136298033
0.4250000000	-95.5680637767
0.4300000000	26.5230315103
0.4350000000	16.5065115848
0.4400000000	10.0754624511
0.4450000000	6.6163002107
0.4500000000	4.6263269110
0.4550000000	3.4024965252
0.4600000000	2.6058990832
0.4650000000	2.0633601877
0.4700000000	1.6800818808
0.4750000000	1.4029803581
0.4800000000	1.1975738254
0.4850000000	1.0430099034
0.4900000000	0.9249960145
0.4950000000	0.8339416932
0.5000000000	0.7632903854
0.5050000000	0.7082366609
0.5100000000	0.6656809371
0.5150000000	0.6333389993
0.5200000000	0.6088383769
0.5250000000	0.5910970647
0.5300000000	0.5789646998
0.5350000000	0.5715963286
0.5400000000	0.5683681682
0.5450000000	0.5687593764
0.5500000000	0.5725948128
0.5550000000	0.5795776136
0.5600000000	0.5895495730
0.5650000000	0.6024350972
0.5700000000	0.6181612702
0.5750000000	0.6368355597
0.5800000000	0.6586318638
0.5850000000	0.6836613679
0.5900000000	0.7121471845
0.5950000000	0.7443750123
0.6000000000	0.7807074205
0.6050000000	0.8216793734
0.6100000000	0.8677944743
0.6150000000	0.9197463567
0.6200000000	0.9784610117
0.6250000000	1.0448252498
0.6300000000	1.1201525725
0.6350000000	1.2060795369
0.6400000000	1.3043068257
0.6450000000	1.4172934303
0.6500000000	1.5482698980
0.6550000000	1.7005972411
0.6600000000	1.8794458916
0.6650000000	2.0914429752
0.6700000000	2.3443783014
0.6750000000	2.6501369197
0.6800000000	3.0246938468
0.6850000000	3.4889682036
0.6900000000	4.0753581162
0.6950000000	4.8291648041
0.7000000000	5.8223368490
0.7050000000	7.1648362238
0.7100000000	9.0429447920
0.7150000000	11.7882193165
0.7200000000	16.0177442835
0.7250000000	23.0356995927
0.7300000000	35.9120771641
0.7350000000	63.4524391977
0.7400000000	138.9504903373
0.7450000000	460.6003570012
0.7500000000	1425.8096532922
0.7550000000	358.4080523619
0.7600000000	118.6017204809
0.7650000000	56.7817549238
0.7700000000	32.9957572231
0.7750000000	21.5181004727
0.7800000000	15.1309968166
0.7850000000	11.2287254417
0.7900000000	8.6680787935
0.7950000000	6.9027291857
0.8000000000	5.6341552867
0.8050000000	4.6897008326
0.8100000000	3.9697640523
0.8150000000	3.3993062427
0.8200000000	2.9492321831
0.8250000000	2.5869549484
0.8300000000	2.2902963591
0.8350000000	2.0464487157
0.8400000000	1.8420929897
0.8450000000	1.6706512717
0.8500000000	1.5257515964
0.8550000000	1.4007462353
0.8600000000	1.2940382968
0.8650000000	1.2028790126
0.8700000000	1.1223549722
0.8750000000	1.0538259322
0.8800000000	0.9956324560
0.8850000000	0.9434638218
0.8900000000	0.9015136378
0.8950000000	0.8633546527
0.9000000000	0.8329986753
0.9050000000	0.8118806484
0.9100000000	0.7925136770
0.9150000000	0.7805010339
0.9200000000	0.7784217294
0.9250000000	0.7767368173
0.9300000000	0.7648176719
0.9350000000	0.7304686963
0.9400000000	0.5417295769
0.9450000000	-0.3137616536
0.9500000000	-4.8235728555
0.9550000000	-27.6802574791
0.9600000000	6.5284634620
0.9650000000	11.4586593832
0.9700000000	5.0799360579
0.9750000000	2.6665083446
0.9800000000	1.6714039618
0.9850000000	1.2061152887
0.9900000000	0.9381535243
0.9950000000	0.7757164320
1.0000000000	0.6720134544
1.0050000000	0.6062377529
1.0100000000	0.5552952347
1.0150000000	0.5180939739
1.0200000000	0.4930211032
1.0250000000	0.4720231701
1.0300000000	0.4560987611
1.0350000000	0.4440858170
1.0400000000	0.4364731909
1.0450000000	0.4302029058
1.0500000000	0.4261357019
1.0550000000	0.4240237798
1.0600000000	0.4244144100
1.0650000000	0.4257823598
1.0700000000	0.4287536690
1.0750000000	0.4333413857
1.0800000000	0.4399587932
1.0850000000	0.4483505144
1.0900000000	0.4606496087
1.0950000000	0.4752369818
1.1000000000	0.4925867206
1.1050000000	0.5126166192
1.1100000000	0.5359410049
1.1150000000	0.5630897600
1.1200000000	0.5946713939
1.1250000000	0.6315661075
1.1300000000	0.6748534703
1.1350000000	0.7259112628
1.1400000000	0.7862864658
1.1450000000	0.8588948643
1.1500000000	0.9468317209
1.1550000000	1.0546061448
1.1600000000	1.1885801600
1.1650000000	1.3569868232
1.1700000000	1.5753507942
1.1750000000	1.8641914232
1.1800000000	2.2574620700
1.1850000000	2.8109954836
1.1900000000	3.6298954194
1.1950000000	4.9162281157
1.2000000000	7.0988927227
1.2050000000	11.2243572376
1.2100000000	20.2995576749
1.2150000000	44.8231730445
1.2200000000	110.0207251287
1.2250000000	98.7526390283
1.2300000000	39.3021558504
1.2350000000	18.3627058641
1.2400000000	10.4300601314
1.2450000000	6.7837161220
1.2500000000	4.8551129978
1.2550000000	3.7362656479
1.2600000000	3.0487548900
1.2650000000	2.6103925309
1.2700000000	2.3389060091
1.2750000000	2.1808194038
1.2800000000	2.1098367473
1.2850000000	2.1133697651
1.2900000000	2.1881921047
1.2950000000	2.3376004513
1.3000000000	2.5816607063
1.3050000000	2.9457629047
1.3100000000	3.4788483762
1.3150000000	4.2660061655
1.3200000000	5.4608370720
1.3250000000	7.3556431668
1.3300000000	10.5926794978
1.3350000000	16.6589781099
1.3400000000	29.6254530745
1.3450000000	61.8075149570
1.3500000000	131.0311923143
1.3550000000	122.1229243261
1.3600000000	56.2959891856
1.3650000000	27.6574582946
1.3700000000	15.8626062812
1.3750000000	10.2032856046
1.3800000000	7.1177118696
1.3850000000	5.2587818838
1.3900000000	4.0601454444
1.3950000000	3.2419282332
1.4000000000	2.6590738774
1.4050000000	2.2298982051
1.4100000000	1.9044887911
1.4150000000	1.6522770598
1.4200000000	1.4505157418
1.4250000000	1.2889169551
1.4300000000	1.1581909171
1.4350000000	1.0252792886
1.4400000000	0.6044650544
1.4450000000	-0.4853176574
1.4500000000	-2.4789226030
1.4550000000	-0.9002752432
1.4600000000	2.2618955257
1.4650000000	1.3763897051
1.4700000000	-0.5874883391
1.4750000000	-3.5897226451
1.4800000000	-1.5647020036
1.4850000000	2.8178669012
1.4900000000	2.2796803294
1.4950000000	1.4853618332
1.5000000000	1.0505835070
1.5050000000	0.8143975732
1.5100000000	0.6789940185
1.5150000000	0.5956519849
1.5200000000	0.5408314834
1.5250000000	0.5059375774
1.5300000000	0.4782149596
1.5350000000	0.4579242754
1.5400000000	0.4430636814
1.5450000000	0.4324102831
1.5500000000	0.4251620424
1.5550000000	0.4209133251
1.5600000000	0.4203456881
1.5650000000	0.4218942081
1.5700000000	0.4269834681
1.5750000000	0.4365827208
1.5800000000	0.4526586174
1.5850000000	0.4790845934
1.5900000000	0.5240299353
1.5950000000	0.6054463791
1.6000000000	0.7607433280
1.6050000000	1.0121470015
1.6100000000	1.1236729271
1.6150000000	0.9076915674
1.6200000000	0.7124080667
1.6250000000	0.6155714735
1.6300000000	0.5732535978
1.6350000000	0.5581303595
1.6400000000	0.5579664303
1.6450000000	0.5672277680
1.6500000000	0.5833016224
1.6550000000	0.6050967893
1.6600000000	0.6321907656
1.6650000000	0.6646333182
1.6700000000	0.7027931911
1.6750000000	0.7473116305
1.6800000000	0.7990986922
1.6850000000	0.8593658129
1.6900000000	0.9296672108
1.6950000000	1.0114801497
1.7000000000	1.1079220430
1.7050000000	1.2246770903
1.7100000000	1.3684829670
1.7150000000	1.5726453021
1.7200000000	1.8555385834
1.7250000000	2.1984751342
1.7300000000	2.6291732456
1.7350000000	3.0894251641
1.7400000000	3.4957579720
1.7450000000	4.0010416040
1.7500000000	4.7849572590
1.7550000000	5.9683215441
1.7600000000	7.7477523539
1.7650000000	10.4946193872
1.7700000000	14.9193715911
1.7750000000	22.3695450247
1.7800000000	35.0520836199
1.7850000000	53.7258435118
1.7900000000	66.6738387735
1.7950000000	56.6840300589
1.8000000000	37.6556097764
1.8050000000	23.7296132121
1.8100000000	15.6067052043
1.8150000000	10.8486224443
1.8200000000	7.9213468968
1.8250000000	6.0233985817
1.8300000000	4.7338750225
1.8350000000	3.8222824751
1.8400000000	3.1563560321
1.8450000000	2.6556967435
1.8500000000	2.2695652510
1.8550000000	1.9661292299
1.8600000000	1.7228786585
1.8650000000	1.5242582406
1.8700000000	1.3587841323
1.8750000000	1.2174524762
1.8800000000	1.0923461167
1.8850000000	0.9754356524
1.8900000000	0.8565169397
1.8950000000	0.7200740479
1.9000000000	0.5399946036
1.9050000000	0.2334891579
1.9100000000	-0.2115799255
1.9150000000	-0.6909265701
1.9200000000	-0.4766582996
1.9250000000	0.9235906068
1.9300000000	2.0483298273
1.9350000000	2.1396389565
1.9400000000	1.7637760806
1.9450000000	1.3839955546
1.9500000000	1.1109207737
1.9550000000	0.9277051106
1.9600000000	0.8040909416
1.9650000000	0.7222521240
1.9700000000	0.6602768160
1.9750000000	0.6147919724
1.9800000000	0.5805327418
1.9850000000	0.5537799691
1.9900000000	0.5318834392
1.9950000000	0.5126964153
2.0000000000	0.4957010814
2.0050000000	0.4870422350
2.0100000000	0.4949874585
2.0150000000	0.5139826270
2.0200000000	0.5289354433
2.0250000000	0.5391315183
2.0300000000	0.5500182248
2.0350000000	0.5639454540
2.0400000000	0.5827067308
2.0450000000	0.6074696241
2.0500000000	0.6396377525
2.0550000000	0.6806346313
2.0600000000	0.7305281069
2.0650000000	0.7845784529
2.0700000000	0.8310271247
2.0750000000	0.8605351484
2.0800000000	0.8794781563
2.0850000000	0.9020957826
2.0900000000	0.9372032809
2.0950000000	0.9874950931
2.1000000000	1.0544206259
2.1050000000	1.1364491717
2.1100000000	1.2393037975
2.1150000000	1.3669575647
2.1200000000	1.5253070347
2.1250000000	1.7228285476
2.1300000000	1.9716080654
2.1350000000	2.2889805249
2.1400000000	2.7000028174
2.1450000000	3.2413002837
2.1500000000	3.9661889055
2.1550000000	4.9500262482
2.1600000000	6.2891615240
2.1650000000	8.0650743678
2.1700000000	10.2469021331
2.1750000000	12.4243903069
2.1800000000	13.8011557882
2.1850000000	13.9561666072
2.1900000000	13.4822529883
2.1950000000	13.1676371040
2.2000000000	13.0770511774
2.2050000000	12.4481386668
2.2100000000	10.9612926471
2.2150000000	9.0726587508
2.2200000000	7.3446128257
2.2250000000	5.9605540661
2.2300000000	4.8711977278
2.2350000000	4.0059681390
2.2400000000	3.3195117869
2.2450000000	2.7837212684
2.2500000000	2.3658673859
2.2550000000	2.0361832334
2.2600000000	1.7698227880
2.2650000000	1.5461142504
2.2700000000	1.3476894203
2.2750000000	1.1623592101
2.2800000000	0.9909876632
2.2850000000	0.8550891923
2.2900000000	0.7865307420
2.2950000000	0.7962948107
2.3000000000	0.8529434202
2.3050000000	0.9083041034
2.3100000000	0.9322008982
2.3150000000	0.9261657933
2.3200000000	0.9034106584
2.3250000000	0.8774230776
2.3300000000	0.8554917613
2.3350000000	0.8401430366
2.3400000000	0.8308540381
2.3450000000	0.8249214699
2.3500000000	0.8187360970
2.3550000000	0.8099899036
2.3600000000	0.7993230303
2.3650000000	0.7895349740
2.3700000000	0.7834010313
2.3750000000	0.7822773421
2.3800000000	0.7859335868
2.3850000000	0.7929779033
2.3900000000	0.8018597886
2.3950000000	0.8112532000
2.4000000000	0.8219496162
2.4050000000	0.8368976264
2.4100000000	0.8575961334
2.4150000000	0.8859458084
2.4200000000	0.9232394176
2.4250000000	0.9706530193
2.4300000000	1.0295057466
2.4350000000	1.1014510668
2.4400000000	1.1886163886
2.4450000000	1.2937463675
2.4500000000	1.4203341276
2.4550000000	1.5727989446
2.4600000000	1.7565979116
2.4650000000	1.9783339915
2.4700000000	2.2456556230
2.4750000000	2.5663484645
2.4800000000	2.9488338917
2.4850000000	3.3968988060
2.4900000000	3.9068348842
2.4950000000	4.4601980608
2.5000000000	5.0160125544
2.5050000000	5.5297181834
2.5100000000	5.8615847292
2.5150000000	5.9342384065
2.5200000000	5.7376753970
2.5250000000	5.3333966605
2.5300000000	4.8149669130
2.5350000000	4.2644548010
2.5400000000	3.7338414400
2.5450000000	3.2488175439
2.5500000000	2.8189828205
2.5550000000	2.4455568304
2.5600000000	2.1231217104
2.5650000000	1.8509708460
2.5700000000	1.6236741838
2.5750000000	1.4380176150
2.5800000000	1.2914909201
2.5850000000	1.1809842811
2.5900000000	1.1008836145
2.5950000000	1.0430615201
2.6000000000	0.9990173060
2.6050000000	0.9676043025
2.6100000000	0.9393982812
2.6150000000	0.9140523988
2.6200000000	0.8922000616
2.6250000000	0.8744640101
2.6300000000	0.8612202742
2.6350000000	0.8526318934
2.6400000000	0.8487843910
2.6450000000	0.8497743694
2.6500000000	0.8558092609
2.6550000000	0.8669239322
2.6600000000	0.8834099702
2.6650000000	0.9055249469
2.6700000000	0.9335723733
2.6750000000	0.9679123689
2.6800000000	1.0089457484
2.6850000000	1.0571102873
2.6900000000	1.1128290494
2.6950000000	1.1764855051
2.7000000000	1.2483453420
2.7050000000	1.3370614963
2.7100000000	1.4364949371
2.7150000000	1.5459632319
2.7200000000	1.6639911761
2.7250000000	1.7881211526
2.7300000000	1.9147384518
2.7350000000	2.0389183365
2.7400000000	2.1543459938
2.7450000000	2.2543549803
2.7500000000	2.3292681205
2.7550000000	2.3724382260
2.7600000000	2.3788729043
2.7650000000	2.3472878790
2.7700000000	2.2805600927
2.7750000000	2.1851447213
2.7800000000	2.0696030357
2.7850000000	1.9430427492
2.7900000000	1.8136002429
2.7950000000	1.6877896602
2.8000000000	1.5702057731
2.8050000000	1.4506406021
2.8100000000	1.3474270390
2.8150000000	1.2603296615
2.8200000000	1.1879794290
2.8250000000	1.1285568030
2.8300000000	1.0802365181
2.8350000000	1.0414629626
2.8400000000	1.0105824151
2.8450000000	0.9877062856
2.8500000000	0.9716226364
2.8550000000	0.9618799101
2.8600000000	0.9581586523
2.8650000000	0.9602064900
2.8700000000	0.9677987739
2.8750000000	0.9807056185
2.8800000000	0.9986610946
2.8850000000	1.0213345343
2.8900000000	1.0483188240
2.8950000000	1.0791167239
2.9000000000	1.1131384235
2.9050000000	1.1578304035
2.9100000000	1.2037152356
2.9150000000	1.2490233792
2.9200000000	1.2916268940
2.9250000000	1.3290584746
2.9300000000	1.3589991890
2.9350000000	1.3783618621
2.9400000000	1.3856000814
2.9450000000	1.3799219538
2.9500000000	1.3617935555
2.9550000000	1.3328688153
2.9600000000	1.2956668728
2.9650000000	1.2531101904
2.9700000000	1.2080665608
2.9750000000	1.1630242598
2.9800000000	1.1199130860
2.9850000000	1.0800792820
2.9900000000	1.0443513081
2.9950000000	1.0131511786
3.0000000000	0.9866149647
