# energy (eV)    P(omega), $W$ = 400 nm, $h$ = 300 nm, $s$ = 20 nm, $d/W = 5$, $E_{\rm e}$ = 200 keV
0.2000000000	0.0434873324
0.2050000000	0.0438829201
0.2100000000	0.0441614399
0.2150000000	0.0443182012
0.2200000000	0.0443466449
0.2250000000	0.0442378603
0.2300000000	0.0439801226
0.2350000000	0.0435581660
0.2400000000	0.0429523577
0.2450000000	0.0421373953
0.2500000000	0.0410809293
0.2550000000	0.0397413358
0.2600000000	0.0380649758
0.2650000000	0.0398214224
0.2700000000	0.0442830925
0.2750000000	0.0506676109
0.2800000000	0.0595630632
0.2850000000	0.0726772981
0.2900000000	0.0889267868
0.2950000000	0.1122218153
0.3000000000	0.1435370171
0.3050000000	0.1915357710
0.3100000000	0.2583965996
0.3150000000	0.3877693321
0.3200000000	0.5898245396
0.3250000000	0.7281604605
0.3300000000	0.9195237765
0.3350000000	1.1908088662
0.3400000000	1.6166718210
0.3450000000	2.3473162738
0.3500000000	3.8042851658
0.3550000000	7.1769883338
0.3600000000	17.6383443481
0.3650000000	0.0796868783
0.3700000000	8.1747628046
0.3750000000	10.7495038020
0.3800000000	5.0089021751
0.3850000000	2.8215623367
0.3900000000	1.8097841046
0.3950000000	1.2753182249
0.4000000000	0.9658628025
0.4050000000	0.7641195055
0.4100000000	0.6327801683
0.4150000000	0.5461546450
0.4200000000	0.4914056343
0.4250000000	0.4484072463
0.4300000000	0.3975984417
0.4350000000	0.3573862668
0.4400000000	0.3255829284
0.4450000000	0.3002955210
0.4500000000	0.2803312485
0.4550000000	0.2645001406
0.4600000000	0.2521505764
0.4650000000	0.2425933549
0.4700000000	0.2353722149
0.4750000000	0.2301679259
0.4800000000	0.2267019128
0.4850000000	0.2247299101
0.4900000000	0.2241074668
0.4950000000	0.2247234477
0.5000000000	0.2264828958
0.5050000000	0.2293434855
0.5100000000	0.2332705430
0.5150000000	0.2382434630
0.5200000000	0.2442725511
0.5250000000	0.2513662603
0.5300000000	0.2596287328
0.5350000000	0.2691062657
0.5400000000	0.2798822272
0.5450000000	0.2920659458
0.5500000000	0.3058121052
0.5550000000	0.3212899026
0.5600000000	0.3387052815
0.5650000000	0.3583230608
0.5700000000	0.3805088143
0.5750000000	0.4055334897
0.5800000000	0.4339040618
0.5850000000	0.4663132228
0.5900000000	0.5032282038
0.5950000000	0.5456321768
0.6000000000	0.5948240396
0.6050000000	0.6517772903
0.6100000000	0.7187235319
0.6150000000	0.7975133442
0.6200000000	0.8913234801
0.6250000000	1.0047115014
0.6300000000	1.1423253527
0.6350000000	1.3128989044
0.6400000000	1.5260679509
0.6450000000	1.7993179992
0.6500000000	2.1549849574
0.6550000000	2.6309036552
0.6600000000	3.2909574357
0.6650000000	4.2360763841
0.6700000000	5.6672111985
0.6750000000	7.9682586572
0.6800000000	12.0357912149
0.6850000000	20.1975536544
0.6900000000	40.4790844147
0.6950000000	113.6307170150
0.7000000000	551.1180228224
0.7050000000	267.9393619645
0.7100000000	68.8279756845
0.7150000000	29.2695230273
0.7200000000	15.9844585432
0.7250000000	10.0410967540
0.7300000000	6.8868048911
0.7350000000	5.0221466851
0.7400000000	3.8280877068
0.7450000000	3.0176079190
0.7500000000	2.4434794400
0.7550000000	2.0216840849
0.7600000000	1.7037675619
0.7650000000	1.4572279202
0.7700000000	1.2626101886
0.7750000000	1.1063686118
0.7800000000	0.9794014646
0.7850000000	0.8748570428
0.7900000000	0.7872731159
0.7950000000	0.7141244594
0.8000000000	0.6519283914
0.8050000000	0.5986423095
0.8100000000	0.5532798715
0.8150000000	0.5135216073
0.8200000000	0.4789077934
0.8250000000	0.4498607327
0.8300000000	0.4244349302
0.8350000000	0.4023308777
0.8400000000	0.3847282297
0.8450000000	0.3693689617
0.8500000000	0.3563459057
0.8550000000	0.3481140008
0.8600000000	0.3415200451
0.8650000000	0.3367986303
0.8700000000	0.3384416584
0.8750000000	0.3390168330
0.8800000000	0.3371917000
0.8850000000	0.3225303674
0.8900000000	0.2502957792
0.8950000000	-0.1117073894
0.9000000000	-2.0528643976
0.9050000000	-13.4888590087
0.9100000000	2.5685444482
0.9150000000	6.0843964876
0.9200000000	2.5257499047
0.9250000000	1.3139681382
0.9300000000	0.8020776062
0.9350000000	0.5575131755
0.9400000000	0.4255810810
0.9450000000	0.3524518210
0.9500000000	0.3005182725
0.9550000000	0.2657544412
0.9600000000	0.2442543552
0.9650000000	0.2265142593
0.9700000000	0.2138553675
0.9750000000	0.2052277568
0.9800000000	0.1999746143
0.9850000000	0.1990101231
0.9900000000	0.2009228539
0.9950000000	0.2086521046
1.0000000000	0.2271332717
1.0050000000	0.2702832925
1.0100000000	0.3833689954
1.0150000000	0.7709507842
1.0200000000	1.4805114016
1.0250000000	0.6730868243
1.0300000000	0.3447628533
1.0350000000	0.2469071649
1.0400000000	0.2084259961
1.0450000000	0.1903732894
1.0500000000	0.1813237382
1.0550000000	0.1765756099
1.0600000000	0.1744437733
1.0650000000	0.1740437590
1.0700000000	0.1748852023
1.0750000000	0.1767954456
1.0800000000	0.1794320252
1.0850000000	0.1830204216
1.0900000000	0.1882059485
1.0950000000	0.1942514214
1.1000000000	0.2012160753
1.1050000000	0.2091124517
1.1100000000	0.2180655074
1.1150000000	0.2281943694
1.1200000000	0.2396404188
1.1250000000	0.2525206539
1.1300000000	0.2671687584
1.1350000000	0.2838096513
1.1400000000	0.3027801648
1.1450000000	0.3245086137
1.1500000000	0.3493283040
1.1550000000	0.3782770453
1.1600000000	0.4120110892
1.1650000000	0.4513900005
1.1700000000	0.4965920711
1.1750000000	0.5424354262
1.1800000000	0.5858205906
1.1850000000	0.8142051547
1.1900000000	1.0104305344
1.1950000000	1.3851457763
1.2000000000	1.8864725336
1.2050000000	1.6547586925
1.2100000000	1.5836314158
1.2150000000	1.7630354566
1.2200000000	2.1086064370
1.2250000000	2.6392942150
1.2300000000	3.4462428129
1.2350000000	4.7227512924
1.2400000000	6.8730302916
1.2450000000	10.9219916184
1.2500000000	19.6909006674
1.2550000000	42.6246240074
1.2600000000	102.9562392459
1.2650000000	104.2904013852
1.2700000000	43.3826837456
1.2750000000	20.0254897485
1.2800000000	11.0904758993
1.2850000000	6.9743522078
1.2900000000	4.7802825310
1.2950000000	3.4839416761
1.3000000000	2.6582298102
1.3050000000	2.1022806195
1.3100000000	1.7102468479
1.3150000000	1.4269829957
1.3200000000	1.2169991275
1.3250000000	1.0589786150
1.3300000000	0.9399738478
1.3350000000	0.8520400217
1.3400000000	0.7910523952
1.3450000000	0.7558798212
1.3500000000	0.7516530028
1.3550000000	0.7900524663
1.3600000000	0.9007987067
1.3650000000	1.1595222713
1.3700000000	1.7773900828
1.3750000000	3.3146959741
1.3800000000	5.4143230406
1.3850000000	3.7823166063
1.3900000000	1.9274940095
1.3950000000	1.1183972284
1.4000000000	0.7324378470
1.4050000000	0.4952269314
1.4100000000	0.2805309270
1.4150000000	-0.0397523417
1.4200000000	-0.7568162690
1.4250000000	-2.6568444188
1.4300000000	-3.5723013886
1.4350000000	1.6366183814
1.4400000000	2.0934861661
1.4450000000	1.2551358796
1.4500000000	0.7809963546
1.4550000000	0.5383750209
1.4600000000	0.3975582320
1.4650000000	0.2862698212
1.4700000000	0.1672308094
1.4750000000	0.1965229901
1.4800000000	0.2881118685
1.4850000000	0.2616151056
1.4900000000	0.2316540348
1.4950000000	0.2122749698
1.5000000000	0.1995444823
1.5050000000	0.1911270628
1.5100000000	0.1854007968
1.5150000000	0.1822762788
1.5200000000	0.1799729748
1.5250000000	0.1791418573
1.5300000000	0.1798594155
1.5350000000	0.1824541507
1.5400000000	0.1877456627
1.5450000000	0.1975541790
1.5500000000	0.2159708980
1.5550000000	0.2511507327
1.5600000000	0.3039579880
1.5650000000	0.3124211105
1.5700000000	0.2647683942
1.5750000000	0.2313297748
1.5800000000	0.2169053472
1.5850000000	0.2123674101
1.5900000000	0.2129568477
1.5950000000	0.2166069016
1.6000000000	0.2224171511
1.6050000000	0.2300776327
1.6100000000	0.2393568873
1.6150000000	0.2502204645
1.6200000000	0.2628414253
1.6250000000	0.2773690640
1.6300000000	0.2940487388
1.6350000000	0.3131967640
1.6400000000	0.3352176175
1.6450000000	0.3606278957
1.6500000000	0.3900760489
1.6550000000	0.4243838452
1.6600000000	0.4646159690
1.6650000000	0.5121467008
1.6700000000	0.5683122709
1.6750000000	0.6363918024
1.6800000000	0.7192837753
1.6850000000	0.8215480295
1.6900000000	0.9496586847
1.6950000000	1.1131162836
1.7000000000	1.3262227956
1.7050000000	1.6202090509
1.7100000000	2.0303723688
1.7150000000	2.6265538247
1.7200000000	3.5351552316
1.7250000000	4.9766163544
1.7300000000	7.1917478193
1.7350000000	10.0344735163
1.7400000000	13.6281124605
1.7450000000	19.9343541394
1.7500000000	28.1204461848
1.7550000000	28.5728026176
1.7600000000	20.0456466502
1.7650000000	12.4865706371
1.7700000000	8.0043840035
1.7750000000	5.4556468720
1.7800000000	3.9494517497
1.7850000000	3.0229549131
1.7900000000	2.4483859709
1.7950000000	2.1196241953
1.8000000000	1.9869265042
1.8050000000	1.9449134745
1.8100000000	1.7304131609
1.8150000000	1.3408225808
1.8200000000	1.0295667859
1.8250000000	0.8690844624
1.8300000000	0.7566283565
1.8350000000	0.6566859402
1.8400000000	0.5751902965
1.8450000000	0.5105183487
1.8500000000	0.4583995047
1.8550000000	0.4153433887
1.8600000000	0.3757375853
1.8650000000	0.3422544135
1.8700000000	0.3084144147
1.8750000000	0.2596313038
1.8800000000	0.1484318152
1.8850000000	-0.0952830123
1.8900000000	-0.4230942865
1.8950000000	-0.4793402576
1.9000000000	0.0512943457
1.9050000000	0.5460345912
1.9100000000	0.6037642756
1.9150000000	0.5100686930
1.9200000000	0.4182383345
1.9250000000	0.3530750783
1.9300000000	0.3136117562
1.9350000000	0.2834829163
1.9400000000	0.2634399736
1.9450000000	0.2501720748
1.9500000000	0.2408980135
1.9550000000	0.2331384914
1.9600000000	0.2264392593
1.9650000000	0.2216824386
1.9700000000	0.2191422871
1.9750000000	0.2186497735
1.9800000000	0.2200679256
1.9850000000	0.2234379359
1.9900000000	0.2289810496
1.9950000000	0.2369740198
2.0000000000	0.2472089908
2.0050000000	0.2588200419
2.0100000000	0.2671491394
2.0150000000	0.2727046373
2.0200000000	0.2794035613
2.0250000000	0.2897435151
2.0300000000	0.3044595158
2.0350000000	0.3239195429
2.0400000000	0.3487917726
2.0450000000	0.3802355432
2.0500000000	0.4199158684
2.0550000000	0.4696830524
2.0600000000	0.5304344748
2.0650000000	0.6012149913
2.0700000000	0.6830878241
2.0750000000	0.7851861307
2.0800000000	0.9225886510
2.0850000000	1.1099972702
2.0900000000	1.3559621792
2.0950000000	1.6428119229
2.1000000000	1.8984754433
2.1050000000	2.0223613179
2.1100000000	1.9635313351
2.1150000000	1.8281539474
2.1200000000	1.7324688564
2.1250000000	1.7283892006
2.1300000000	1.8313167406
2.1350000000	2.0534589207
2.1400000000	2.4192665168
2.1450000000	2.9719965477
2.1500000000	3.7722230019
2.1550000000	4.8654463412
2.1600000000	6.1635054674
2.1650000000	7.2545015672
2.1700000000	7.5122885664
2.1750000000	6.7247131904
2.1800000000	5.4290382599
2.1850000000	4.1887584637
2.1900000000	3.2190435292
2.1950000000	2.5184539213
2.2000000000	2.0269330584
2.2050000000	1.6878253802
2.2100000000	1.4524161831
2.2150000000	1.2718550363
2.2200000000	1.1100597317
2.2250000000	0.9561651701
2.2300000000	0.8168237857
2.2350000000	0.6971798230
2.2400000000	0.5958456676
2.2450000000	0.5083475733
2.2500000000	0.4302324493
2.2550000000	0.3590097655
2.2600000000	0.2877857354
2.2650000000	0.2359718679
2.2700000000	0.2078263660
2.2750000000	0.2149113139
2.2800000000	0.2557897137
2.2850000000	0.3078437765
2.2900000000	0.3459461454
2.2950000000	0.3628333564
2.3000000000	0.3647644344
2.3050000000	0.3589367584
2.3100000000	0.3512604090
2.3150000000	0.3444587681
2.3200000000	0.3396085438
2.3250000000	0.3373010012
2.3300000000	0.3380144986
2.3350000000	0.3421452943
2.3400000000	0.3500319159
2.3450000000	0.3620169086
2.3500000000	0.3784631826
2.3550000000	0.3999147961
2.3600000000	0.4260195181
2.3650000000	0.4569397687
2.3700000000	0.4925895670
2.3750000000	0.5333559145
2.3800000000	0.5807103771
2.3850000000	0.6363990926
2.3900000000	0.7008081732
2.3950000000	0.7710695998
2.4000000000	0.8398103896
2.4050000000	0.8990498240
2.4100000000	0.9318849440
2.4150000000	0.9350238233
2.4200000000	0.9164940036
2.4250000000	0.8899845354
2.4300000000	0.8676447644
2.4350000000	0.8568086202
2.4400000000	0.8604027294
2.4450000000	0.8789000407
2.4500000000	0.9123597630
2.4550000000	0.9615274950
2.4600000000	1.0295552991
2.4650000000	1.1196743951
2.4700000000	1.2354829846
2.4750000000	1.3792283990
2.4800000000	1.5497764845
2.4850000000	1.7398504151
2.4900000000	1.9328046338
2.4950000000	2.1010167360
2.5000000000	2.2099213185
2.5050000000	2.2239222064
2.5100000000	2.1288061256
2.5150000000	1.9505351976
2.5200000000	1.7305923132
2.5250000000	1.5054213076
2.5300000000	1.2972369357
2.5350000000	1.1153730933
2.5400000000	0.9612039236
2.5450000000	0.8324420778
2.5500000000	0.7257728241
2.5550000000	0.6382179149
2.5600000000	0.5650070497
2.5650000000	0.5102175246
2.5700000000	0.4708496398
2.5750000000	0.4454994318
2.5800000000	0.4313531330
2.5850000000	0.4245624360
2.5900000000	0.4215157928
2.5950000000	0.4199643216
2.6000000000	0.4191829089
2.6050000000	0.4225252283
2.6100000000	0.4278208863
2.6150000000	0.4358807493
2.6200000000	0.4471356217
2.6250000000	0.4616120444
2.6300000000	0.4789013957
2.6350000000	0.4981364212
2.6400000000	0.5179920093
2.6450000000	0.5367878120
2.6500000000	0.5527442494
2.6550000000	0.5644022494
2.6600000000	0.5710840573
2.6650000000	0.5731877631
2.6700000000	0.5721030899
2.6750000000	0.5698614830
2.6800000000	0.5684313874
2.6850000000	0.5696519220
2.6900000000	0.5748038599
2.6950000000	0.5846743123
2.7000000000	0.5996406779
2.7050000000	0.6220434234
2.7100000000	0.6508747807
2.7150000000	0.6856686406
2.7200000000	0.7254615047
2.7250000000	0.7686178026
2.7300000000	0.8126683491
2.7350000000	0.8542841701
2.7400000000	0.8895054852
2.7450000000	0.9143117784
2.7500000000	0.9254624571
2.7550000000	0.9213248521
2.7600000000	0.9023161034
2.7650000000	0.8707525806
2.7700000000	0.8301788399
2.7750000000	0.7845220137
2.7800000000	0.7373831176
2.7850000000	0.6916428834
2.7900000000	0.6489713996
2.7950000000	0.6111962136
2.8000000000	0.5786954066
2.8050000000	0.5485935698
2.8100000000	0.5248603007
2.8150000000	0.5065612615
2.8200000000	0.4926814390
2.8250000000	0.4822894219
2.8300000000	0.4745935879
2.8350000000	0.4689373128
2.8400000000	0.4647657616
2.8450000000	0.4616078726
2.8500000000	0.4590853843
2.8550000000	0.4569471850
2.8600000000	0.4551082595
2.8650000000	0.4536622463
2.8700000000	0.4528576489
2.8750000000	0.4530362507
2.8800000000	0.4545574307
2.8850000000	0.4577299010
2.8900000000	0.4627641694
2.8950000000	0.4697438726
2.9000000000	0.4786116677
2.9050000000	0.4918760331
2.9100000000	0.5064219589
2.9150000000	0.5212782763
2.9200000000	0.5352176373
2.9250000000	0.5469215723
2.9300000000	0.5551659194
2.9350000000	0.5590353875
2.9400000000	0.5581006804
2.9450000000	0.5525004733
2.9500000000	0.5428895630
2.9550000000	0.5302719787
2.9600000000	0.5157893719
2.9650000000	0.5005231431
2.9700000000	0.4853626235
2.9750000000	0.4709474135
2.9800000000	0.4576712898
2.9850000000	0.4457247284
2.9900000000	0.4351520271
2.9950000000	0.4259068273
3.0000000000	0.4178974296
