# energy (eV)    P(omega), $W$ = 300 nm, $h$ = 300 nm, $s$ = 20 nm, $d/W = 5$, $E_{\rm e}$ = 200 keV
0.2000000000	0.0546363958
0.2050000000	0.0554684059
0.2100000000	0.0562415867
0.2150000000	0.0569579028
0.2200000000	0.0576191227
0.2250000000	0.0582267063
0.2300000000	0.0587818197
0.2350000000	0.0592852748
0.2400000000	0.0597374847
0.2450000000	0.0601383917
0.2500000000	0.0604874105
0.2550000000	0.0607832816
0.2600000000	0.0610240456
0.2650000000	0.0612067896
0.2700000000	0.0613275552
0.2750000000	0.0613810408
0.2800000000	0.0613603334
0.2850000000	0.0612565106
0.2900000000	0.0610581600
0.2950000000	0.0607507404
0.3000000000	0.0603156933
0.3050000000	0.0597293673
0.3100000000	0.0589614694
0.3150000000	0.0624339033
0.3200000000	0.0665576613
0.3250000000	0.0717770166
0.3300000000	0.0787733614
0.3350000000	0.0874794364
0.3400000000	0.0988797691
0.3450000000	0.1126949794
0.3500000000	0.1307600809
0.3550000000	0.1546510522
0.3600000000	0.1858212374
0.3650000000	0.2292533881
0.3700000000	0.2864638455
0.3750000000	0.3659822820
0.3800000000	0.4809013757
0.3850000000	0.6598503019
0.3900000000	0.9423249871
0.3950000000	1.4217682231
0.4000000000	2.3351045870
0.4050000000	4.3813366523
0.4100000000	9.9604664571
0.4150000000	31.9345698631
0.4200000000	20.3604840921
0.4250000000	-38.2176668897
0.4300000000	10.6065113951
0.4350000000	6.6008999525
0.4400000000	4.0291289148
0.4450000000	2.6458159078
0.4500000000	1.8500305929
0.4550000000	1.3606247956
0.4600000000	1.0420686129
0.4650000000	0.8251097691
0.4700000000	0.6718387234
0.4750000000	0.5610273429
0.4800000000	0.4788864499
0.4850000000	0.4170772314
0.4900000000	0.3698841341
0.4950000000	0.3334719662
0.5000000000	0.3052187881
0.5050000000	0.2832029294
0.5100000000	0.2661848779
0.5150000000	0.2532511803
0.5200000000	0.2434531073
0.5250000000	0.2363579618
0.5300000000	0.2315057201
0.5350000000	0.2285584871
0.5400000000	0.2272668128
0.5450000000	0.2274224125
0.5500000000	0.2289552391
0.5550000000	0.2317465722
0.5600000000	0.2357331408
0.5650000000	0.2408847039
0.5700000000	0.2471720948
0.5750000000	0.2546382741
0.5800000000	0.2633527647
0.5850000000	0.2733600118
0.5900000000	0.2847492174
0.5950000000	0.2976346040
0.6000000000	0.3121611323
0.6050000000	0.3285426935
0.6100000000	0.3469806363
0.6150000000	0.3677522891
0.6200000000	0.3912278847
0.6250000000	0.4177619897
0.6300000000	0.4478797699
0.6350000000	0.4822355606
0.6400000000	0.5215093315
0.6450000000	0.5666842445
0.6500000000	0.6190519478
0.6550000000	0.6799562475
0.6600000000	0.7514644011
0.6650000000	0.8362260854
0.6700000000	0.9373558324
0.6750000000	1.0596055533
0.6800000000	1.2093624209
0.6850000000	1.3949903488
0.6900000000	1.6294428159
0.6950000000	1.9308322220
0.7000000000	2.3279251541
0.7050000000	2.8646867414
0.7100000000	3.6155963950
0.7150000000	4.7132174510
0.7200000000	6.4042730346
0.7250000000	9.2102010659
0.7300000000	14.3584467911
0.7350000000	25.3696514219
0.7400000000	55.5553020070
0.7450000000	184.1573081878
0.7500000000	570.0664793738
0.7550000000	143.2982828411
0.7600000000	47.4191212875
0.7650000000	22.7023396179
0.7700000000	13.1922600745
0.7750000000	8.6032856215
0.7800000000	6.0496084397
0.7850000000	4.4894124927
0.7900000000	3.4656222942
0.7950000000	2.7598059731
0.8000000000	2.2526092984
0.8050000000	1.8750012012
0.8100000000	1.5871590987
0.8150000000	1.3590812674
0.8200000000	1.1791348415
0.8250000000	1.0342910174
0.8300000000	0.9156825842
0.8350000000	0.8181887999
0.8400000000	0.7364844993
0.8450000000	0.6679397185
0.8500000000	0.6100068376
0.8550000000	0.5600280072
0.8600000000	0.5173647415
0.8650000000	0.4809180347
0.8700000000	0.4487234591
0.8750000000	0.4213246252
0.8800000000	0.3980580646
0.8850000000	0.3772003249
0.8900000000	0.3604279990
0.8950000000	0.3451714540
0.9000000000	0.3330345977
0.9050000000	0.3245911045
0.9100000000	0.3168477140
0.9150000000	0.3120445939
0.9200000000	0.3112128112
0.9250000000	0.3105387253
0.9300000000	0.3057730823
0.9350000000	0.2920402119
0.9400000000	0.2165834067
0.9450000000	-0.1254351963
0.9500000000	-1.9284181255
0.9550000000	-11.0663069723
0.9600000000	2.6100180485
0.9650000000	4.5810556803
0.9700000000	2.0309055733
0.9750000000	1.0660422335
0.9800000000	0.6682101340
0.9850000000	0.4821927534
0.9900000000	0.3750645942
0.9950000000	0.3101240459
1.0000000000	0.2686647384
1.0050000000	0.2423683046
1.0100000000	0.2220020356
1.0150000000	0.2071293649
1.0200000000	0.1971054695
1.0250000000	0.1887107062
1.0300000000	0.1823442834
1.0350000000	0.1775416230
1.0400000000	0.1744981518
1.0450000000	0.1719913493
1.0500000000	0.1703653194
1.0550000000	0.1695209948
1.0600000000	0.1696771583
1.0650000000	0.1702240612
1.0700000000	0.1714119779
1.0750000000	0.1732461228
1.0800000000	0.1758917189
1.0850000000	0.1792466909
1.0900000000	0.1841638210
1.0950000000	0.1899957972
1.1000000000	0.1969321533
1.1050000000	0.2049400395
1.1100000000	0.2142650573
1.1150000000	0.2251190519
1.1200000000	0.2377452983
1.1250000000	0.2524957178
1.1300000000	0.2698019161
1.1350000000	0.2902147277
1.1400000000	0.3143526296
1.1450000000	0.3433813729
1.1500000000	0.3785384346
1.1550000000	0.4216265596
1.1600000000	0.4751892875
1.1650000000	0.5425181858
1.1700000000	0.6298200451
1.1750000000	0.7452984934
1.1800000000	0.9025280890
1.1850000000	1.1238307812
1.1900000000	1.4512270043
1.1950000000	1.9655028560
1.2000000000	2.8381320449
1.2050000000	4.4874918970
1.2100000000	8.1157531895
1.2150000000	17.9202764592
1.2200000000	43.9861769074
1.2250000000	39.4811429832
1.2300000000	15.7128983752
1.2350000000	7.3413358145
1.2400000000	4.1698768413
1.2450000000	2.7120741013
1.2500000000	1.9410206196
1.2550000000	1.4937053403
1.2600000000	1.2188368768
1.2650000000	1.0435766526
1.2700000000	0.9350320134
1.2750000000	0.8718232341
1.2800000000	0.8434369302
1.2850000000	0.8448399014
1.2900000000	0.8747416307
1.2950000000	0.9344593804
1.3000000000	1.0320138987
1.3050000000	1.1775540945
1.3100000000	1.3906432995
1.3150000000	1.7052942794
1.3200000000	2.1829063596
1.3250000000	2.9403222781
1.3300000000	4.2342729117
1.3350000000	6.6591743851
1.3400000000	11.8423062888
1.3450000000	24.7065459841
1.3500000000	52.3775379095
1.3550000000	48.8165803059
1.3600000000	22.5033664569
1.3650000000	11.0555991572
1.3700000000	6.3408080925
1.3750000000	4.0785915434
1.3800000000	2.8451864012
1.3850000000	2.1021110755
1.3900000000	1.6229766960
1.3950000000	1.2959083672
1.4000000000	1.0629222300
1.4050000000	0.8913664412
1.4100000000	0.7612893108
1.4150000000	0.6604714640
1.4200000000	0.5798199241
1.4250000000	0.5152218943
1.4300000000	0.4629628396
1.4350000000	0.4098267465
1.4400000000	0.2416022566
1.4450000000	-0.1940458597
1.4500000000	-0.9910116766
1.4550000000	-0.3599177275
1.4600000000	0.9042136878
1.4650000000	0.5502378966
1.4700000000	-0.2348014565
1.4750000000	-1.4348897221
1.4800000000	-0.6254386627
1.4850000000	1.1263919941
1.4900000000	0.9112618877
1.4950000000	0.5937498466
1.5000000000	0.4199564161
1.5050000000	0.3255461122
1.5100000000	0.2714215413
1.5150000000	0.2381075473
1.5200000000	0.2161945362
1.5250000000	0.2022468988
1.5300000000	0.1911659498
1.5350000000	0.1830559299
1.5400000000	0.1771166850
1.5450000000	0.1728594473
1.5500000000	0.1699637073
1.5550000000	0.1682674460
1.5600000000	0.1680432966
1.5650000000	0.1686660080
1.5700000000	0.1707055226
1.5750000000	0.1745501158
1.5800000000	0.1809874277
1.5850000000	0.1915686943
1.5900000000	0.2095654982
1.5950000000	0.2421670309
1.6000000000	0.3043548085
1.6050000000	0.4050299491
1.6100000000	0.4496880548
1.6150000000	0.3631869220
1.6200000000	0.2849726519
1.6250000000	0.2461822100
1.6300000000	0.2292236716
1.6350000000	0.2231543806
1.6400000000	0.2230742450
1.6450000000	0.2267668213
1.6500000000	0.2331855527
1.6550000000	0.2418931085
1.6600000000	0.2527199390
1.6650000000	0.2656855408
1.6700000000	0.2809370594
1.6750000000	0.2987306441
1.6800000000	0.3194299517
1.6850000000	0.3435191039
1.6900000000	0.3716192532
1.6950000000	0.4043206984
1.7000000000	0.4428691850
1.7050000000	0.4895360045
1.7100000000	0.5470141738
1.7150000000	0.6286224610
1.7200000000	0.7417082506
1.7250000000	0.8787908454
1.7300000000	1.0509508959
1.7350000000	1.2349238035
1.7400000000	1.3973437236
1.7450000000	1.5993166217
1.7500000000	1.9126654051
1.7550000000	2.3856831430
1.7600000000	3.0969623880
1.7650000000	4.1949479511
1.7700000000	5.9636222547
1.7750000000	8.9416256322
1.7800000000	14.0111224317
1.7850000000	21.4754418368
1.7900000000	26.6510375852
1.7950000000	22.6578761452
1.8000000000	15.0517847278
1.8050000000	9.4852511461
1.8100000000	6.2383434690
1.8150000000	4.3364321740
1.8200000000	3.1663355230
1.8250000000	2.4076839185
1.8300000000	1.8922332423
1.8350000000	1.5278499778
1.8400000000	1.2616649242
1.8450000000	1.0615408201
1.8500000000	0.9071960568
1.8550000000	0.7859065451
1.8600000000	0.6886745669
1.8650000000	0.6092823444
1.8700000000	0.5431395705
1.8750000000	0.4866472575
1.8800000000	0.4366408209
1.8850000000	0.3899108473
1.8900000000	0.3423786927
1.8950000000	0.2878425809
1.9000000000	0.2158652922
1.9050000000	0.0933553147
1.9100000000	-0.0845378216
1.9150000000	-0.2761267201
1.9200000000	-0.1904559204
1.9250000000	0.3692817566
1.9300000000	0.8188850381
1.9350000000	0.8553751059
1.9400000000	0.7051056320
1.9450000000	0.5532720991
1.9500000000	0.4440996143
1.9550000000	0.3708524084
1.9600000000	0.3214333901
1.9650000000	0.2887154110
1.9700000000	0.2639388959
1.9750000000	0.2457549497
1.9800000000	0.2320587353
1.9850000000	0.2213633586
1.9900000000	0.2126092635
1.9950000000	0.2049381631
2.0000000000	0.1981430483
2.0050000000	0.1946806758
2.0100000000	0.1978569231
2.0150000000	0.2054511210
2.0200000000	0.2114288537
2.0250000000	0.2155044216
2.0300000000	0.2198557683
2.0350000000	0.2254224707
2.0400000000	0.2329215203
2.0450000000	0.2428196421
2.0500000000	0.2556779065
2.0550000000	0.2720653311
2.0600000000	0.2920090206
2.0650000000	0.3136142926
2.0700000000	0.3321807666
2.0750000000	0.3439752649
2.0800000000	0.3515463710
2.0850000000	0.3605862174
2.0900000000	0.3746185818
2.0950000000	0.3947205016
2.1000000000	0.4214713017
2.1050000000	0.4542590774
2.1100000000	0.4953714251
2.1150000000	0.5463964193
2.1200000000	0.6096909892
2.1250000000	0.6886432491
2.1300000000	0.7880841411
2.1350000000	0.9149426855
2.1400000000	1.0792345205
2.1450000000	1.2955993414
2.1500000000	1.5853483616
2.1550000000	1.9786031494
2.1600000000	2.5138759088
2.1650000000	3.2237351737
2.1700000000	4.0958442709
2.1750000000	4.9662173886
2.1800000000	5.5165268401
2.1850000000	5.5784791102
2.1900000000	5.3890379411
2.1950000000	5.2632691711
2.2000000000	5.2270504968
2.2050000000	4.9756633931
2.2100000000	4.3813586874
2.2150000000	3.6264601091
2.2200000000	2.9357512404
2.2250000000	2.3825347005
2.2300000000	1.9471084884
2.2350000000	1.6012637228
2.2400000000	1.3268749628
2.2450000000	1.1127094651
2.2500000000	0.9456857918
2.2550000000	0.8139058704
2.2600000000	0.7074382761
2.2650000000	0.6180199176
2.2700000000	0.5387079695
2.2750000000	0.4646295788
2.2800000000	0.3961295588
2.2850000000	0.3418075446
2.2900000000	0.3144017203
2.2950000000	0.3183024865
2.3000000000	0.3409439345
2.3050000000	0.3630708935
2.3100000000	0.3726217480
2.3150000000	0.3702088394
2.3200000000	0.3611130984
2.3250000000	0.3507256510
2.3300000000	0.3419598500
2.3350000000	0.3358254408
2.3400000000	0.3321132995
2.3450000000	0.3297426608
2.3500000000	0.3272705961
2.3550000000	0.3237743823
2.3600000000	0.3195099312
2.3650000000	0.3155964308
2.3700000000	0.3131434055
2.3750000000	0.3126930525
2.3800000000	0.3141533870
2.3850000000	0.3169681120
2.3900000000	0.3205175017
2.3950000000	0.3242715326
2.4000000000	0.3285465593
2.4050000000	0.3345211293
2.4100000000	0.3427943588
2.4150000000	0.3541259332
2.4200000000	0.3690325509
2.4250000000	0.3879842821
2.4300000000	0.4115083952
2.4350000000	0.4402658000
2.4400000000	0.4751068493
2.4450000000	0.5171286160
2.4500000000	0.5677273467
2.4550000000	0.6286694818
2.4600000000	0.7021362886
2.4650000000	0.7907670410
2.4700000000	0.8976189310
2.4750000000	1.0258039369
2.4800000000	1.1786881500
2.4850000000	1.3577852002
2.4900000000	1.5616127660
2.4950000000	1.7827984810
2.5000000000	2.0049639386
2.5050000000	2.2102981097
2.5100000000	2.3429494686
2.5150000000	2.3719908827
2.5200000000	2.2934234101
2.5250000000	2.1318292073
2.5300000000	1.9246068486
2.5350000000	1.7045601599
2.5400000000	1.4924668690
2.5450000000	1.2985961841
2.5500000000	1.1267854155
2.5550000000	0.9775221059
2.5600000000	0.8486406593
2.5650000000	0.7398585616
2.5700000000	0.6490052868
2.5750000000	0.5747960617
2.5800000000	0.5162274898
2.5850000000	0.4720565256
2.5900000000	0.4400391560
2.5950000000	0.4169267901
2.6000000000	0.3993216334
2.6050000000	0.3867653800
2.6100000000	0.3754910641
2.6150000000	0.3653600358
2.6200000000	0.3566254586
2.6250000000	0.3495362332
2.6300000000	0.3442426502
2.6350000000	0.3408098713
2.6400000000	0.3392720812
2.6450000000	0.3396678990
2.6500000000	0.3420802485
2.6550000000	0.3465230829
2.6600000000	0.3531129638
2.6650000000	0.3619528605
2.6700000000	0.3731640994
2.6750000000	0.3868906312
2.6800000000	0.4032926700
2.6850000000	0.4225451966
2.6900000000	0.4448173035
2.6950000000	0.4702622536
2.7000000000	0.4989862169
2.7050000000	0.5344479373
2.7100000000	0.5741934123
2.7150000000	0.6179497759
2.7200000000	0.6651272731
2.7250000000	0.7147434645
2.7300000000	0.7653534717
2.7350000000	0.8149888070
2.7400000000	0.8611254293
2.7450000000	0.9010988148
2.7500000000	0.9310410255
2.7550000000	0.9482952513
2.7600000000	0.9508660930
2.7650000000	0.9382402757
2.7700000000	0.9115677529
2.7750000000	0.8734287238
2.7800000000	0.8272451812
2.7850000000	0.7766575385
2.7900000000	0.7249179510
2.7950000000	0.6746301557
2.8000000000	0.6276307141
2.8050000000	0.5798393895
2.8100000000	0.5385840097
2.8150000000	0.5037704668
2.8200000000	0.4748515428
2.8250000000	0.4510999492
2.8300000000	0.4317861079
2.8350000000	0.4162882248
2.8400000000	0.4039452918
2.8450000000	0.3948018334
2.8500000000	0.3883734285
2.8550000000	0.3844795822
2.8600000000	0.3829926039
2.8650000000	0.3838116138
2.8700000000	0.3868468093
2.8750000000	0.3920062930
2.8800000000	0.3991837505
2.8850000000	0.4082469921
2.8900000000	0.4190332636
2.8950000000	0.4313437860
2.9000000000	0.4449427837
2.9050000000	0.4628066250
2.9100000000	0.4811470762
2.9150000000	0.4992568527
2.9200000000	0.5162854337
2.9250000000	0.5312466614
2.9300000000	0.5432136829
2.9350000000	0.5509525668
2.9400000000	0.5538452331
2.9450000000	0.5515751810
2.9500000000	0.5443287185
2.9550000000	0.5327669485
2.9600000000	0.5178967924
2.9650000000	0.5008863809
2.9700000000	0.4828819884
2.9750000000	0.4648781920
2.9800000000	0.4476463380
2.9850000000	0.4317245223
2.9900000000	0.4174438808
2.9950000000	0.4049730878
3.0000000000	0.3943665278
