# energy (eV)    P(omega), $W$ = 400 nm, $h$ = 300 nm, $s$ = 20 nm, $d/W = 5$, $E_{\rm e}$ = 200 keV
0.2000000000	0.0422365620
0.2050000000	0.0426207674
0.2100000000	0.0428912628
0.2150000000	0.0430434927
0.2200000000	0.0430710870
0.2250000000	0.0429653914
0.2300000000	0.0427150184
0.2350000000	0.0423051411
0.2400000000	0.0417166913
0.2450000000	0.0409250938
0.2500000000	0.0398989292
0.2550000000	0.0385977698
0.2600000000	0.0369695186
0.2650000000	0.0386754991
0.2700000000	0.0430090055
0.2750000000	0.0492101188
0.2800000000	0.0578500236
0.2850000000	0.0705874994
0.2900000000	0.0863701217
0.2950000000	0.1089958287
0.3000000000	0.1394112193
0.3050000000	0.1860307274
0.3100000000	0.2509702026
0.3150000000	0.3766251474
0.3200000000	0.5728735969
0.3250000000	0.7072332475
0.3300000000	0.8930959126
0.3350000000	1.1565827732
0.3400000000	1.5702037996
0.3450000000	2.2798445613
0.3500000000	3.6949293682
0.3550000000	6.9706735095
0.3600000000	17.1312766714
0.3650000000	0.0774194943
0.3700000000	7.9397251076
0.3750000000	10.4404262084
0.3800000000	4.8648744173
0.3850000000	2.7404253083
0.3900000000	1.7577386302
0.3950000000	1.2386405138
0.4000000000	0.9380831408
0.4050000000	0.7421408526
0.4100000000	0.6145780990
0.4150000000	0.5304433827
0.4200000000	0.4772684799
0.4250000000	0.4355063268
0.4300000000	0.3861585822
0.4350000000	0.3471027507
0.4400000000	0.3162139403
0.4450000000	0.2916536714
0.4500000000	0.2722634423
0.4550000000	0.2568875010
0.4600000000	0.2448929613
0.4650000000	0.2356104412
0.4700000000	0.2285967992
0.4750000000	0.2235419828
0.4800000000	0.2201754264
0.4850000000	0.2182598882
0.4900000000	0.2176550691
0.4950000000	0.2182530288
0.5000000000	0.2199615375
0.5050000000	0.2227394843
0.5100000000	0.2265531901
0.5150000000	0.2313826380
0.5200000000	0.2372378341
0.5250000000	0.2441269834
0.5300000000	0.2521512262
0.5350000000	0.2613555217
0.5400000000	0.2718208331
0.5450000000	0.2836533373
0.5500000000	0.2970032570
0.5550000000	0.3120349126
0.5600000000	0.3289483093
0.5650000000	0.3480006332
0.5700000000	0.3695469198
0.5750000000	0.3938503052
0.5800000000	0.4214031507
0.5850000000	0.4528781835
0.5900000000	0.4887291621
0.5950000000	0.5299109205
0.6000000000	0.5776849173
0.6050000000	0.6329965818
0.6100000000	0.6980131966
0.6150000000	0.7745319904
0.6200000000	0.8656381436
0.6250000000	0.9757578470
0.6300000000	1.1094050458
0.6350000000	1.2750618571
0.6400000000	1.4820862893
0.6450000000	1.7474598095
0.6500000000	2.0928744291
0.6550000000	2.5550742963
0.6600000000	3.1961011714
0.6650000000	4.1139755026
0.6700000000	5.5038550231
0.6750000000	7.7385694237
0.6800000000	11.6888444706
0.6850000000	19.6153193519
0.6900000000	39.3121660193
0.6950000000	110.3549253474
0.7000000000	535.2297865616
0.7050000000	260.2147242505
0.7100000000	66.8436315097
0.7150000000	28.4256482709
0.7200000000	15.5235969493
0.7250000000	9.7515865394
0.7300000000	6.6882362757
0.7350000000	4.8773387966
0.7400000000	3.7177066306
0.7450000000	2.9305946729
0.7500000000	2.3730197117
0.7550000000	1.9633858742
0.7600000000	1.6546358587
0.7650000000	1.4152047868
0.7700000000	1.2261986023
0.7750000000	1.0744620907
0.7800000000	0.9511559440
0.7850000000	0.8496260133
0.7900000000	0.7645675526
0.7950000000	0.6935281390
0.8000000000	0.6331255098
0.8050000000	0.5813759581
0.8100000000	0.5373215728
0.8150000000	0.4987097721
0.8200000000	0.4650940835
0.8250000000	0.4368846165
0.8300000000	0.4121919858
0.8350000000	0.3907253175
0.8400000000	0.3736302262
0.8450000000	0.3587138222
0.8500000000	0.3460662554
0.8550000000	0.3380716295
0.8600000000	0.3316677115
0.8650000000	0.3270823229
0.8700000000	0.3286777521
0.8750000000	0.3292361519
0.8800000000	0.3274635298
0.8850000000	0.3132251619
0.8900000000	0.2430750805
0.8950000000	-0.1084809763
0.9000000000	-1.9936163703
0.9050000000	-13.0995628859
0.9100000000	2.4944146640
0.9150000000	5.9087928270
0.9200000000	2.4528533780
0.9250000000	1.2760458221
0.9300000000	0.7789297100
0.9350000000	0.5414242300
0.9400000000	0.4133003296
0.9450000000	0.3422821188
0.9500000000	0.2918479650
0.9550000000	0.2580880747
0.9600000000	0.2372092319
0.9650000000	0.2199820791
0.9700000000	0.2076897594
0.9750000000	0.1993127910
0.9800000000	0.1942135367
0.9850000000	0.1932801640
0.9900000000	0.1951427183
0.9950000000	0.2026570872
1.0000000000	0.2206195965
1.0050000000	0.2625545693
1.0100000000	0.3724534293
1.0150000000	0.7491083845
1.0200000000	1.4386610258
1.0250000000	0.6540013980
1.0300000000	0.3349353805
1.0350000000	0.2398389459
1.0400000000	0.2024425072
1.0450000000	0.1848981998
1.0500000000	0.1761027718
1.0550000000	0.1714873401
1.0600000000	0.1694141506
1.0650000000	0.1690236603
1.0700000000	0.1698393252
1.0750000000	0.1716932823
1.0800000000	0.1742528408
1.0850000000	0.1777368893
1.0900000000	0.1827720520
1.0950000000	0.1886424126
1.1000000000	0.1954054720
1.1050000000	0.2030733858
1.1100000000	0.2117674913
1.1150000000	0.2216034617
1.1200000000	0.2327185869
1.1250000000	0.2452264824
1.1300000000	0.2594511794
1.1350000000	0.2756111026
1.1400000000	0.2940333431
1.1450000000	0.3151338400
1.1500000000	0.3392362761
1.1550000000	0.3673484648
1.1600000000	0.4001076993
1.1650000000	0.4383487035
1.1700000000	0.4822445100
1.1750000000	0.5267624792
1.1800000000	0.5688910451
1.1850000000	0.7906778438
1.1900000000	0.9812367147
1.1950000000	1.3451319079
1.2000000000	1.8319820220
1.2050000000	1.6069523220
1.2100000000	1.5378716853
1.2150000000	1.7120873563
1.2200000000	2.0476693364
1.2250000000	2.5630185936
1.2300000000	3.3466444171
1.2350000000	4.5862588721
1.2400000000	6.6743897346
1.2450000000	10.6063259867
1.2500000000	19.1217901620
1.2550000000	41.3926630044
1.2600000000	99.9805033525
1.2650000000	101.2760674275
1.2700000000	42.1287666914
1.2750000000	19.4466731575
1.2800000000	10.7699127198
1.2850000000	6.7727602939
1.2900000000	4.6421077012
1.2950000000	3.3832362648
1.3000000000	2.5813908318
1.3050000000	2.0415108414
1.3100000000	1.6608084099
1.3150000000	1.3857319443
1.3200000000	1.1818172791
1.3250000000	1.0283639028
1.3300000000	0.9127983926
1.3350000000	0.8274055143
1.3400000000	0.7681796559
1.3450000000	0.7340221731
1.3500000000	0.7299151373
1.3550000000	0.7672008046
1.3600000000	0.8747391864
1.3650000000	1.1259713209
1.3700000000	1.7259509345
1.3750000000	3.2187516263
1.3800000000	5.2575945064
1.3850000000	3.6728322143
1.3900000000	1.8717044659
1.3950000000	1.0860293967
1.4000000000	0.7112418185
1.4050000000	0.4808957076
1.4100000000	0.2724106824
1.4150000000	-0.0386103243
1.4200000000	-0.7349410109
1.4250000000	-2.5800340283
1.4300000000	-3.4690212801
1.4350000000	1.5892962261
1.4400000000	2.0329545108
1.4450000000	1.2188434812
1.4500000000	0.7584130378
1.4550000000	0.5228069835
1.4600000000	0.3860621709
1.4650000000	0.2779925767
1.4700000000	0.1623975025
1.4750000000	0.1908411487
1.4800000000	0.2797788840
1.4850000000	0.2540485687
1.4900000000	0.2249543195
1.4950000000	0.2061359128
1.5000000000	0.1937737376
1.5050000000	0.1855998791
1.5100000000	0.1800393508
1.5150000000	0.1770053555
1.5200000000	0.1747688725
1.5250000000	0.1739620816
1.5300000000	0.1746593136
1.5350000000	0.1771796642
1.5400000000	0.1823192157
1.5450000000	0.1918459423
1.5500000000	0.2097335892
1.5550000000	0.2439029606
1.5600000000	0.2951936219
1.5650000000	0.3034134478
1.5700000000	0.2571282901
1.5750000000	0.2246488175
1.5800000000	0.2106374402
1.5850000000	0.2062285475
1.5900000000	0.2067996522
1.5950000000	0.2103433174
1.6000000000	0.2159849507
1.6050000000	0.2234234494
1.6100000000	0.2324339837
1.6150000000	0.2429830649
1.6200000000	0.2552387296
1.6250000000	0.2693459368
1.6300000000	0.2855429377
1.6350000000	0.3041368882
1.6400000000	0.3255205590
1.6450000000	0.3501955965
1.6500000000	0.3787916852
1.6550000000	0.4121068139
1.6600000000	0.4511748592
1.6650000000	0.4973303352
1.6700000000	0.5518708017
1.6750000000	0.6179805052
1.6800000000	0.6984740485
1.6850000000	0.7977793213
1.6900000000	0.9221831040
1.6950000000	1.0809110055
1.7000000000	1.2878511160
1.7050000000	1.5733304921
1.7100000000	1.9716249059
1.7150000000	2.5505541157
1.7200000000	3.4328615642
1.7250000000	4.8326070192
1.7300000000	6.9836334064
1.7350000000	9.7441046678
1.7400000000	13.2337881364
1.7450000000	19.3575997231
1.7500000000	27.3068656150
1.7550000000	27.7461354797
1.7600000000	19.4656826998
1.7650000000	12.1253037355
1.7700000000	7.7727955433
1.7750000000	5.2977990915
1.7800000000	3.8351821029
1.7850000000	2.9354917595
1.7900000000	2.3775476155
1.7950000000	2.0582994802
1.8000000000	1.9294437006
1.8050000000	1.8886490579
1.8100000000	1.6803549281
1.8150000000	1.3020338773
1.8200000000	0.9997812583
1.8250000000	0.8439404488
1.8300000000	0.7347370400
1.8350000000	0.6376857339
1.8400000000	0.5585476895
1.8450000000	0.4957466725
1.8500000000	0.4451355930
1.8550000000	0.4033250240
1.8600000000	0.3648648977
1.8650000000	0.3323501500
1.8700000000	0.2994887360
1.8750000000	0.2521164374
1.8800000000	0.1441340461
1.8850000000	-0.0925283456
1.8900000000	-0.4108530469
1.8950000000	-0.4654706615
1.9000000000	0.0498094290
1.9050000000	0.5302335732
1.9100000000	0.5862929102
1.9150000000	0.4953088204
1.9200000000	0.4061360257
1.9250000000	0.3428587318
1.9300000000	0.3045378009
1.9350000000	0.2752814384
1.9400000000	0.2558193964
1.9450000000	0.2429365991
1.9500000000	0.2339318293
1.9550000000	0.2263967094
1.9600000000	0.2198902880
1.9650000000	0.2152700183
1.9700000000	0.2128025926
1.9750000000	0.2123238548
1.9800000000	0.2137007173
1.9850000000	0.2169731331
1.9900000000	0.2223559323
1.9950000000	0.2301178705
2.0000000000	0.2400570855
2.0050000000	0.2513325326
2.0100000000	0.2594206065
2.0150000000	0.2648148917
2.0200000000	0.2713193782
2.0250000000	0.2813596098
2.0300000000	0.2956493644
2.0350000000	0.3145459434
2.0400000000	0.3386981498
2.0450000000	0.3692317463
2.0500000000	0.4077635530
2.0550000000	0.4560903472
2.0600000000	0.5150835821
2.0650000000	0.5838157729
2.0700000000	0.6633193760
2.0750000000	0.7624632377
2.0800000000	0.8958897244
2.0850000000	1.0778752652
2.0900000000	1.3167226370
2.0950000000	1.5952717273
2.1000000000	1.8435369369
2.1050000000	1.9638375463
2.1100000000	1.9067092385
2.1150000000	1.7752482894
2.1200000000	1.6823308133
2.1250000000	1.6783676827
2.1300000000	1.7783148649
2.1350000000	1.9940263517
2.1400000000	2.3492450852
2.1450000000	2.8859759448
2.1500000000	3.6630396063
2.1550000000	4.7246195646
2.1600000000	5.9851064193
2.1650000000	7.0445233335
2.1700000000	7.2948477695
2.1750000000	6.5300674635
2.1800000000	5.2718946376
2.1850000000	4.0675137751
2.1900000000	3.1258664086
2.1950000000	2.4455545398
2.2000000000	1.9682597910
2.2050000000	1.6389664325
2.2100000000	1.4103699866
2.2150000000	1.2350344442
2.2200000000	1.0779224183
2.2250000000	0.9284832080
2.2300000000	0.7931762198
2.2350000000	0.6769964349
2.2400000000	0.5785962846
2.2450000000	0.4936315312
2.2500000000	0.4177780372
2.2550000000	0.3486174344
2.2600000000	0.2794555760
2.2650000000	0.2291420897
2.2700000000	0.2018118548
2.2750000000	0.2086921463
2.2800000000	0.2483875208
2.2850000000	0.2989350083
2.2900000000	0.3359347494
2.2950000000	0.3523335996
2.3000000000	0.3542093760
2.3050000000	0.3485510639
2.3100000000	0.3410974712
2.3150000000	0.3344929810
2.3200000000	0.3297830809
2.3250000000	0.3275420177
2.3300000000	0.3282344656
2.3350000000	0.3322453390
2.3400000000	0.3399034296
2.3450000000	0.3515413891
2.3500000000	0.3675116228
2.3550000000	0.3883424311
2.3600000000	0.4136917628
2.3650000000	0.4437173103
2.3700000000	0.4783355561
2.3750000000	0.5179222860
2.3800000000	0.5639064891
2.3850000000	0.6179837962
2.3900000000	0.6805291657
2.3950000000	0.7487575666
2.4000000000	0.8155093401
2.4050000000	0.8730346573
2.4100000000	0.9049195885
2.4150000000	0.9079674433
2.4200000000	0.8899734717
2.4250000000	0.8642306527
2.4300000000	0.8425367976
2.4350000000	0.8320136017
2.4400000000	0.8355029499
2.4450000000	0.8534640234
2.4500000000	0.8859542294
2.4550000000	0.9336975459
2.4600000000	0.9997548101
2.4650000000	1.0872637492
2.4700000000	1.1997184451
2.4750000000	1.3393012156
2.4800000000	1.5049107677
2.4850000000	1.6894809708
2.4900000000	1.8768481941
2.4950000000	2.0401897458
2.5000000000	2.1459409711
2.5050000000	2.1595362760
2.5100000000	2.0671738964
2.5150000000	1.8940642786
2.5200000000	1.6804892650
2.5250000000	1.4618375447
2.5300000000	1.2596806870
2.5350000000	1.0830823428
2.5400000000	0.9333768724
2.5450000000	0.8083431393
2.5500000000	0.7047623902
2.5550000000	0.6197426069
2.5600000000	0.5486516041
2.5650000000	0.4954486254
2.5700000000	0.4572208219
2.5750000000	0.4326048749
2.5800000000	0.4188684746
2.5850000000	0.4122747230
2.5900000000	0.4093166210
2.5950000000	0.4078103876
2.6000000000	0.4070519000
2.6050000000	0.4102977783
2.6100000000	0.4154404685
2.6150000000	0.4232673927
2.6200000000	0.4341969015
2.6250000000	0.4482547700
2.6300000000	0.4650441908
2.6350000000	0.4837229811
2.6400000000	0.5030043340
2.6450000000	0.5212564792
2.6500000000	0.5367512849
2.6550000000	0.5480718665
2.6600000000	0.5545600687
2.6650000000	0.5566024773
2.6700000000	0.5555486327
2.6750000000	0.5533712373
2.6800000000	0.5519818114
2.6850000000	0.5531662802
2.6900000000	0.5581683707
2.6950000000	0.5677524211
2.7000000000	0.5822849068
2.7050000000	0.6040384713
2.7100000000	0.6320345837
2.7150000000	0.6658206229
2.7200000000	0.7044609787
2.7250000000	0.7463674340
2.7300000000	0.7891422911
2.7350000000	0.8295529568
2.7400000000	0.8637543140
2.7450000000	0.8878422539
2.7500000000	0.8986700186
2.7550000000	0.8946522066
2.7600000000	0.8761938892
2.7650000000	0.8455443602
2.7700000000	0.8061455435
2.7750000000	0.7618108523
2.7800000000	0.7160370481
2.7850000000	0.6716214359
2.7900000000	0.6301857449
2.7950000000	0.5935046026
2.8000000000	0.5619451339
2.8050000000	0.5327152227
2.8100000000	0.5096694723
2.8150000000	0.4919005844
2.8200000000	0.4784229234
2.8250000000	0.4683320356
2.8300000000	0.4608592122
2.8350000000	0.4553668369
2.8400000000	0.4513161375
2.8450000000	0.4482496903
2.8500000000	0.4458001871
2.8550000000	0.4437237880
2.8600000000	0.4419379442
2.8650000000	0.4405335912
2.8700000000	0.4397520497
2.8750000000	0.4399252189
2.8800000000	0.4414020872
2.8850000000	0.4444824378
2.8900000000	0.4493706942
2.8950000000	0.4561480758
2.9000000000	0.4647589062
2.9050000000	0.4776390107
2.9100000000	0.4917636112
2.9150000000	0.5061896583
2.9200000000	0.5197253403
2.9250000000	0.5310903622
2.9300000000	0.5390960058
2.9350000000	0.5428534784
2.9400000000	0.5419459099
2.9450000000	0.5365079549
2.9500000000	0.5271754445
2.9550000000	0.5149233292
2.9600000000	0.5008601962
2.9650000000	0.4860361268
2.9700000000	0.4713146956
2.9750000000	0.4573169775
2.9800000000	0.4444253439
2.9850000000	0.4328247535
2.9900000000	0.4225582192
2.9950000000	0.4135807252
3.0000000000	0.4058032285
