# energy (eV)    P(omega), $W$ = 300 nm, $h$ = 300 nm, $s$ = 20 nm, $d/W = 5$, $E_{\rm e}$ = 200 keV
0.2000000000	0.0672931433
0.2050000000	0.0682597744
0.2100000000	0.0691684120
0.2150000000	0.0700208690
0.2200000000	0.0708187083
0.2250000000	0.0715632218
0.2300000000	0.0722553583
0.2350000000	0.0728957105
0.2400000000	0.0734844471
0.2450000000	0.0740211679
0.2500000000	0.0745049848
0.2550000000	0.0749341924
0.2600000000	0.0753062986
0.2650000000	0.0756178297
0.2700000000	0.0758640247
0.2750000000	0.0760386505
0.2800000000	0.0761336284
0.2850000000	0.0761386289
0.2900000000	0.0760403812
0.2950000000	0.0758221513
0.3000000000	0.0754623909
0.3050000000	0.0749338766
0.3100000000	0.0742016591
0.3150000000	0.0781987625
0.3200000000	0.0829465641
0.3250000000	0.0889483184
0.3300000000	0.0969796491
0.3350000000	0.1069798737
0.3400000000	0.1200766913
0.3450000000	0.1359759631
0.3500000000	0.1567837080
0.3550000000	0.1843300156
0.3600000000	0.2203241311
0.3650000000	0.2705275282
0.3700000000	0.3367895038
0.3750000000	0.4290328578
0.3800000000	0.5625392303
0.3850000000	0.7706958209
0.3900000000	1.0997877378
0.3950000000	1.6592013958
0.4000000000	2.7263620051
0.4050000000	5.1205135007
0.4100000000	11.6579637819
0.4150000000	37.4445742634
0.4200000000	23.8343850146
0.4250000000	-44.9923165651
0.4300000000	12.5379914270
0.4350000000	7.8232202678
0.4400000000	4.7896072431
0.4450000000	3.1555005024
0.4500000000	2.2141672135
0.4550000000	1.6345256882
0.4600000000	1.2567924128
0.4650000000	0.9992559366
0.4700000000	0.8171502361
0.4750000000	0.6854047794
0.4800000000	0.5877056693
0.4850000000	0.5141888825
0.4900000000	0.4580845553
0.4950000000	0.4148460727
0.5000000000	0.3813666036
0.5050000000	0.3553639626
0.5100000000	0.3353716053
0.5150000000	0.3203104214
0.5200000000	0.3090457593
0.5250000000	0.3010722771
0.5300000000	0.2958430634
0.5350000000	0.2929592572
0.5400000000	0.2921272948
0.5450000000	0.2931020919
0.5500000000	0.2958106612
0.5550000000	0.3001162953
0.5600000000	0.3059523993
0.5650000000	0.3132908556
0.5700000000	0.3221078746
0.5750000000	0.3324665528
0.5800000000	0.3444694520
0.5850000000	0.3581839667
0.5900000000	0.3737383123
0.5950000000	0.3912914854
0.6000000000	0.4110457636
0.6050000000	0.4332910911
0.6100000000	0.4583067756
0.6150000000	0.4864718805
0.6200000000	0.5182923692
0.6250000000	0.5542526801
0.6300000000	0.5950688335
0.6350000000	0.6416333071
0.6400000000	0.6948751087
0.6450000000	0.7561345341
0.6500000000	0.8271744163
0.6550000000	0.9098302156
0.6600000000	1.0069218489
0.6650000000	1.1220704708
0.6700000000	1.2595332451
0.6750000000	1.4257994059
0.6800000000	1.6296060712
0.6850000000	1.8823904217
0.6900000000	2.2018811101
0.6950000000	2.6128649574
0.7000000000	3.1547390398
0.7050000000	3.8877293831
0.7100000000	4.9139135293
0.7150000000	6.4150241397
0.7200000000	8.7294651867
0.7250000000	12.5727120405
0.7300000000	19.6297089746
0.7350000000	34.7354509295
0.7400000000	76.1799430179
0.7450000000	252.9104227733
0.7500000000	784.0989356918
0.7550000000	197.4056380095
0.7600000000	65.4261379917
0.7650000000	31.3727535390
0.7700000000	18.2596151785
0.7750000000	11.9270241112
0.7800000000	8.4003213942
0.7850000000	6.2440216393
0.7900000000	4.8280173717
0.7950000000	3.8510788084
0.8000000000	3.1485528233
0.8050000000	2.6251502648
0.8100000000	2.2258900349
0.8150000000	1.9092653597
0.8200000000	1.6592981596
0.8250000000	1.4579708733
0.8300000000	1.2929970389
0.8350000000	1.1573283054
0.8400000000	1.0435716483
0.8450000000	0.9480943026
0.8500000000	0.8673817356
0.8550000000	0.7977106540
0.8600000000	0.7382336967
0.8650000000	0.6874422679
0.8700000000	0.6425503075
0.8750000000	0.6043832779
0.8800000000	0.5720270468
0.8850000000	0.5430148422
0.8900000000	0.5198039268
0.8950000000	0.4986866302
0.9000000000	0.4820179104
0.9050000000	0.4706657967
0.9100000000	0.4602689386
0.9150000000	0.4541186320
0.9200000000	0.4537545284
0.9250000000	0.4535633433
0.9300000000	0.4472217007
0.9350000000	0.4273636960
0.9400000000	0.3152616781
0.9450000000	-0.1955746210
0.9500000000	-2.8941628453
0.9550000000	-16.5916481249
0.9600000000	3.9189366906
0.9650000000	6.8879721011
0.9700000000	3.0571413012
0.9750000000	1.6056523821
0.9800000000	1.0065265712
0.9850000000	0.7262359796
0.9900000000	0.5646564011
0.9950000000	0.4666455755
1.0000000000	0.4040537279
1.0050000000	0.3643890953
1.0100000000	0.3336046081
1.0150000000	0.3111014071
1.0200000000	0.2959510476
1.0250000000	0.2832013094
1.0300000000	0.2734939960
1.0350000000	0.2661241072
1.0400000000	0.2614166285
1.0450000000	0.2574586475
1.0500000000	0.2547950056
1.0550000000	0.2532731707
1.0600000000	0.2532450273
1.0650000000	0.2537314408
1.0700000000	0.2551277524
1.0750000000	0.2574385949
1.0800000000	0.2609230978
1.0850000000	0.2653529840
1.0900000000	0.2719560493
1.0950000000	0.2798085130
1.1000000000	0.2891860499
1.1050000000	0.2999681823
1.1100000000	0.3125071072
1.1150000000	0.3270807033
1.1200000000	0.3440299554
1.1250000000	0.3637439522
1.1300000000	0.3868108243
1.1350000000	0.4139407895
1.1400000000	0.4459559426
1.1450000000	0.4842969771
1.1500000000	0.5305802882
1.1550000000	0.5871192513
1.1600000000	0.6571770950
1.1650000000	0.7450005614
1.1700000000	0.8584811695
1.1750000000	1.0081509668
1.1800000000	1.2113961025
1.1850000000	1.4967781383
1.1900000000	1.9182061492
1.1950000000	2.5790053345
1.2000000000	3.6989170669
1.2050000000	5.8141646481
1.2100000000	10.4661882032
1.2150000000	23.0421539798
1.2200000000	56.5129556537
1.2250000000	50.8234873135
1.2300000000	20.3334345917
1.2350000000	9.5870317382
1.2400000000	5.5186476080
1.2450000000	3.6541932325
1.2500000000	2.6746693842
1.2550000000	2.1139293295
1.2600000000	1.7779063819
1.2650000000	1.5733921716
1.2700000000	1.4592016875
1.2750000000	1.4087643187
1.2800000000	1.4100663890
1.2850000000	1.4587051111
1.2900000000	1.5560048999
1.2950000000	1.7075103721
1.3000000000	1.9306326293
1.3050000000	2.2480377941
1.3100000000	2.7007209655
1.3150000000	3.3593126016
1.3200000000	4.3502670878
1.3250000000	5.9150717338
1.3300000000	8.5808031881
1.3350000000	13.5712527360
1.3400000000	24.2365217984
1.3450000000	50.7190884538
1.3500000000	107.7453075544
1.3550000000	100.5533209583
1.3600000000	46.3876363777
1.3650000000	22.7953083028
1.3700000000	13.0728193549
1.3750000000	8.4062105855
1.3800000000	5.8616279318
1.3850000000	4.3290528132
1.3900000000	3.3418103726
1.3950000000	2.6686832725
1.4000000000	2.1906867553
1.4050000000	1.8406724237
1.4100000000	1.5783747387
1.4150000000	1.3804574388
1.4200000000	1.2316322825
1.4250000000	1.1319708307
1.4300000000	1.0955229843
1.4350000000	1.1159409587
1.4400000000	0.8596420466
1.4450000000	0.0744886267
1.4500000000	-1.2000749759
1.4550000000	-0.3363479000
1.4600000000	1.4536687751
1.4650000000	0.7869108403
1.4700000000	-0.7435658317
1.4750000000	-3.2535814824
1.4800000000	-1.4480761689
1.4850000000	2.3798833667
1.4900000000	1.9291453598
1.4950000000	1.2486741420
1.5000000000	0.8773359410
1.5050000000	0.6773846183
1.5100000000	0.5634187275
1.5150000000	0.4942078490
1.5200000000	0.4494992914
1.5250000000	0.4217208905
1.5300000000	0.4005019384
1.5350000000	0.3858764399
1.5400000000	0.3762433057
1.5450000000	0.3707435572
1.5500000000	0.3688226297
1.5550000000	0.3704948183
1.5600000000	0.3767482662
1.5650000000	0.3870762599
1.5700000000	0.4037979326
1.5750000000	0.4297424921
1.5800000000	0.4702221149
1.5850000000	0.5355772385
1.5900000000	0.6475935964
1.5950000000	0.8544814538
1.6000000000	1.2580755237
1.6050000000	1.9254066506
1.6100000000	2.2344698258
1.6150000000	1.6550967322
1.6200000000	1.1115752186
1.6250000000	0.8246683262
1.6300000000	0.6806095655
1.6350000000	0.6064403367
1.6400000000	0.5688436192
1.6450000000	0.5523342916
1.6500000000	0.5491578088
1.6550000000	0.5556815064
1.6600000000	0.5697372294
1.6650000000	0.5903347833
1.6700000000	0.6170975269
1.6750000000	0.6500273679
1.6800000000	0.6894184005
1.6850000000	0.7357269539
1.6900000000	0.7893562023
1.6950000000	0.8495428238
1.7000000000	0.9152740350
1.7050000000	0.9826268717
1.7100000000	1.0594757061
1.7150000000	1.2505484677
1.7200000000	1.5858265957
1.7250000000	1.8929721870
1.7300000000	2.2225637608
1.7350000000	2.5847243186
1.7400000000	2.9401151204
1.7450000000	3.3966030556
1.7500000000	4.0869159813
1.7550000000	5.1143665389
1.7600000000	6.6516183370
1.7650000000	9.0213030564
1.7700000000	12.8384494950
1.7750000000	19.2693512503
1.7800000000	30.2274880528
1.7850000000	46.3881967949
1.7900000000	57.6481466385
1.7950000000	49.0885699991
1.8000000000	32.6698588599
1.8050000000	20.6317962304
1.8100000000	13.6030607606
1.8150000000	9.4832405175
1.8200000000	6.9478466153
1.8250000000	5.3041426833
1.8300000000	4.1881253955
1.8350000000	3.4003950124
1.8400000000	2.8264977168
1.8450000000	2.3970036587
1.8500000000	2.0681567668
1.8550000000	1.8125778490
1.8600000000	1.6111676103
1.8650000000	1.4509459970
1.8700000000	1.3226815440
1.8750000000	1.2195972558
1.8800000000	1.1363179423
1.8850000000	1.0680945636
1.8900000000	1.0094553949
1.8950000000	0.9522355308
1.9000000000	0.8823354389
1.9050000000	0.7499900272
1.9100000000	0.5678618314
1.9150000000	0.4715405557
1.9200000000	1.1524075451
1.9250000000	3.0337560134
1.9300000000	4.5257849580
1.9350000000	4.4560999730
1.9400000000	3.5047966065
1.9450000000	2.5824897873
1.9500000000	1.9349284115
1.9550000000	1.5106285151
1.9600000000	1.2302393347
1.9650000000	1.0425697423
1.9700000000	0.9070888064
1.9750000000	0.8077761804
1.9800000000	0.7319547831
1.9850000000	0.6704270452
1.9900000000	0.6161549328
1.9950000000	0.5629959092
2.0000000000	0.5100545734
2.0050000000	0.4762311180
2.0100000000	0.4956090461
2.0150000000	0.5489916643
2.0200000000	0.5819061752
2.0250000000	0.5906480385
2.0300000000	0.5926140187
2.0350000000	0.5961919445
2.0400000000	0.6044980192
2.0450000000	0.6183263255
2.0500000000	0.6381916992
2.0550000000	0.6645615677
2.0600000000	0.6974362659
2.0650000000	0.7348255760
2.0700000000	0.7717938313
2.0750000000	0.8046425186
2.0800000000	0.8366362155
2.0850000000	0.8745256787
2.0900000000	0.9228365307
2.0950000000	0.9834751431
2.1000000000	1.0584930717
2.1050000000	1.1472115356
2.1100000000	1.2558657848
2.1150000000	1.3890140049
2.1200000000	1.5530484191
2.1250000000	1.7569350288
2.1300000000	2.0133122609
2.1350000000	2.3402238493
2.1400000000	2.7637243648
2.1450000000	3.3219057562
2.1500000000	4.0702694043
2.1550000000	5.0873649558
2.1600000000	6.4737236527
2.1650000000	8.3144831611
2.1700000000	10.5755851104
2.1750000000	12.8235914490
2.1800000000	14.2125699609
2.1850000000	14.2847250020
2.1900000000	13.6531607436
2.1950000000	13.1616848697
2.2000000000	12.9437276791
2.2050000000	12.3383621830
2.2100000000	11.0531608109
2.2150000000	9.4730164035
2.2200000000	8.0545094339
2.2250000000	6.8821612974
2.2300000000	5.8498386965
2.2350000000	4.9164595294
2.2400000000	4.1147228074
2.2450000000	3.4732291790
2.2500000000	2.9814712094
2.2550000000	2.6120615891
2.2600000000	2.3354739824
2.2650000000	2.1221192709
2.2700000000	1.9400097341
2.2750000000	1.7576288961
2.2800000000	1.5612676406
2.2850000000	1.3744099138
2.2900000000	1.2452767382
2.2950000000	1.2011656495
2.3000000000	1.2169270831
2.3050000000	1.2409977788
2.3100000000	1.2430180787
2.3150000000	1.2232341271
2.3200000000	1.1947879348
2.3250000000	1.1712537238
2.3300000000	1.1595769276
2.3350000000	1.1609502420
2.3400000000	1.1714822728
2.3450000000	1.1823663779
2.3500000000	1.1825133488
2.3550000000	1.1648483496
2.3600000000	1.1313735972
2.3650000000	1.0908383160
2.3700000000	1.0522609744
2.3750000000	1.0210279160
2.3800000000	0.9988889759
2.3850000000	0.9853494609
2.3900000000	0.9792810795
2.3950000000	0.9793767651
2.4000000000	0.9859924259
2.4050000000	1.0013068036
2.4100000000	1.0260499613
2.4150000000	1.0612326305
2.4200000000	1.1074622398
2.4250000000	1.1658022362
2.4300000000	1.2378037149
2.4350000000	1.3255474193
2.4400000000	1.4317183756
2.4450000000	1.5597449200
2.4500000000	1.7139523951
2.4550000000	1.8997773598
2.4600000000	2.1238993092
2.4650000000	2.3943322887
2.4700000000	2.7202675472
2.4750000000	3.1109117818
2.4800000000	3.5757732519
2.4850000000	4.1186157287
2.4900000000	4.7341331254
2.4950000000	5.4002986424
2.5000000000	6.0705300360
2.5050000000	6.6975051347
2.5100000000	7.1210775561
2.5150000000	7.2488784352
2.5200000000	7.0588921791
2.5250000000	6.6097647978
2.5300000000	6.0036722190
2.5350000000	5.3391625566
2.5400000000	4.6858608247
2.5450000000	4.0831070113
2.5500000000	3.5483955911
2.5550000000	3.0857094029
2.5600000000	2.6886869415
2.5650000000	2.3548920258
2.5700000000	2.0764655448
2.5750000000	1.8484875647
2.5800000000	1.6672831104
2.5850000000	1.5288574728
2.5900000000	1.4266406913
2.5950000000	1.3513961316
2.6000000000	1.2935064959
2.6050000000	1.2523652774
2.6100000000	1.2167427359
2.6150000000	1.1860741831
2.6200000000	1.1609654471
2.6250000000	1.1420877712
2.6300000000	1.1298893990
2.6350000000	1.1245990476
2.6400000000	1.1263495765
2.6450000000	1.1352645826
2.6500000000	1.1515860219
2.6550000000	1.1753816816
2.6600000000	1.2070167119
2.6650000000	1.2468600054
2.6700000000	1.2953647247
2.6750000000	1.3530799984
2.6800000000	1.4206144564
2.6850000000	1.4985906727
2.6900000000	1.5875185698
2.6950000000	1.6876938271
2.7000000000	1.7990148720
2.7050000000	1.9341425174
2.7100000000	2.0816146854
2.7150000000	2.2385592385
2.7200000000	2.4007990069
2.7250000000	2.5630866405
2.7300000000	2.7195015844
2.7350000000	2.8637914358
2.7400000000	2.9894541692
2.7450000000	3.0907186557
2.7500000000	3.1586325308
2.7550000000	3.1877765273
2.7600000000	3.1740385496
2.7650000000	3.1169406548
2.7700000000	3.0203091185
2.7750000000	2.8918098523
2.7800000000	2.7414347971
2.7850000000	2.5797840262
2.7900000000	2.4163684183
2.7950000000	2.2588148229
2.8000000000	2.1125161722
2.8050000000	1.9644964904
2.8100000000	1.8378114024
2.8150000000	1.7321211191
2.8200000000	1.6457243007
2.8250000000	1.5763786060
2.8300000000	1.5218252474
2.8350000000	1.4801310986
2.8400000000	1.4492611801
2.8450000000	1.4292863104
2.8500000000	1.4187275812
2.8550000000	1.4170214758
2.8600000000	1.4237471968
2.8650000000	1.4385256488
2.8700000000	1.4609327507
2.8750000000	1.4904304398
2.8800000000	1.5263133215
2.8850000000	1.5676640152
2.8900000000	1.6133797617
2.8950000000	1.6622133872
2.9000000000	1.7128533638
2.9050000000	1.7737055197
2.9100000000	1.8320808474
2.9150000000	1.8861432679
2.9200000000	1.9339658906
2.9250000000	1.9733624342
2.9300000000	2.0023197858
2.9350000000	2.0177070869
2.9400000000	2.0181731059
2.9450000000	2.0031422893
2.9500000000	1.9734818364
2.9550000000	1.9314459269
2.9600000000	1.8802881748
2.9650000000	1.8236951831
2.9700000000	1.7652318457
2.9750000000	1.7079447272
2.9800000000	1.6541682066
2.9850000000	1.6054949573
2.9900000000	1.5628829105
2.9950000000	1.5267817219
3.0000000000	1.4972859883
