# energy (eV)    P(omega), $W$ = 400 nm, $h$ = 300 nm, $s$ = 20 nm, $d/W = 5$, $E_{\rm e}$ = 200 keV
0.2000000000	0.0789154368
0.2050000000	0.0796333531
0.2100000000	0.0801389538
0.2150000000	0.0804237235
0.2200000000	0.0804757571
0.2250000000	0.0802788821
0.2300000000	0.0798118221
0.2350000000	0.0790468748
0.2400000000	0.0779484178
0.2450000000	0.0764705390
0.2500000000	0.0745545433
0.2550000000	0.0721249067
0.2600000000	0.0690843082
0.2650000000	0.0722709581
0.2700000000	0.0803652031
0.2750000000	0.0919479172
0.2800000000	0.1080860993
0.2850000000	0.1318782220
0.2900000000	0.1613588533
0.2950000000	0.2036222410
0.3000000000	0.2604370444
0.3050000000	0.3475212849
0.3100000000	0.4688284411
0.3150000000	0.7035531341
0.3200000000	1.0701516709
0.3250000000	1.3211507270
0.3300000000	1.6683660619
0.3350000000	2.1605974139
0.3400000000	2.9333052636
0.3450000000	4.2590307263
0.3500000000	6.9026551301
0.3550000000	13.0223535621
0.3600000000	32.0043710490
0.3650000000	0.1442711630
0.3700000000	14.8333165845
0.3750000000	19.5054091555
0.3800000000	9.0889654368
0.3850000000	5.1199660573
0.3900000000	3.2840513795
0.3950000000	2.3142359647
0.4000000000	1.7527117477
0.4050000000	1.3866358448
0.4100000000	1.1483123708
0.4150000000	0.9911257043
0.4200000000	0.8917824438
0.4250000000	0.8137613064
0.4300000000	0.7215644187
0.4350000000	0.6485960087
0.4400000000	0.5908862903
0.4450000000	0.5450005132
0.4500000000	0.5087743255
0.4550000000	0.4800484282
0.4600000000	0.4576404490
0.4650000000	0.4402997693
0.4700000000	0.4271984721
0.4750000000	0.4177573114
0.4800000000	0.4114708050
0.4850000000	0.4078957177
0.4900000000	0.4067699562
0.4950000000	0.4078918716
0.5000000000	0.4110892000
0.5050000000	0.4162851694
0.5100000000	0.4234168977
0.5150000000	0.4324470448
0.5200000000	0.4433943599
0.5250000000	0.4562742450
0.5300000000	0.4712757722
0.5350000000	0.4884830417
0.5400000000	0.5080474334
0.5450000000	0.5301674423
0.5500000000	0.5551239247
0.5550000000	0.5832240622
0.5600000000	0.6148417715
0.5650000000	0.6504578291
0.5700000000	0.6907359504
0.5750000000	0.7361680669
0.5800000000	0.7876745977
0.5850000000	0.8465131147
0.5900000000	0.9135319466
0.5950000000	0.9905160348
0.6000000000	1.0798235319
0.6050000000	1.1832219430
0.6100000000	1.3047627115
0.6150000000	1.4478057093
0.6200000000	1.6181184207
0.6250000000	1.8239751806
0.6300000000	2.0738147105
0.6350000000	2.3834935103
0.6400000000	2.7705059992
0.6450000000	3.2665977126
0.6500000000	3.9123207868
0.6550000000	4.7763662762
0.6600000000	5.9747175637
0.6650000000	7.6906194772
0.6700000000	10.2889093343
0.6750000000	14.4665759183
0.6800000000	21.8514035482
0.6850000000	36.6695690269
0.6900000000	73.4919967689
0.6950000000	206.3038970425
0.7000000000	1000.5955878769
0.7050000000	486.4663104119
0.7100000000	124.9635928084
0.7150000000	53.1418166814
0.7200000000	29.0215702142
0.7250000000	18.2308256153
0.7300000000	12.5038904229
0.7350000000	9.1184065533
0.7400000000	6.9504608366
0.7450000000	5.4789416495
0.7500000000	4.4365428184
0.7550000000	3.6707211438
0.7600000000	3.0935029658
0.7650000000	2.6458776167
0.7700000000	2.2925225364
0.7750000000	2.0088440073
0.7800000000	1.7783168608
0.7850000000	1.5885009704
0.7900000000	1.4294790501
0.7950000000	1.2966663547
0.8000000000	1.1837395896
0.8050000000	1.0869901354
0.8100000000	1.0046272718
0.8150000000	0.9324395556
0.8200000000	0.8695923587
0.8250000000	0.8168526615
0.8300000000	0.7706879579
0.8350000000	0.7305544738
0.8400000000	0.6985943938
0.8450000000	0.6707075872
0.8500000000	0.6470626729
0.8550000000	0.6321176281
0.8600000000	0.6201466865
0.8650000000	0.6115758654
0.8700000000	0.6145621434
0.8750000000	0.6156091213
0.8800000000	0.6122969690
0.8850000000	0.5856742682
0.8900000000	0.4544988660
0.8950000000	-0.2028945308
0.9000000000	-3.7280322185
0.9050000000	-24.4958658118
0.9100000000	4.6644997952
0.9150000000	11.0493734688
0.9200000000	4.5868094315
0.9250000000	2.3861841360
0.9300000000	1.4565738909
0.9350000000	1.0124338155
0.9400000000	0.7728366416
0.9450000000	0.6400267547
0.9500000000	0.5457075821
0.9550000000	0.4825677993
0.9600000000	0.4435137741
0.9650000000	0.4112850808
0.9700000000	0.3882802785
0.9750000000	0.3725908584
0.9800000000	0.3630211547
0.9850000000	0.3612265010
0.9900000000	0.3646339865
0.9950000000	0.3785627578
1.0000000000	0.4119313220
1.0050000000	0.4898943165
1.0100000000	0.6942495022
1.0150000000	1.3947022378
1.0200000000	2.6771047177
1.0250000000	1.2178743444
1.0300000000	0.6244898081
1.0350000000	0.4476339933
1.0400000000	0.3780907117
1.0450000000	0.3454720890
1.0500000000	0.3291304338
1.0550000000	0.3205646530
1.0600000000	0.3167310030
1.0650000000	0.3160311304
1.0700000000	0.3175788733
1.0750000000	0.3210631507
1.0800000000	0.3258635013
1.0850000000	0.3323905068
1.0900000000	0.3418169378
1.0950000000	0.3528041389
1.1000000000	0.3654600023
1.1050000000	0.3798076272
1.1100000000	0.3960741079
1.1150000000	0.4144759898
1.1200000000	0.4352701673
1.1250000000	0.4586691884
1.1300000000	0.4852793364
1.1350000000	0.5155090987
1.1400000000	0.5499704431
1.1450000000	0.5894413763
1.1500000000	0.6345272196
1.1550000000	0.6871132413
1.1600000000	0.7483913761
1.1650000000	0.8199228148
1.1700000000	0.9020320876
1.1750000000	0.9853096423
1.1800000000	1.0641427780
1.1850000000	1.4790165977
1.1900000000	1.8354089196
1.1950000000	2.5159574867
1.2000000000	3.4264697214
1.2050000000	3.0057320858
1.2100000000	2.8766587000
1.2150000000	3.2026106445
1.2200000000	3.8303909736
1.2250000000	4.7944417603
1.2300000000	6.2603415446
1.2350000000	8.5792393062
1.2400000000	12.4854251853
1.2450000000	19.8407551036
1.2500000000	35.7703484382
1.2550000000	77.4317985109
1.2600000000	187.0305905449
1.2650000000	189.4547568196
1.2700000000	78.8095436889
1.2750000000	36.3786684714
1.2800000000	20.1472211477
1.2850000000	12.6698135294
1.2900000000	8.6840317346
1.2950000000	6.3290763406
1.3000000000	4.8290731338
1.3050000000	3.8191259874
1.3100000000	3.1069514315
1.3150000000	2.5923714893
1.3200000000	2.2109149980
1.3250000000	1.9238582173
1.3300000000	1.7076811489
1.3350000000	1.5479523305
1.3400000000	1.4371804768
1.3450000000	1.3733142167
1.3500000000	1.3656802328
1.3550000000	1.4355096893
1.3600000000	1.6368198970
1.3650000000	2.1070668230
1.3700000000	3.2300371693
1.3750000000	6.0240393645
1.3800000000	9.8400334518
1.3850000000	6.8739626136
1.3900000000	3.5029313957
1.3950000000	2.0324583937
1.4000000000	1.3310240501
1.4050000000	0.8999487330
1.4100000000	0.5098322881
1.4150000000	-0.0720798137
1.4200000000	-1.3748210470
1.4250000000	-4.8266881870
1.4300000000	-6.4898601995
1.4350000000	2.9733714035
1.4400000000	3.8033828525
1.4450000000	2.2803115573
1.4500000000	1.4189149945
1.4550000000	0.9781265228
1.4600000000	0.7222870336
1.4650000000	0.5200795369
1.4700000000	0.3037676357
1.4750000000	0.3570204273
1.4800000000	0.5234825840
1.4850000000	0.4753373606
1.4900000000	0.4208937077
1.4950000000	0.3856795260
1.5000000000	0.3625467758
1.5050000000	0.3472509589
1.5100000000	0.3368447712
1.5150000000	0.3311653279
1.5200000000	0.3269773208
1.5250000000	0.3254629540
1.5300000000	0.3267604102
1.5350000000	0.3314651470
1.5400000000	0.3410635940
1.5450000000	0.3588572567
1.5500000000	0.3922668197
1.5550000000	0.4560836841
1.5600000000	0.5518745126
1.5650000000	0.5672299467
1.5700000000	0.4808037956
1.5750000000	0.4201642997
1.5800000000	0.3940162704
1.5850000000	0.3858030875
1.5900000000	0.3868925814
1.5950000000	0.3935362161
1.6000000000	0.4041011029
1.6050000000	0.4180255721
1.6100000000	0.4348900239
1.6150000000	0.4546323697
1.6200000000	0.4775673192
1.6250000000	0.5039663759
1.6300000000	0.5342754923
1.6350000000	0.5690695199
1.6400000000	0.6090834865
1.6450000000	0.6552561323
1.6500000000	0.7087657915
1.6550000000	0.7711057157
1.6600000000	0.8442105599
1.6650000000	0.9305775457
1.6700000000	1.0326348470
1.6750000000	1.1563408641
1.6800000000	1.3069625844
1.6850000000	1.4927858701
1.6900000000	1.7255750573
1.6950000000	2.0225941733
1.7000000000	2.4098322740
1.7050000000	2.9440409053
1.7100000000	3.6893629279
1.7150000000	4.7727152178
1.7200000000	6.4238001633
1.7250000000	9.0432084993
1.7300000000	13.0685118877
1.7350000000	18.2340091502
1.7400000000	24.7634488211
1.7450000000	36.2216359893
1.7500000000	51.0957178037
1.7550000000	51.9176126477
1.7600000000	36.4235886643
1.7650000000	22.6885653652
1.7700000000	14.5443088738
1.7750000000	9.9131744171
1.7800000000	7.1763666324
1.7850000000	5.4928884254
1.7900000000	4.4488761823
1.7950000000	3.8515069708
1.8000000000	3.6103975057
1.8050000000	3.5340654507
1.8100000000	3.1443015491
1.8150000000	2.4363762641
1.8200000000	1.8707978468
1.8250000000	1.5792008296
1.8300000000	1.3748670968
1.8350000000	1.1932652642
1.8400000000	1.0451812531
1.8450000000	0.9276674926
1.8500000000	0.8329643050
1.8550000000	0.7547295518
1.8600000000	0.6827653905
1.8650000000	0.6219282164
1.8700000000	0.5604452020
1.8750000000	0.4718117175
1.8800000000	0.2697595570
1.8850000000	-0.1730965027
1.8900000000	-0.7687732030
1.8950000000	-0.8709892355
1.9000000000	0.0932212317
1.9050000000	0.9922124481
1.9100000000	1.0971110325
1.9150000000	0.9268535172
1.9200000000	0.7599846050
1.9250000000	0.6415716653
1.9300000000	0.5698566850
1.9350000000	0.5151007379
1.9400000000	0.4786681227
1.9450000000	0.4545430783
1.9500000000	0.4376785701
1.9550000000	0.4235806602
1.9600000000	0.4114217975
1.9650000000	0.4027931628
1.9700000000	0.3981880481
1.9750000000	0.3972995090
1.9800000000	0.3998796786
1.9850000000	0.4060039886
1.9900000000	0.4160745209
1.9950000000	0.4305939084
2.0000000000	0.4491848410
2.0050000000	0.4702771468
2.0100000000	0.4854130201
2.0150000000	0.4955170361
2.0200000000	0.5077012352
2.0250000000	0.5265003410
2.0300000000	0.5532495257
2.0350000000	0.5886180835
2.0400000000	0.6338209311
2.0450000000	0.6909653575
2.0500000000	0.7630773551
2.0550000000	0.8535193049
2.0600000000	0.9639216869
2.0650000000	1.0925489188
2.0700000000	1.2413335488
2.0750000000	1.4268732047
2.0800000000	1.6765702002
2.0850000000	2.0171420492
2.0900000000	2.4641266018
2.0950000000	2.9854097584
2.1000000000	3.4500179996
2.1050000000	3.6751485755
2.1100000000	3.5682325307
2.1150000000	3.3222076275
2.1200000000	3.1483134245
2.1250000000	3.1408901037
2.1300000000	3.3279259849
2.1350000000	3.7316042970
2.1400000000	4.3963574061
2.1450000000	5.4007932081
2.1500000000	6.8549889022
2.1550000000	8.8416302423
2.1600000000	11.2005098761
2.1650000000	13.1831140068
2.1700000000	13.6515881174
2.1750000000	12.2203950571
2.1800000000	9.8658620155
2.1850000000	7.6119905889
2.1900000000	5.8497969015
2.1950000000	4.5766668622
2.2000000000	3.6834651507
2.2050000000	3.0672360504
2.2100000000	2.6394518961
2.2150000000	2.3113357686
2.2200000000	2.0173138325
2.2250000000	1.7376424203
2.2300000000	1.4844149004
2.2350000000	1.2669829226
2.2400000000	1.0828259718
2.2450000000	0.9238140245
2.2500000000	0.7818541965
2.2550000000	0.6524199041
2.2600000000	0.5229824630
2.2650000000	0.4288175825
2.2700000000	0.3776641856
2.2750000000	0.3905349391
2.2800000000	0.4648189351
2.2850000000	0.5594125875
2.2900000000	0.6286513127
2.2950000000	0.6593347238
2.3000000000	0.6628374462
2.3050000000	0.6522396374
2.3100000000	0.6382838484
2.3150000000	0.6259212097
2.3200000000	0.6171090386
2.3250000000	0.6129206589
2.3300000000	0.6142234314
2.3350000000	0.6217359820
2.3400000000	0.6360727993
2.3450000000	0.6578561876
2.3500000000	0.6877457209
2.3550000000	0.7267302835
2.3600000000	0.7741699974
2.3650000000	0.8303603543
2.3700000000	0.8951454211
2.3750000000	0.9692287055
2.3800000000	1.0552843873
2.3850000000	1.1564854142
2.3900000000	1.2735331945
2.3950000000	1.4012157000
2.4000000000	1.5261343831
2.4050000000	1.6337863252
2.4100000000	1.6934551409
2.4150000000	1.6991587266
2.4200000000	1.6654854560
2.4250000000	1.6173116643
2.4300000000	1.5767157595
2.4350000000	1.5570256334
2.4400000000	1.5635603444
2.4450000000	1.5971802210
2.4500000000	1.6579937432
2.4550000000	1.7473560816
2.4600000000	1.8709951705
2.4650000000	2.0347825043
2.4700000000	2.2452566685
2.4750000000	2.5065013780
2.4800000000	2.8164553457
2.4850000000	3.1618939657
2.4900000000	3.5125664153
2.4950000000	3.8182731399
2.5000000000	4.0161962829
2.5050000000	4.0416448009
2.5100000000	3.8687877537
2.5150000000	3.5448074794
2.5200000000	3.1450933885
2.5250000000	2.7358770909
2.5300000000	2.3575310023
2.5350000000	2.0270182806
2.5400000000	1.7468362748
2.5450000000	1.5128282396
2.5500000000	1.3189700453
2.5550000000	1.1598491554
2.5600000000	1.0267961975
2.5650000000	0.9272211916
2.5700000000	0.8556726003
2.5750000000	0.8095989844
2.5800000000	0.7838868176
2.5850000000	0.7715424413
2.5900000000	0.7660025269
2.5950000000	0.7631801524
2.6000000000	0.7617575679
2.6050000000	0.7678292927
2.6100000000	0.7774507960
2.6150000000	0.7920953655
2.6200000000	0.8125457232
2.6250000000	0.8388500559
2.6300000000	0.8702658952
2.6350000000	0.9052174669
2.6400000000	0.9412971303
2.6450000000	0.9754517458
2.6500000000	1.0044478503
2.6550000000	1.0256342646
2.6600000000	1.0377794453
2.6650000000	1.0416066416
2.6700000000	1.0396410042
2.6750000000	1.0355737658
2.6800000000	1.0329817322
2.6850000000	1.0352068134
2.6900000000	1.0445763508
2.6950000000	1.0625206987
2.7000000000	1.0897257152
2.7050000000	1.1304454984
2.7100000000	1.1828480023
2.7150000000	1.2460862005
2.7200000000	1.3184091259
2.7250000000	1.3968443217
2.7300000000	1.4769043467
2.7350000000	1.5525392036
2.7400000000	1.6165522343
2.7450000000	1.6616365736
2.7500000000	1.6819026801
2.7550000000	1.6743833778
2.7600000000	1.6398366268
2.7650000000	1.5824722673
2.7700000000	1.5087321933
2.7750000000	1.4257537109
2.7800000000	1.3400811841
2.7850000000	1.2569502724
2.7900000000	1.1793962422
2.7950000000	1.1107405458
2.8000000000	1.0516704229
2.8050000000	0.9969597167
2.8100000000	0.9538234184
2.8150000000	0.9205636094
2.8200000000	0.8953357190
2.8250000000	0.8764471116
2.8300000000	0.8624591488
2.8350000000	0.8521785079
2.8400000000	0.8445968267
2.8450000000	0.8388579775
2.8500000000	0.8342744740
2.8550000000	0.8303899164
2.8600000000	0.8270497381
2.8650000000	0.8244240354
2.8700000000	0.8229643251
2.8750000000	0.8232916612
2.8800000000	0.8260590455
2.8850000000	0.8318274554
2.8900000000	0.8409793694
2.8950000000	0.8536667604
2.9000000000	0.8697853508
2.9050000000	0.8938943060
2.9100000000	0.9203319820
2.9150000000	0.9473333569
2.9200000000	0.9726678325
2.9250000000	0.9939392023
2.9300000000	1.0089226569
2.9350000000	1.0159547552
2.9400000000	1.0142553195
2.9450000000	1.0040764337
2.9500000000	0.9866082038
2.9550000000	0.9636754503
2.9600000000	0.9373531259
2.9650000000	0.9096066736
2.9700000000	0.8820524549
2.9750000000	0.8558529604
2.9800000000	0.8317238845
2.9850000000	0.8100114258
2.9900000000	0.7907961105
2.9950000000	0.7739936788
3.0000000000	0.7594374517
