# energy (eV)    P(omega), $W$ = 400 nm, $h$ = 300 nm, $s$ = 20 nm, $d/W = 5$, $E_{\rm e}$ = 200 keV
0.2000000000	0.1235043265
0.2050000000	0.1246279067
0.2100000000	0.1254189468
0.2150000000	0.1258641233
0.2200000000	0.1259448079
0.2250000000	0.1256356915
0.2300000000	0.1249034739
0.2350000000	0.1237047946
0.2400000000	0.1219838913
0.2450000000	0.1196688961
0.2500000000	0.1166679271
0.2550000000	0.1128627581
0.2600000000	0.1081010366
0.2650000000	0.1130900286
0.2700000000	0.1257630023
0.2750000000	0.1438976174
0.2800000000	0.1691642360
0.2850000000	0.2064137950
0.2900000000	0.2525685392
0.2950000000	0.3187351603
0.3000000000	0.4076818297
0.3050000000	0.5440156681
0.3100000000	0.7339241203
0.3150000000	1.1013882267
0.3200000000	1.6752947662
0.3250000000	2.0682132277
0.3300000000	2.6117455433
0.3350000000	3.3822795261
0.3400000000	4.5918612591
0.3450000000	6.6671135804
0.3500000000	10.8053435524
0.3550000000	20.3848219258
0.3600000000	50.0981372914
0.3650000000	0.2264975504
0.3700000000	23.2185796804
0.3750000000	30.5315132564
0.3800000000	14.2265971861
0.3850000000	8.0139488879
0.3900000000	5.1402235629
0.3950000000	3.6221966439
0.4000000000	2.7432607288
0.4050000000	2.1702564265
0.4100000000	1.7972179480
0.4150000000	1.5511781727
0.4200000000	1.3956755054
0.4250000000	1.2735477400
0.4300000000	1.1292376860
0.4350000000	1.0150247796
0.4400000000	0.9246950482
0.4450000000	0.8528721386
0.4500000000	0.7961681663
0.4550000000	0.7512033078
0.4600000000	0.7161267847
0.4650000000	0.6889810625
0.4700000000	0.6684702664
0.4750000000	0.6536876688
0.4800000000	0.6438420433
0.4850000000	0.6382396226
0.4900000000	0.6364701021
0.4950000000	0.6382178272
0.5000000000	0.6432130720
0.5050000000	0.6513356212
0.5100000000	0.6624869600
0.5150000000	0.6766085457
0.5200000000	0.6937296208
0.5250000000	0.7138741826
0.5300000000	0.7373379541
0.5350000000	0.7642524229
0.5400000000	0.7948542960
0.5450000000	0.8294540734
0.5500000000	0.8684909983
0.5550000000	0.9124455772
0.5600000000	0.9619026486
0.5650000000	1.0176142379
0.5700000000	1.0806185293
0.5750000000	1.1516849546
0.5800000000	1.2322532486
0.5850000000	1.3242905459
0.5900000000	1.4291236852
0.5950000000	1.5495447047
0.6000000000	1.6892423067
0.6050000000	1.8509809965
0.6100000000	2.0410981886
0.6150000000	2.2648491847
0.6200000000	2.5312554193
0.6250000000	2.8532595792
0.6300000000	3.2440610228
0.6350000000	3.7284624126
0.6400000000	4.3338277050
0.6450000000	5.1098126406
0.6500000000	6.1198468818
0.6550000000	7.4713748232
0.6600000000	9.3458132195
0.6650000000	12.0297850007
0.6700000000	16.0939527847
0.6750000000	22.6285111885
0.6800000000	34.1795567870
0.6850000000	57.3574409421
0.6900000000	114.9531522858
0.6950000000	322.6897374164
0.7000000000	1565.0679590256
0.7050000000	760.8942137729
0.7100000000	195.4573133198
0.7150000000	83.1192720226
0.7200000000	45.3924005944
0.7250000000	28.5144827118
0.7300000000	19.5569557170
0.7350000000	14.2617221863
0.7400000000	10.8708513000
0.7450000000	8.5692648132
0.7500000000	6.9388661707
0.7550000000	5.7410611231
0.7600000000	4.8382495947
0.7650000000	4.1381329021
0.7700000000	3.5854631482
0.7750000000	3.1417731509
0.7800000000	2.7812159880
0.7850000000	2.4843342968
0.7900000000	2.2356166261
0.7950000000	2.0278917719
0.8000000000	1.8512697218
0.8050000000	1.6999499677
0.8100000000	1.5711314418
0.8150000000	1.4582274622
0.8200000000	1.3599324817
0.8250000000	1.2774455875
0.8300000000	1.2052421559
0.8350000000	1.1424716172
0.8400000000	1.0924837042
0.8450000000	1.0488663559
0.8500000000	1.0118831797
0.8550000000	0.9885051439
0.8600000000	0.9697783433
0.8650000000	0.9563689232
0.8700000000	0.9610319318
0.8750000000	0.9626627634
0.8800000000	0.9574780001
0.8850000000	0.9158446908
0.8900000000	0.7107312906
0.8950000000	-0.3171844803
0.9000000000	-5.8291243523
0.9050000000	-38.3017092543
0.9100000000	7.2933607323
0.9150000000	17.2765996197
0.9200000000	7.1718307565
0.9250000000	3.7309843542
0.9300000000	2.2774766650
0.9350000000	1.5830392777
0.9400000000	1.2084201017
0.9450000000	1.0007704811
0.9500000000	0.8533060744
0.9550000000	0.7545947820
0.9600000000	0.6935455129
0.9650000000	0.6431729487
0.9700000000	0.6072285440
0.9750000000	0.5827310619
0.9800000000	0.5678156134
0.9850000000	0.5650780191
0.9900000000	0.5705110945
0.9950000000	0.5924612878
1.0000000000	0.6449433016
1.0050000000	0.7674758161
1.0100000000	1.0885980176
1.0150000000	2.1891632841
1.0200000000	4.2039040845
1.0250000000	1.9111424387
1.0300000000	0.9788736195
1.0350000000	0.7010206164
1.0400000000	0.5917582305
1.0450000000	0.5405002612
1.0500000000	0.5148054070
1.0550000000	0.5013234781
1.0600000000	0.4952698193
1.0650000000	0.4941331856
1.0700000000	0.4965212587
1.0750000000	0.5019438583
1.0800000000	0.5094285140
1.0850000000	0.5196154716
1.0900000000	0.5343368422
1.0950000000	0.5514996304
1.1000000000	0.5712721036
1.1050000000	0.5936896991
1.1100000000	0.6191072619
1.1150000000	0.6478629937
1.1200000000	0.6803582917
1.1250000000	0.7169254447
1.1300000000	0.7585116256
1.1350000000	0.8057555736
1.1400000000	0.8596135540
1.1450000000	0.9213017578
1.1500000000	0.9917668529
1.1550000000	1.0739554611
1.1600000000	1.1697319998
1.1650000000	1.2815404454
1.1700000000	1.4098978753
1.1750000000	1.5401396591
1.1800000000	1.6635271824
1.1850000000	2.3114271643
1.1900000000	2.8685828589
1.1950000000	3.9327336155
1.2000000000	5.3563510427
1.2050000000	4.6981976045
1.2100000000	4.4960295742
1.2150000000	5.0052590420
1.2200000000	5.9862771200
1.2250000000	7.4928492571
1.2300000000	9.7837153321
1.2350000000	13.4076336145
1.2400000000	19.5121262583
1.2450000000	31.0068412109
1.2500000000	55.9011318449
1.2550000000	121.0082251509
1.2600000000	292.2848124813
1.2650000000	296.0718146443
1.2700000000	123.1595746352
1.2750000000	56.8504332118
1.2800000000	31.4846938409
1.2850000000	19.7993793036
1.2900000000	13.5706087520
1.2950000000	9.8904095877
1.3000000000	7.5462815131
1.3050000000	5.9679822248
1.3100000000	4.8550200433
1.3150000000	4.0508408308
1.3200000000	3.4546905433
1.3250000000	3.0060508129
1.3300000000	2.6681614639
1.3350000000	2.4184629594
1.3400000000	2.2452370493
1.3450000000	2.1452582918
1.3500000000	2.1330662931
1.3550000000	2.2417699840
1.3600000000	2.5556320703
1.3650000000	3.2890914576
1.3700000000	5.0408905035
1.3750000000	9.3996953683
1.3800000000	15.3529434201
1.3850000000	10.7254586859
1.3900000000	5.4661744470
1.3950000000	3.1719452655
1.4000000000	2.0774573200
1.4050000000	1.4046608490
1.4100000000	0.7955221795
1.4150000000	-0.1134863077
1.4200000000	-2.1489422254
1.4250000000	-7.5426177671
1.4300000000	-10.1413145138
1.4350000000	4.6457180942
1.4400000000	5.9426912575
1.4450000000	3.5628332078
1.4500000000	2.2168891128
1.4550000000	1.5281783425
1.4600000000	1.1284922095
1.4650000000	0.8127143633
1.4700000000	0.4750809890
1.4750000000	0.5580124261
1.4800000000	0.8175937992
1.4850000000	0.7424164772
1.4900000000	0.6574324967
1.4950000000	0.6024598250
1.5000000000	0.5663442956
1.5050000000	0.5424643414
1.5100000000	0.5262195216
1.5150000000	0.5173582395
1.5200000000	0.5108274285
1.5250000000	0.5084760913
1.5300000000	0.5105225601
1.5350000000	0.5179012766
1.5400000000	0.5329421448
1.5450000000	0.5608191816
1.5500000000	0.6131612692
1.5550000000	0.7131481271
1.5600000000	0.8632373793
1.5650000000	0.8872852188
1.5700000000	0.7518261437
1.5750000000	0.6567637306
1.5800000000	0.6157434087
1.5850000000	0.6028210977
1.5900000000	0.6044694085
1.5950000000	0.6148134780
1.6000000000	0.6312935485
1.6050000000	0.6530278397
1.6100000000	0.6793581347
1.6150000000	0.7101859650
1.6200000000	0.7460021543
1.6250000000	0.7872300899
1.6300000000	0.8345659239
1.6350000000	0.8889072111
1.6400000000	0.9514017604
1.6450000000	1.0235155654
1.6500000000	1.1070887955
1.6550000000	1.2044535132
1.6600000000	1.3186310995
1.6650000000	1.4535215183
1.6700000000	1.6129164218
1.6750000000	1.8061217808
1.6800000000	2.0413624787
1.6850000000	2.3315779612
1.6900000000	2.6951395449
1.6950000000	3.1590060486
1.7000000000	3.7637598366
1.7050000000	4.5980196436
1.7100000000	5.7619347125
1.7150000000	7.4536631915
1.7200000000	10.0318302630
1.7250000000	14.1218700753
1.7300000000	20.4072048503
1.7350000000	28.4746306073
1.7400000000	38.6758146595
1.7450000000	56.5767711276
1.7500000000	79.8126055335
1.7550000000	81.0970500735
1.7600000000	56.8945876667
1.7650000000	35.4397651244
1.7700000000	22.7180517963
1.7750000000	15.4840075420
1.7800000000	11.2089594711
1.7850000000	8.5792004432
1.7900000000	6.9482128952
1.7950000000	6.0147275401
1.8000000000	5.6374903278
1.8050000000	5.5175983151
1.8100000000	4.9088935949
1.8150000000	3.8039401495
1.8200000000	2.9211663237
1.8250000000	2.4659141415
1.8300000000	2.1468691402
1.8350000000	1.8633386624
1.8400000000	1.6321358213
1.8450000000	1.4486527437
1.8500000000	1.3007771205
1.8550000000	1.1786093709
1.8600000000	1.0662246331
1.8650000000	0.9712101855
1.8700000000	0.8751773490
1.8750000000	0.7367290021
1.8800000000	0.4211312884
1.8850000000	-0.2705622055
1.8900000000	-1.2009283569
1.8950000000	-1.3605443826
1.9000000000	0.1454920026
1.9050000000	1.5496397930
1.9100000000	1.7134833778
1.9150000000	1.4475624541
1.9200000000	1.1869369109
1.9250000000	1.0019973054
1.9300000000	0.8899986435
1.9350000000	0.8044938306
1.9400000000	0.7476160941
1.9450000000	0.7099683545
1.9500000000	0.6836532345
1.9550000000	0.6616281017
1.9600000000	0.6426055659
1.9650000000	0.6290961303
1.9700000000	0.6218811024
1.9750000000	0.6204808881
1.9800000000	0.6245068195
1.9850000000	0.6340765303
1.9900000000	0.6498195156
1.9950000000	0.6725229156
2.0000000000	0.7015952449
2.0050000000	0.7345654984
2.0100000000	0.7581902918
2.0150000000	0.7739115083
2.0200000000	0.7928683509
2.0250000000	0.8221622579
2.0300000000	0.8638798519
2.0350000000	0.9190619416
2.0400000000	0.9896009001
2.0450000000	1.0787829891
2.0500000000	1.1913290692
2.0550000000	1.3324848951
2.0600000000	1.5047917367
2.0650000000	1.7055345958
2.0700000000	1.9377227849
2.0750000000	2.2272568511
2.0800000000	2.6169009613
2.0850000000	3.1483474553
2.0900000000	3.8458439508
2.0950000000	4.6592867196
2.1000000000	5.3843285957
2.1050000000	5.7357569028
2.1100000000	5.5691523615
2.1150000000	5.1855593817
2.1200000000	4.9145831129
2.1250000000	4.9034448309
2.1300000000	5.1958533233
2.1350000000	5.8264791309
2.1400000000	6.8647341509
2.1450000000	8.4333875060
2.1500000000	10.7043323818
2.1550000000	13.8066689032
2.1600000000	17.4902113336
2.1650000000	20.5861306137
2.1700000000	21.3176295647
2.1750000000	19.0826946608
2.1800000000	15.4059356787
2.1850000000	11.8863918482
2.1900000000	9.1346501179
2.1950000000	7.1466230096
2.2000000000	5.7518870642
2.2050000000	4.7896694359
2.2100000000	4.1217189066
2.2150000000	3.6093862585
2.2200000000	3.1502566631
2.2250000000	2.7135039242
2.2300000000	2.3180333392
2.2350000000	1.9784635949
2.2400000000	1.6908635592
2.2450000000	1.4425373924
2.2500000000	1.2208454365
2.2550000000	1.0187164357
2.2600000000	0.8165839478
2.2650000000	0.6695295512
2.2700000000	0.5896391709
2.2750000000	0.6097268220
2.2800000000	0.7257155572
2.2850000000	0.8734191096
2.2900000000	0.9815298192
2.2950000000	1.0294348365
2.3000000000	1.0348960740
2.3050000000	1.0183383272
2.3100000000	0.9965351064
2.3150000000	0.9772165861
2.3200000000	0.9634387584
2.3250000000	0.9568778235
2.3300000000	0.9588884119
2.3350000000	0.9705923537
2.3400000000	0.9929484331
2.3450000000	1.0269272668
2.3500000000	1.0735575885
2.3550000000	1.1343822801
2.3600000000	1.2084017188
2.3650000000	1.2960769506
2.3700000000	1.3971642596
2.3750000000	1.5127611027
2.3800000000	1.6470400613
2.3850000000	1.8049523506
2.3900000000	1.9875930946
2.3950000000	2.1868310157
2.4000000000	2.3817616213
2.4050000000	2.5497602126
2.4100000000	2.6428998769
2.4150000000	2.6518469129
2.4200000000	2.5993624868
2.4250000000	2.5242607584
2.4300000000	2.4609912566
2.4350000000	2.4303508840
2.4400000000	2.4406404048
2.4450000000	2.4932042392
2.4500000000	2.5882142757
2.4550000000	2.7277903879
2.4600000000	2.9208766367
2.4650000000	3.1766414777
2.4700000000	3.5052926554
2.4750000000	3.9132040054
2.4800000000	4.3971545678
2.4850000000	4.9364948389
2.4900000000	5.4839939480
2.4950000000	5.9612774852
2.5000000000	6.2702732562
2.5050000000	6.3099850089
2.5100000000	6.0400889432
2.5150000000	5.5342529588
2.5200000000	4.9101809916
2.5250000000	4.2712780204
2.5300000000	3.6805747320
2.5350000000	3.1645541917
2.5400000000	2.7271145237
2.5450000000	2.3617650650
2.5500000000	2.0591001984
2.5550000000	1.8106690122
2.5600000000	1.6029361272
2.5650000000	1.4474696319
2.5700000000	1.3357579498
2.5750000000	1.2638172262
2.5800000000	1.2236637332
2.5850000000	1.2043786700
2.5900000000	1.1957152402
2.5950000000	1.1912928951
2.6000000000	1.1890542449
2.6050000000	1.1985110743
2.6100000000	1.2135070639
2.6150000000	1.2363418163
2.6200000000	1.2682370740
2.6250000000	1.3092682571
2.6300000000	1.3582770614
2.6350000000	1.4128049341
2.6400000000	1.4690954497
2.6450000000	1.5223851409
2.6500000000	1.5676292415
2.6550000000	1.6006915958
2.6600000000	1.6196509718
2.6650000000	1.6256360310
2.6700000000	1.6225867230
2.6750000000	1.6162623708
2.6800000000	1.6122436931
2.6850000000	1.6157449779
2.6900000000	1.6303976403
2.6950000000	1.6584335916
2.7000000000	1.7009231318
2.7050000000	1.7645095255
2.7100000000	1.8463301918
2.7150000000	1.9450630761
2.7200000000	2.0579749550
2.7250000000	2.1804258273
2.7300000000	2.3054105678
2.7350000000	2.4234846719
2.7400000000	2.5234140432
2.7450000000	2.5937923905
2.7500000000	2.6254259390
2.7550000000	2.6136831270
2.7600000000	2.5597477742
2.7650000000	2.4701920361
2.7700000000	2.3550724004
2.7750000000	2.2255308612
2.7800000000	2.0917838050
2.7850000000	1.9620042180
2.7900000000	1.8409302691
2.7950000000	1.7337468406
2.8000000000	1.6415266453
2.8050000000	1.5561103703
2.8100000000	1.4887618102
2.8150000000	1.4368305909
2.8200000000	1.3974374715
2.8250000000	1.3679404133
2.8300000000	1.3460940031
2.8350000000	1.3300358046
2.8400000000	1.3181921530
2.8450000000	1.3092270611
2.8500000000	1.3020677096
2.8550000000	1.2960019016
2.8600000000	1.2907883389
2.8650000000	1.2866923262
2.8700000000	1.2844182120
2.8750000000	1.2849348558
2.8800000000	1.2892609796
2.8850000000	1.2982716830
2.8900000000	1.3125635827
2.8950000000	1.3323735493
2.9000000000	1.3575386075
2.9050000000	1.3951760957
2.9100000000	1.4364470854
2.9150000000	1.4785965530
2.9200000000	1.5181427214
2.9250000000	1.5513453894
2.9300000000	1.5747319289
2.9350000000	1.5857060040
2.9400000000	1.5830499994
2.9450000000	1.5671575999
2.9500000000	1.5398866540
2.9550000000	1.5040857567
2.9600000000	1.4629938719
2.9650000000	1.4196790442
2.9700000000	1.3766643883
2.9750000000	1.3357645499
2.9800000000	1.2980967779
2.9850000000	1.2642015125
2.9900000000	1.2342045503
2.9950000000	1.2079744333
3.0000000000	1.1852510743
