# energy (eV)    P(omega), $W$ = 300 nm, $h$ = 300 nm, $s$ = 20 nm, $d/W = 5$, $E_{\rm e}$ = 200 keV
0.2000000000	0.0930238939
0.2050000000	0.0944180234
0.2100000000	0.0957217382
0.2150000000	0.0969379829
0.2200000000	0.0980692619
0.2250000000	0.0991177060
0.2300000000	0.1000849384
0.2350000000	0.1009720354
0.2400000000	0.1017793958
0.2450000000	0.1025067057
0.2500000000	0.1031527610
0.2550000000	0.1037152722
0.2600000000	0.1041908090
0.2650000000	0.1045743886
0.2700000000	0.1048592666
0.2750000000	0.1050365053
0.2800000000	0.1050945050
0.2850000000	0.1050183550
0.2900000000	0.1047889542
0.2950000000	0.1043820707
0.3000000000	0.1037667482
0.3050000000	0.1029035414
0.3100000000	0.1017419494
0.3150000000	0.1075229162
0.3200000000	0.1143885431
0.3250000000	0.1230720230
0.3300000000	0.1347008167
0.3350000000	0.1491757570
0.3400000000	0.1681308946
0.3450000000	0.1911220169
0.3500000000	0.2211982128
0.3550000000	0.2609942092
0.3600000000	0.3129553744
0.3650000000	0.3853942534
0.3700000000	0.4809097186
0.3750000000	0.6137745892
0.3800000000	0.8059340550
0.3850000000	1.1053540327
0.3900000000	1.5783706624
0.3950000000	2.3818452439
0.4000000000	3.9135541055
0.4050000000	7.3476152375
0.4100000000	16.7179089482
0.4150000000	53.6523056576
0.4200000000	34.1843290452
0.4250000000	-64.3458636010
0.4300000000	17.8931770419
0.4350000000	11.1503860165
0.4400000000	6.8162959797
0.4450000000	4.4832936533
0.4500000000	3.1402369246
0.4550000000	2.3137255504
0.4600000000	1.7754217984
0.4650000000	1.4085973915
0.4700000000	1.1493310327
0.4750000000	0.9618229324
0.4800000000	0.8228005019
0.4850000000	0.7181892128
0.4900000000	0.6383362523
0.4950000000	0.5767616597
0.5000000000	0.5290361754
0.5050000000	0.4919100660
0.5100000000	0.4632907342
0.5150000000	0.4416376243
0.5200000000	0.4253404872
0.5250000000	0.4136737750
0.5300000000	0.4058587370
0.5350000000	0.4013258634
0.5400000000	0.3996552914
0.5450000000	0.4004962552
0.5500000000	0.4037378181
0.5550000000	0.4091822614
0.5600000000	0.4167285883
0.5650000000	0.4263314510
0.5700000000	0.4379495610
0.5750000000	0.4516641071
0.5800000000	0.4676070581
0.5850000000	0.4858645578
0.5900000000	0.5066034690
0.5950000000	0.5300337060
0.6000000000	0.5564226696
0.6050000000	0.5861578852
0.6100000000	0.6196091201
0.6150000000	0.6572815258
0.6200000000	0.6998489353
0.6250000000	0.7479574172
0.6300000000	0.8025618866
0.6350000000	0.8648525113
0.6400000000	0.9360676870
0.6450000000	1.0179949332
0.6500000000	1.1129845298
0.6550000000	1.2234830921
0.6600000000	1.3532508497
0.6650000000	1.5071127671
0.6700000000	1.6907411734
0.6750000000	1.9127861341
0.6800000000	2.1848798222
0.6850000000	2.5222607353
0.6900000000	2.9485303588
0.6950000000	3.4966975848
0.7000000000	4.2191967010
0.7050000000	5.1961867016
0.7100000000	6.5634872579
0.7150000000	8.5628734518
0.7200000000	11.6444577196
0.7250000000	16.7597124290
0.7300000000	26.1488718259
0.7350000000	46.2390755322
0.7400000000	101.3373666190
0.7450000000	336.1888865116
0.7500000000	1041.5273701236
0.7550000000	262.0219052419
0.7600000000	86.7766285449
0.7650000000	41.5789079569
0.7700000000	24.1810905858
0.7750000000	15.7824981753
0.7800000000	11.1069370545
0.7850000000	8.2492220498
0.7900000000	6.3732692094
0.7950000000	5.0794592461
0.8000000000	4.1493811931
0.8050000000	3.4566766657
0.8100000000	2.9284479476
0.8150000000	2.5097098238
0.8200000000	2.1792285001
0.8250000000	1.9131274456
0.8300000000	1.6951479485
0.8350000000	1.5159278153
0.8400000000	1.3656884241
0.8450000000	1.2396177293
0.8500000000	1.1330514650
0.8550000000	1.0410888290
0.8600000000	0.9625833420
0.8650000000	0.8955265544
0.8700000000	0.8362761324
0.8750000000	0.7858755923
0.8800000000	0.7431102022
0.8850000000	0.7047686222
0.8900000000	0.6740135195
0.8950000000	0.6460358123
0.9000000000	0.6238640277
0.9050000000	0.6085977378
0.9100000000	0.5946078834
0.9150000000	0.5861264693
0.9200000000	0.5851165642
0.9250000000	0.5843702327
0.9300000000	0.5758077339
0.9350000000	0.5500895072
0.9400000000	0.4067679227
0.9450000000	-0.2447113611
0.9500000000	-3.6829148943
0.9550000000	-21.1222920209
0.9600000000	4.9841363292
0.9650000000	8.7555073964
0.9700000000	3.8834255935
0.9750000000	2.0387065361
0.9800000000	1.2776799976
0.9850000000	0.9217445139
0.9900000000	0.7166607249
0.9950000000	0.5923023865
1.0000000000	0.5128992287
1.0050000000	0.4625601733
1.0100000000	0.4235343682
1.0150000000	0.3950234846
1.0200000000	0.3758202730
1.0250000000	0.3597014411
1.0300000000	0.3474560383
1.0350000000	0.3381921878
1.0400000000	0.3323025896
1.0450000000	0.3274046860
1.0500000000	0.3241731688
1.0550000000	0.3224167383
1.0600000000	0.3225678777
1.0650000000	0.3234228666
1.0700000000	0.3254724110
1.0750000000	0.3287250606
1.0800000000	0.3335027637
1.0850000000	0.3395657434
1.0900000000	0.3485100672
1.0950000000	0.3591321238
1.1000000000	0.3717884986
1.1050000000	0.3863748795
1.1100000000	0.4033522626
1.1150000000	0.4231023076
1.1200000000	0.4460777576
1.1250000000	0.4728692567
1.1300000000	0.5042692990
1.1350000000	0.5412640037
1.1400000000	0.5849766243
1.1450000000	0.6374567162
1.1500000000	0.7009337988
1.1550000000	0.7786306445
1.1600000000	0.8750940184
1.1650000000	0.9962239338
1.1700000000	1.1530714419
1.1750000000	1.3603083544
1.1800000000	1.6421887409
1.1850000000	2.0385807204
1.1900000000	2.6246229684
1.1950000000	3.5445841416
1.2000000000	5.1049635497
1.2050000000	8.0536672922
1.2100000000	14.5402459625
1.2150000000	32.0735532330
1.2200000000	78.7153073301
1.2250000000	70.7224455723
1.2300000000	28.2120198288
1.2350000000	13.2327994315
1.2400000000	7.5590297647
1.2450000000	4.9539597076
1.2500000000	3.5797327651
1.2550000000	2.7867036050
1.2600000000	2.3042182480
1.2650000000	2.0020902345
1.2700000000	1.8220593963
1.2750000000	1.7263520777
1.2800000000	1.6969983207
1.2850000000	1.7261635385
1.2900000000	1.8132442178
1.2950000000	1.9627759803
1.3000000000	2.1932021128
1.3050000000	2.5281772942
1.3100000000	3.0117836419
1.3150000000	3.7202888263
1.3200000000	4.7907945741
1.3250000000	6.4846188119
1.3300000000	9.3740546125
1.3350000000	14.7859820731
1.3400000000	26.3528407047
1.3450000000	55.0678673971
1.3500000000	116.8689794894
1.3550000000	108.9981861342
1.3600000000	50.2645560948
1.3650000000	24.6968530806
1.3700000000	14.1633473752
1.3750000000	9.1082970230
1.3800000000	6.3520054125
1.3850000000	4.6916463299
1.3900000000	3.6215296621
1.3950000000	2.8914260593
1.4000000000	2.3720977538
1.4050000000	1.9906753463
1.4100000000	1.7030302456
1.4150000000	1.4828078441
1.4200000000	1.3114278136
1.4250000000	1.1839964084
1.4300000000	1.1031660262
1.4350000000	1.0501397660
1.4400000000	0.7228338909
1.4450000000	-0.1844412121
1.4500000000	-1.7623271956
1.4550000000	-0.5881930283
1.4600000000	1.7948911094
1.4650000000	1.0391399282
1.4700000000	-0.6658787210
1.4750000000	-3.3641392660
1.4800000000	-1.4843969851
1.4850000000	2.5420049325
1.4900000000	2.0578332158
1.4950000000	1.3350471224
1.5000000000	0.9398899993
1.5050000000	0.7259754877
1.5100000000	0.6035241078
1.5150000000	0.5284464741
1.5200000000	0.4792704620
1.5250000000	0.4480545485
1.5300000000	0.4234538139
1.5350000000	0.4055793817
1.5400000000	0.3926262926
1.5450000000	0.3835179095
1.5500000000	0.3775090126
1.5550000000	0.3742882623
1.5600000000	0.3744940191
1.5650000000	0.3768290222
1.5700000000	0.3826681228
1.5750000000	0.3930862523
1.5800000000	0.4102262620
1.5850000000	0.4383087812
1.5900000000	0.4862638478
1.5950000000	0.5738346656
1.6000000000	0.7426347449
1.6050000000	1.0196954693
1.6100000000	1.1490033970
1.6150000000	0.9156925775
1.6200000000	0.6993296256
1.6250000000	0.5894063357
1.6300000000	0.5390338117
1.6350000000	0.5183684273
1.6400000000	0.5138922304
1.6450000000	0.5194230881
1.6500000000	0.5319524748
1.6550000000	0.5502486887
1.6600000000	0.5736848562
1.6650000000	0.6021806211
1.6700000000	0.6359754731
1.6750000000	0.6755583595
1.6800000000	0.7216423736
1.6850000000	0.7751788886
1.6900000000	0.8372722949
1.6950000000	0.9085621809
1.7000000000	0.9906175594
1.7050000000	1.0855420950
1.7100000000	1.2005946919
1.7150000000	1.3940851712
1.7200000000	1.6863733639
1.7250000000	2.0021743570
1.7300000000	2.3775974351
1.7350000000	2.7838248732
1.7400000000	3.1589615512
1.7450000000	3.6317826421
1.7500000000	4.3565343416
1.7550000000	5.4435345753
1.7600000000	7.0743624303
1.7650000000	9.5903093917
1.7700000000	13.6432258296
1.7750000000	20.4695525581
1.7800000000	32.0960304527
1.7850000000	49.2290878595
1.7900000000	61.1385109882
1.7950000000	52.0195701253
1.8000000000	34.5874313556
1.8050000000	21.8175633881
1.8100000000	14.3649977341
1.8150000000	9.9979247690
1.8200000000	7.3105623342
1.8250000000	5.5680232405
1.8300000000	4.3842524103
1.8350000000	3.5477967488
1.8400000000	2.9372886339
1.8450000000	2.4790124885
1.8500000000	2.1264624824
1.8550000000	1.8504803861
1.8600000000	1.6305582722
1.8650000000	1.4525998823
1.8700000000	1.3063346774
1.8750000000	1.1838858884
1.8800000000	1.0785502967
1.8850000000	0.9837940775
1.8900000000	0.8915325234
1.8950000000	0.7895183964
1.9000000000	0.6569987648
1.9050000000	0.4262385729
1.9100000000	0.0948837403
1.9150000000	-0.2238430762
1.9200000000	0.1632236311
1.9250000000	1.7085038295
1.9300000000	2.9429133922
1.9350000000	2.9702303642
1.9400000000	2.3841500646
1.9450000000	1.8067382640
1.9500000000	1.3975010085
1.9550000000	1.1268190890
1.9600000000	0.9464458676
1.9650000000	0.8262543770
1.9700000000	0.7377848416
1.9750000000	0.6729119236
1.9800000000	0.6236731371
1.9850000000	0.5843582263
1.9900000000	0.5507160810
1.9950000000	0.5191428481
2.0000000000	0.4889913486
2.0050000000	0.4710581779
2.0100000000	0.4831081322
2.0150000000	0.5145351213
2.0200000000	0.5357597336
2.0250000000	0.5449701343
2.0300000000	0.5519805191
2.0350000000	0.5613320658
2.0400000000	0.5752304865
2.0450000000	0.5946095967
2.0500000000	0.6204174636
2.0550000000	0.6535967647
2.0600000000	0.6942017663
2.0650000000	0.7389985779
2.0700000000	0.7799363997
2.0750000000	0.8107293509
2.0800000000	0.8360553700
2.0850000000	0.8660774779
2.0900000000	0.9072620413
2.0950000000	0.9618533103
2.1000000000	1.0315749075
2.1050000000	1.1153799613
2.1100000000	1.2191071667
2.1150000000	1.3469426141
2.1200000000	1.5049050432
2.1250000000	1.7015343636
2.1300000000	1.9489298127
2.1350000000	2.2644029020
2.1400000000	2.6729556486
2.1450000000	3.2111331196
2.1500000000	3.9321546062
2.1550000000	4.9112926209
2.1600000000	6.2448547725
2.1650000000	8.0144598810
2.1700000000	10.1890031410
2.1750000000	12.3573765775
2.1800000000	13.7191448608
2.1850000000	13.8467351538
2.1900000000	13.3296264865
2.1950000000	12.9627293198
2.2000000000	12.8345530450
2.2050000000	12.2316519550
2.2100000000	10.8487164741
2.2150000000	9.1086866476
2.2200000000	7.5260535659
2.2250000000	6.2435725409
2.2300000000	5.1905147438
2.2350000000	4.3090008965
2.2400000000	3.5851099194
2.2450000000	3.0134807184
2.2500000000	2.5705046150
2.2550000000	2.2276865352
2.2600000000	1.9586389553
2.2650000000	1.7395704892
2.2700000000	1.5479545548
2.2750000000	1.3647469689
2.2800000000	1.1855131501
2.2850000000	1.0321322397
2.2900000000	0.9418869748
2.2950000000	0.9315003716
2.3000000000	0.9722133694
2.3050000000	1.0151323072
2.3100000000	1.0302841662
2.3150000000	1.0186086467
2.3200000000	0.9930634660
2.3250000000	0.9669669480
2.3300000000	0.9473897157
2.3350000000	0.9363950029
2.3400000000	0.9324284573
2.3450000000	0.9309694875
2.3500000000	0.9261956111
2.3550000000	0.9143872308
2.3600000000	0.8965734009
2.3650000000	0.8772912350
2.3700000000	0.8611524156
2.3750000000	0.8507205393
2.3800000000	0.8464080292
2.3850000000	0.8471865830
2.3900000000	0.8517424443
2.3950000000	0.8588160576
2.4000000000	0.8690343830
2.4050000000	0.8850610857
2.4100000000	0.9080266713
2.4150000000	0.9394936408
2.4200000000	0.9805399385
2.4250000000	1.0323216198
2.4300000000	1.0962578505
2.4350000000	1.1741681529
2.4400000000	1.2683939770
2.4450000000	1.3819375327
2.4500000000	1.5186037783
2.4550000000	1.6831938806
2.4600000000	1.8816106561
2.4650000000	2.1209708712
2.4700000000	2.4094629418
2.4750000000	2.7553436687
2.4800000000	3.1673251163
2.4850000000	3.6490245584
2.4900000000	4.1959263100
2.4950000000	4.7880783812
2.5000000000	5.3824118065
2.5050000000	5.9332544881
2.5100000000	6.2944420854
2.5150000000	6.3839838421
2.5200000000	6.1881702851
2.5250000000	5.7677290409
2.5300000000	5.2191609870
2.5350000000	4.6300167557
2.5400000000	4.0580786634
2.5450000000	3.5335012580
2.5500000000	3.0684284015
2.5550000000	2.6649462669
2.5600000000	2.3172995910
2.5650000000	2.0242224449
2.5700000000	1.7794917621
2.5750000000	1.5793475890
2.5800000000	1.4209157523
2.5850000000	1.3008045288
2.5900000000	1.2130834901
2.5950000000	1.1492408463
2.6000000000	1.1003788735
2.6050000000	1.0655129889
2.6100000000	1.0346012174
2.6150000000	1.0072290278
2.6200000000	0.9840390811
2.6250000000	0.9656904201
2.6300000000	0.9526057871
2.6350000000	0.9449880436
2.6400000000	0.9429438115
2.6450000000	0.9465813125
2.6500000000	0.9561229325
2.6550000000	0.9716182324
2.6600000000	0.9934072356
2.6650000000	1.0218134564
2.6700000000	1.0572178212
2.6750000000	1.1000659167
2.6800000000	1.1508341894
2.6850000000	1.2100098887
2.6900000000	1.2780241065
2.6950000000	1.3552067431
2.7000000000	1.4416786914
2.7050000000	1.5475574222
2.7100000000	1.6647921547
2.7150000000	1.7919516897
2.7200000000	1.9266313605
2.7250000000	2.0654120870
2.7300000000	2.2038686832
2.7350000000	2.3365855031
2.7400000000	2.4571207812
2.7450000000	2.5590469398
2.7500000000	2.6328188033
2.7550000000	2.6721182083
2.7600000000	2.6721736999
2.7650000000	2.6319342891
2.7700000000	2.5546046452
2.7750000000	2.4471044355
2.7800000000	2.3185665873
2.7850000000	2.1787051812
2.7900000000	2.0362230176
2.7950000000	1.8980959173
2.8000000000	1.7692598774
2.8050000000	1.6383946090
2.8100000000	1.5257415508
2.8150000000	1.4310488118
2.8200000000	1.3528373460
2.8250000000	1.2891406453
2.8300000000	1.2379751900
2.8350000000	1.1976527069
2.8400000000	1.1663770682
2.8450000000	1.1442578840
2.8500000000	1.1299754795
2.8550000000	1.1230310125
2.8600000000	1.1230565919
2.8650000000	1.1297397385
2.8700000000	1.1427761348
2.8750000000	1.1618180895
2.8800000000	1.1864406417
2.8850000000	1.2161055806
2.8900000000	1.2501708629
2.8950000000	1.2878748430
2.9000000000	1.3283806156
2.9050000000	1.3795989819
2.9100000000	1.4307861816
2.9150000000	1.4801147308
2.9200000000	1.5254869290
2.9250000000	1.5644818251
2.9300000000	1.5948446226
2.9350000000	1.6134120342
2.9400000000	1.6186771906
2.9450000000	1.6099036611
2.9500000000	1.5876928447
2.9550000000	1.5539339254
2.9600000000	1.5114363339
2.9650000000	1.4634344517
2.9700000000	1.4130924213
2.9750000000	1.3631381551
2.9800000000	1.3156811911
2.9850000000	1.2721794438
2.9900000000	1.2335314862
2.9950000000	1.2001727290
3.0000000000	1.1722295566
