# energy (eV)    P(omega), $W$ = 300 nm, $h$ = 300 nm, $s$ = 20 nm, $d/W = 5$, $E_{\rm e}$ = 200 keV
0.2000000000	0.0622790821
0.2050000000	0.0632274723
0.2100000000	0.0641088033
0.2150000000	0.0649253144
0.2200000000	0.0656790215
0.2250000000	0.0663715889
0.2300000000	0.0670043458
0.2350000000	0.0675782177
0.2400000000	0.0680936756
0.2450000000	0.0685506537
0.2500000000	0.0689484848
0.2550000000	0.0692857335
0.2600000000	0.0695601660
0.2650000000	0.0697684623
0.2700000000	0.0699061100
0.2750000000	0.0699670661
0.2800000000	0.0699434507
0.2850000000	0.0698250931
0.2900000000	0.0695989847
0.2950000000	0.0692485504
0.3000000000	0.0687526353
0.3050000000	0.0680842799
0.3100000000	0.0672089539
0.3150000000	0.0711671161
0.3200000000	0.0758677105
0.3250000000	0.0818171568
0.3300000000	0.0897921618
0.3350000000	0.0997160566
0.3400000000	0.1127110865
0.3450000000	0.1284587890
0.3500000000	0.1490508627
0.3550000000	0.1762837356
0.3600000000	0.2118140448
0.3650000000	0.2613215348
0.3700000000	0.3265346478
0.3750000000	0.4171761920
0.3800000000	0.5481702540
0.3850000000	0.7521506704
0.3900000000	1.0741380581
0.3950000000	1.6206459968
0.4000000000	2.6617400930
0.4050000000	4.9941994013
0.4100000000	11.3537380041
0.4150000000	36.4015766295
0.4200000000	23.2085073745
0.4250000000	-43.5635388277
0.4300000000	12.0901432350
0.4350000000	7.5242281381
0.4400000000	4.5927190992
0.4450000000	3.0159091597
0.4500000000	2.1088099985
0.4550000000	1.5509465408
0.4600000000	1.1878310265
0.4650000000	0.9405242075
0.4700000000	0.7658137811
0.4750000000	0.6395022363
0.4800000000	0.5458715759
0.4850000000	0.4754165601
0.4900000000	0.4216221492
0.4950000000	0.3801166880
0.5000000000	0.3479114832
0.5050000000	0.3228160624
0.5100000000	0.3034175320
0.5150000000	0.2886746654
0.5200000000	0.2775060265
0.5250000000	0.2694183927
0.5300000000	0.2638873927
0.5350000000	0.2605278669
0.5400000000	0.2590554723
0.5450000000	0.2592327896
0.5500000000	0.2609799728
0.5550000000	0.2641616949
0.5600000000	0.2687058342
0.5650000000	0.2745779191
0.5700000000	0.2817447026
0.5750000000	0.2902551537
0.5800000000	0.3001885190
0.5850000000	0.3115954599
0.5900000000	0.3245776546
0.5950000000	0.3392653014
0.6000000000	0.3558236364
0.6050000000	0.3744964674
0.6100000000	0.3955133054
0.6150000000	0.4191902681
0.6200000000	0.4459493725
0.6250000000	0.4761947779
0.6300000000	0.5105251041
0.6350000000	0.5496862078
0.6400000000	0.5944531650
0.6450000000	0.6459466512
0.6500000000	0.7056389759
0.6550000000	0.7750619015
0.6600000000	0.8565718302
0.6650000000	0.9531890459
0.6700000000	1.0684637053
0.6750000000	1.2078123637
0.6800000000	1.3785155593
0.6850000000	1.5901070537
0.6900000000	1.8573521116
0.6950000000	2.2008964872
0.7000000000	2.6535303083
0.7050000000	3.2653680418
0.7100000000	4.1213064214
0.7150000000	5.3724502155
0.7200000000	7.3000313266
0.7250000000	10.4984203729
0.7300000000	16.3667434098
0.7350000000	28.9180679872
0.7400000000	63.3257367826
0.7450000000	209.9150910198
0.7500000000	649.8006973828
0.7550000000	163.3411542431
0.7600000000	54.0515437347
0.7650000000	25.8776707610
0.7700000000	15.0374341411
0.7750000000	9.8066086076
0.7800000000	6.8957536033
0.7850000000	5.1173361751
0.7900000000	3.9503505394
0.7950000000	3.1458131652
0.8000000000	2.5676759749
0.8050000000	2.1372526555
0.8100000000	1.8091507162
0.8150000000	1.5491721564
0.8200000000	1.3440570389
0.8250000000	1.1789542485
0.8300000000	1.0437563364
0.8350000000	0.9326263319
0.8400000000	0.8394942510
0.8450000000	0.7613622815
0.8500000000	0.6953264733
0.8550000000	0.6383572305
0.8600000000	0.5897267623
0.8650000000	0.5481823473
0.8700000000	0.5114847992
0.8750000000	0.4802537600
0.8800000000	0.4537329635
0.8850000000	0.4299579040
0.8900000000	0.4108396717
0.8950000000	0.3934492291
0.9000000000	0.3796148150
0.9050000000	0.3699903407
0.9100000000	0.3611638910
0.9150000000	0.3556889552
0.9200000000	0.3547408103
0.9250000000	0.3539724195
0.9300000000	0.3485402071
0.9350000000	0.3328865700
0.9400000000	0.2468759953
0.9450000000	-0.1429789596
0.9500000000	-2.1981354760
0.9550000000	-12.6140913305
0.9600000000	2.9750671189
0.9650000000	5.2217826658
0.9700000000	2.3149570678
0.9750000000	1.2151436430
0.9800000000	0.7616689884
0.9850000000	0.5496343978
0.9900000000	0.4275228250
0.9950000000	0.3534994074
1.0000000000	0.3062414191
1.0050000000	0.2762670488
1.0100000000	0.2530522630
1.0150000000	0.2360994340
1.0200000000	0.2246735500
1.0250000000	0.2151046564
1.0300000000	0.2078477959
1.0350000000	0.2023734124
1.0400000000	0.1989042656
1.0450000000	0.1960468489
1.0500000000	0.1941933935
1.0550000000	0.1932309764
1.0600000000	0.1934089795
1.0650000000	0.1940323732
1.0700000000	0.1953864360
1.0750000000	0.1974771112
1.0800000000	0.2004927307
1.0850000000	0.2043169433
1.0900000000	0.2099218051
1.0950000000	0.2165694678
1.1000000000	0.2244759740
1.1050000000	0.2336038799
1.1100000000	0.2442331378
1.1150000000	0.2566052225
1.1200000000	0.2709974344
1.1250000000	0.2878109168
1.1300000000	0.3075376417
1.1350000000	0.3308054857
1.1400000000	0.3583194291
1.1450000000	0.3914082711
1.1500000000	0.4314825678
1.1550000000	0.4805972048
1.1600000000	0.5416514737
1.1650000000	0.6183973157
1.1700000000	0.7179096345
1.1750000000	0.8495394560
1.1800000000	1.0287599412
1.1850000000	1.2810150953
1.1900000000	1.6542025281
1.1950000000	2.2404074655
1.2000000000	3.2350867387
1.2050000000	5.1151338887
1.2100000000	9.2508609071
1.2150000000	20.4266905776
1.2200000000	50.1382878416
1.2250000000	45.0031556636
1.2300000000	17.9105742301
1.2350000000	8.3681266218
1.2400000000	4.7530929938
1.2450000000	3.0913953540
1.2500000000	2.2124988173
1.2550000000	1.7026199452
1.2600000000	1.3893070511
1.2650000000	1.1895340235
1.2700000000	1.0658076847
1.2750000000	0.9937580400
1.2800000000	0.9614012458
1.2850000000	0.9630001198
1.2900000000	0.9970836257
1.2950000000	1.0651532406
1.3000000000	1.1763514744
1.3050000000	1.3422466400
1.3100000000	1.5851381713
1.3150000000	1.9437958139
1.3200000000	2.4882061344
1.3250000000	3.3515533635
1.3300000000	4.8264744750
1.3350000000	7.5905199691
1.3400000000	13.4985589355
1.3450000000	28.1619768198
1.3500000000	59.7030023243
1.3550000000	55.6440122786
1.3600000000	25.6506617576
1.3650000000	12.6018227022
1.3700000000	7.2276263374
1.3750000000	4.6490187807
1.3800000000	3.2431110183
1.3850000000	2.3961100388
1.3900000000	1.8499644810
1.3950000000	1.4771527578
1.4000000000	1.2115814541
1.4050000000	1.0160320782
1.4100000000	0.8677625206
1.4150000000	0.7528444206
1.4200000000	0.6609130766
1.4250000000	0.5872804968
1.4300000000	0.5277126711
1.4350000000	0.4671452189
1.4400000000	0.2753928271
1.4450000000	-0.2211854774
1.4500000000	-1.1296154945
1.4550000000	-0.4102562790
1.4600000000	1.0306774320
1.4650000000	0.6271947262
1.4700000000	-0.2676396247
1.4750000000	-1.6355707879
1.4800000000	-0.7129111591
1.4850000000	1.2839279680
1.4900000000	1.0387100279
1.4950000000	0.6767911871
1.5000000000	0.4786912505
1.5050000000	0.3710768610
1.5100000000	0.3093825159
1.5150000000	0.2714092910
1.5200000000	0.2464315803
1.5250000000	0.2305332758
1.5300000000	0.2179025981
1.5350000000	0.2086583689
1.5400000000	0.2018885279
1.5450000000	0.1970359526
1.5500000000	0.1937353122
1.5550000000	0.1918019356
1.5600000000	0.1915465968
1.5650000000	0.1922566156
1.5700000000	0.1945816741
1.5750000000	0.1989643999
1.5800000000	0.2063026785
1.5850000000	0.2183648683
1.5900000000	0.2388804629
1.5950000000	0.2760448985
1.6000000000	0.3469366047
1.6050000000	0.4617025794
1.6100000000	0.5126110750
1.6150000000	0.4140023663
1.6200000000	0.3248402478
1.6250000000	0.2806198680
1.6300000000	0.2612870422
1.6350000000	0.2543675072
1.6400000000	0.2542753134
1.6450000000	0.2584837775
1.6500000000	0.2657998465
1.6550000000	0.2757249596
1.6600000000	0.2880658149
1.6650000000	0.3028446128
1.6700000000	0.3202290634
1.6750000000	0.3405111302
1.6800000000	0.3641053228
1.6850000000	0.3915634634
1.6900000000	0.4235935690
1.6950000000	0.4608684796
1.7000000000	0.5048081374
1.7050000000	0.5580014211
1.7100000000	0.6235179866
1.7150000000	0.7165398868
1.7200000000	0.8454422716
1.7250000000	1.0016971248
1.7300000000	1.1979349592
1.7350000000	1.4076377793
1.7400000000	1.5927733991
1.7450000000	1.8229938587
1.7500000000	2.1801669860
1.7550000000	2.7193400095
1.7600000000	3.5300972755
1.7650000000	4.7816447734
1.7700000000	6.7976821016
1.7750000000	10.1921826688
1.7800000000	15.9706884223
1.7850000000	24.4789514417
1.7900000000	30.3783946808
1.7950000000	25.8267580410
1.8000000000	17.1568949481
1.8050000000	10.8118379701
1.8100000000	7.1108248042
1.8150000000	4.9429163268
1.8200000000	3.6091725154
1.8250000000	2.7444175660
1.8300000000	2.1568771049
1.8350000000	1.7415320185
1.8400000000	1.4381189366
1.8450000000	1.2100059490
1.8500000000	1.0340749086
1.8550000000	0.8958221632
1.8600000000	0.7849915965
1.8650000000	0.6944958284
1.8700000000	0.6191025657
1.8750000000	0.5547094803
1.8800000000	0.4977094048
1.8850000000	0.4444440776
1.8900000000	0.3902644446
1.8950000000	0.3281013951
1.9000000000	0.2460580350
1.9050000000	0.1064148837
1.9100000000	-0.0963567662
1.9150000000	-0.3147389592
1.9200000000	-0.2170835951
1.9250000000	0.4209414037
1.9300000000	0.9334279835
1.9350000000	0.9750205522
1.9400000000	0.8037311503
1.9450000000	0.6306591507
1.9500000000	0.5062157208
1.9550000000	0.4227228255
1.9600000000	0.3663911974
1.9650000000	0.3290966970
1.9700000000	0.3008545343
1.9750000000	0.2801270854
1.9800000000	0.2645150900
1.9850000000	0.2523236666
1.9900000000	0.2423450458
1.9950000000	0.2336008789
2.0000000000	0.2258552022
2.0050000000	0.2219084403
2.0100000000	0.2255289685
2.0150000000	0.2341854640
2.0200000000	0.2409993307
2.0250000000	0.2456448949
2.0300000000	0.2506047691
2.0350000000	0.2569499717
2.0400000000	0.2654977797
2.0450000000	0.2767801932
2.0500000000	0.2914367503
2.0550000000	0.3101160471
2.0600000000	0.3328489786
2.0650000000	0.3574758801
2.0700000000	0.3786389988
2.0750000000	0.3920830537
2.0800000000	0.4007130627
2.0850000000	0.4110172337
2.0900000000	0.4270121643
2.0950000000	0.4499255222
2.1000000000	0.4804176572
2.1050000000	0.5177910855
2.1100000000	0.5646533444
2.1150000000	0.6228146151
2.1200000000	0.6949614639
2.1250000000	0.7849558620
2.1300000000	0.8983044004
2.1350000000	1.0429051809
2.1400000000	1.2301746153
2.1450000000	1.4767998840
2.1500000000	1.8070727561
2.1550000000	2.2553275584
2.1600000000	2.8654627546
2.1650000000	3.6746018609
2.1700000000	4.6686827928
2.1750000000	5.6607848680
2.1800000000	6.2880594465
2.1850000000	6.3586756393
2.1900000000	6.1427385949
2.1950000000	5.9993789386
2.2000000000	5.9580939490
2.2050000000	5.6715483727
2.2100000000	4.9941264716
2.2150000000	4.1336509960
2.2200000000	3.3463426964
2.2250000000	2.7157555965
2.2300000000	2.2194319080
2.2350000000	1.8252176702
2.2400000000	1.5124528706
2.2450000000	1.2683340787
2.2500000000	1.0779504291
2.2550000000	0.9277398241
2.2600000000	0.8063818262
2.2650000000	0.7044576392
2.2700000000	0.6140533572
2.2750000000	0.5296145255
2.2800000000	0.4515341109
2.2850000000	0.3896144835
2.2900000000	0.3583754398
2.2950000000	0.3628214889
2.3000000000	0.3886293102
2.3050000000	0.4138507311
2.3100000000	0.4247372262
2.3150000000	0.4219867722
2.3200000000	0.4116188779
2.3250000000	0.3997786597
2.3300000000	0.3897869229
2.3350000000	0.3827946276
2.3400000000	0.3785633879
2.3450000000	0.3758612599
2.3500000000	0.3730434799
2.3550000000	0.3690582546
2.3600000000	0.3641972919
2.3650000000	0.3597363298
2.3700000000	0.3569400922
2.3750000000	0.3564266226
2.3800000000	0.3580910802
2.3850000000	0.3612993709
2.3900000000	0.3653450992
2.3950000000	0.3696241146
2.4000000000	0.3744970149
2.4050000000	0.3813071729
2.4100000000	0.3907374920
2.4150000000	0.4036539012
2.4200000000	0.4206453599
2.4250000000	0.4422476808
2.4300000000	0.4690618757
2.4350000000	0.5018412894
2.4400000000	0.5415552053
2.4450000000	0.5894541333
2.4500000000	0.6471295994
2.4550000000	0.7165950984
2.4600000000	0.8003369693
2.4650000000	0.9013636140
2.4700000000	1.0231598036
2.4750000000	1.1692727527
2.4800000000	1.3435393285
2.4850000000	1.5476848500
2.4900000000	1.7800196701
2.4950000000	2.0321403191
2.5000000000	2.2853777245
2.5050000000	2.5194298395
2.5100000000	2.6706338120
2.5150000000	2.7037370680
2.5200000000	2.6141813398
2.5250000000	2.4299867691
2.5300000000	2.1937824323
2.5350000000	1.9429600833
2.5400000000	1.7012034418
2.5450000000	1.4802179999
2.5500000000	1.2843777762
2.5550000000	1.1142385093
2.5600000000	0.9673317245
2.5650000000	0.8433353873
2.5700000000	0.7397753963
2.5750000000	0.6551872848
2.5800000000	0.5884273191
2.5850000000	0.5380786006
2.5900000000	0.5015832703
2.5950000000	0.4752383936
2.6000000000	0.4551709651
2.6050000000	0.4408585841
2.6100000000	0.4280074393
2.6150000000	0.4164594882
2.6200000000	0.4065033008
2.6250000000	0.3984225879
2.6300000000	0.3923886594
2.6350000000	0.3884757902
2.6400000000	0.3867229465
2.6450000000	0.3871741487
2.6500000000	0.3899239190
2.6550000000	0.3949881631
2.6600000000	0.4024997456
2.6650000000	0.4125760385
2.6700000000	0.4253553378
2.6750000000	0.4410017280
2.6800000000	0.4596978312
2.6850000000	0.4816431009
2.6900000000	0.5070302779
2.6950000000	0.5360340590
2.7000000000	0.5687754602
2.7050000000	0.6091969741
2.7100000000	0.6545013624
2.7150000000	0.7043775859
2.7200000000	0.7581533955
2.7250000000	0.8147089362
2.7300000000	0.8723972439
2.7350000000	0.9289745172
2.7400000000	0.9815637090
2.7450000000	1.0271276481
2.7500000000	1.0612574426
2.7550000000	1.0809247148
2.7600000000	1.0838550007
2.7650000000	1.0694632452
2.7700000000	1.0390602348
2.7750000000	0.9955870333
2.7800000000	0.9429442299
2.7850000000	0.8852813827
2.7900000000	0.8263054888
2.7950000000	0.7689844413
2.8000000000	0.7154116616
2.8050000000	0.6609362497
2.8100000000	0.6139109037
2.8150000000	0.5742283536
2.8200000000	0.5412648478
2.8250000000	0.5141913796
2.8300000000	0.4921763324
2.8350000000	0.4745109479
2.8400000000	0.4604417698
2.8450000000	0.4500195494
2.8500000000	0.4426921148
2.8550000000	0.4382537268
2.8600000000	0.4365588357
2.8650000000	0.4374924523
2.8700000000	0.4409522131
2.8750000000	0.4468333667
2.8800000000	0.4550147274
2.8850000000	0.4653456152
2.8900000000	0.4776405103
2.8950000000	0.4916728293
2.9000000000	0.5071738184
2.9050000000	0.5275361153
2.9100000000	0.5484416609
2.9150000000	0.5690842516
2.9200000000	0.5884944162
2.9250000000	0.6055480779
2.9300000000	0.6191887589
2.9350000000	0.6280099539
2.9400000000	0.6313071416
2.9450000000	0.6287195579
2.9500000000	0.6204595691
2.9550000000	0.6072807412
2.9600000000	0.5903308236
2.9650000000	0.5709413217
2.9700000000	0.5504188274
2.9750000000	0.5298970189
2.9800000000	0.5102551223
2.9850000000	0.4921064909
2.9900000000	0.4758285727
2.9950000000	0.4616136323
3.0000000000	0.4495236598
