# energy (eV)    P(omega), $W$ = 300 nm, $h$ = 300 nm, $s$ = 20 nm, $d/W = 5$, $E_{\rm e}$ = 200 keV
0.2000000000	0.0681209747
0.2050000000	0.0690994962
0.2100000000	0.0700193112
0.2150000000	0.0708822551
0.2200000000	0.0716899098
0.2250000000	0.0724435833
0.2300000000	0.0731442359
0.2350000000	0.0737924675
0.2400000000	0.0743884491
0.2450000000	0.0749317753
0.2500000000	0.0754215472
0.2550000000	0.0758560384
0.2600000000	0.0762327261
0.2650000000	0.0765480939
0.2700000000	0.0767973222
0.2750000000	0.0769741013
0.2800000000	0.0770702531
0.2850000000	0.0770753209
0.2900000000	0.0769758708
0.2950000000	0.0767549630
0.3000000000	0.0763907840
0.3050000000	0.0758557757
0.3100000000	0.0751145589
0.3150000000	0.0791608269
0.3200000000	0.0839670269
0.3250000000	0.0900426028
0.3300000000	0.0981727184
0.3350000000	0.1082959453
0.3400000000	0.1215538531
0.3450000000	0.1376486866
0.3500000000	0.1587123681
0.3550000000	0.1865974983
0.3600000000	0.2230343477
0.3650000000	0.2738552574
0.3700000000	0.3409322753
0.3750000000	0.4343102565
0.3800000000	0.5694588149
0.3850000000	0.7801758323
0.3900000000	1.1133157608
0.3950000000	1.6796105505
0.4000000000	2.7598979539
0.4050000000	5.1834992641
0.4100000000	11.8013653762
0.4150000000	37.9051732688
0.4200000000	24.1275664652
0.4250000000	-45.5457668179
0.4300000000	12.6922231838
0.4350000000	7.9194557301
0.4400000000	4.8485260185
0.4450000000	3.1943179162
0.4500000000	2.2414051096
0.4550000000	1.6546332749
0.4600000000	1.2722533935
0.4650000000	1.0115488754
0.4700000000	0.8272030251
0.4750000000	0.6938369151
0.4800000000	0.5949359675
0.4850000000	0.5205148200
0.4900000000	0.4637203310
0.4950000000	0.4199499565
0.5000000000	0.3860586473
0.5050000000	0.3597361441
0.5100000000	0.3394978622
0.5150000000	0.3242514171
0.5200000000	0.3128481990
0.5250000000	0.3047766500
0.5300000000	0.2994831309
0.5350000000	0.2965638743
0.5400000000	0.2957217053
0.5450000000	0.2967085249
0.5500000000	0.2994504483
0.5550000000	0.3038090865
0.5600000000	0.3097170260
0.5650000000	0.3171458033
0.5700000000	0.3260713367
0.5750000000	0.3365574995
0.5800000000	0.3487081157
0.5850000000	0.3625914094
0.5900000000	0.3783371742
0.5950000000	0.3961063636
0.6000000000	0.4161037445
0.6050000000	0.4386228291
0.6100000000	0.4639463628
0.6150000000	0.4924580738
0.6200000000	0.5246701522
0.6250000000	0.5610729979
0.6300000000	0.6023914431
0.6350000000	0.6495289484
0.6400000000	0.7034259547
0.6450000000	0.7654392518
0.6500000000	0.8373533669
0.6550000000	0.9210263482
0.6600000000	1.0193128155
0.6650000000	1.1358784875
0.6700000000	1.2750329181
0.6750000000	1.4433452010
0.6800000000	1.6496599773
0.6850000000	1.9055551791
0.6900000000	2.2289776366
0.6950000000	2.6450192102
0.7000000000	3.1935618167
0.7050000000	3.9355726555
0.7100000000	4.9743854906
0.7150000000	6.4939694857
0.7200000000	8.8368932043
0.7250000000	12.7274370750
0.7300000000	19.8712812970
0.7350000000	35.1629232003
0.7400000000	77.1174561108
0.7450000000	256.0228924265
0.7500000000	793.7485723902
0.7550000000	199.8350510156
0.7600000000	66.2313213440
0.7650000000	31.7588517986
0.7700000000	18.4843335276
0.7750000000	12.0738087889
0.7800000000	8.5037037058
0.7850000000	6.3208667876
0.7900000000	4.8874359966
0.7950000000	3.8984743943
0.8000000000	3.1873025100
0.8050000000	2.6574584900
0.8100000000	2.2532845969
0.8150000000	1.9327632395
0.8200000000	1.6797197019
0.8250000000	1.4759146841
0.8300000000	1.3089105160
0.8350000000	1.1715721049
0.8400000000	1.0564154405
0.8450000000	0.9597630505
0.8500000000	0.8780571492
0.8550000000	0.8075286206
0.8600000000	0.7473196756
0.8650000000	0.6959031533
0.8700000000	0.6504587037
0.8750000000	0.6118219503
0.8800000000	0.5790675106
0.8850000000	0.5496982523
0.8900000000	0.5262016830
0.8950000000	0.5048244984
0.9000000000	0.4879506424
0.9050000000	0.4764588292
0.9100000000	0.4659340274
0.9150000000	0.4597080441
0.9200000000	0.4593394820
0.9250000000	0.4591459655
0.9300000000	0.4527262849
0.9350000000	0.4326238666
0.9400000000	0.3191420062
0.9450000000	-0.1979821560
0.9500000000	-2.9297873488
0.9550000000	-16.7958757665
0.9600000000	3.9671752542
0.9650000000	6.9727570806
0.9700000000	3.0947721528
0.9750000000	1.6254166396
0.9800000000	1.0189160828
0.9850000000	0.7351753411
0.9900000000	0.5716068448
0.9950000000	0.4723895815
1.0000000000	0.4090272762
1.0050000000	0.3688744034
1.0100000000	0.3377109821
1.0150000000	0.3149307830
1.0200000000	0.2995939341
1.0250000000	0.2866872551
1.0300000000	0.2768604503
1.0350000000	0.2693998414
1.0400000000	0.2646344152
1.0450000000	0.2606277109
1.0500000000	0.2579312774
1.0550000000	0.2563907047
1.0600000000	0.2563622093
1.0650000000	0.2568546030
1.0700000000	0.2582680936
1.0750000000	0.2606073710
1.0800000000	0.2641347545
1.0850000000	0.2686191554
1.0900000000	0.2753034813
1.0950000000	0.2832525818
1.1000000000	0.2927455249
1.1050000000	0.3036603482
1.1100000000	0.3163535836
1.1150000000	0.3311065294
1.1200000000	0.3482643670
1.1250000000	0.3682209714
1.1300000000	0.3915717111
1.1350000000	0.4190355436
1.1400000000	0.4514446804
1.1450000000	0.4902575419
1.1500000000	0.5371104143
1.1550000000	0.5943451395
1.1600000000	0.6652651016
1.1650000000	0.7541693005
1.1700000000	0.8690463611
1.1750000000	1.0205579311
1.1800000000	1.2263041010
1.1850000000	1.5151978897
1.1900000000	1.9418117409
1.1950000000	2.6107422950
1.2000000000	3.7444349075
1.2050000000	5.8857112699
1.2100000000	10.5949794153
1.2150000000	23.3256965411
1.2200000000	57.2083685282
1.2250000000	51.4488922078
1.2300000000	20.5836492606
1.2350000000	9.7050080868
1.2400000000	5.5865610945
1.2450000000	3.6991641115
1.2500000000	2.7075871354
1.2550000000	2.1399473260
1.2600000000	1.7997899403
1.2650000000	1.5927596531
1.2700000000	1.4771646849
1.2750000000	1.4261074871
1.2800000000	1.4274265906
1.2850000000	1.4766650854
1.2900000000	1.5751637638
1.2950000000	1.7285355743
1.3000000000	1.9544060598
1.3050000000	2.2757205166
1.3100000000	2.7339789298
1.3150000000	3.4006816156
1.3200000000	4.4038403062
1.3250000000	5.9879163574
1.3300000000	8.6864775956
1.3350000000	13.7383868765
1.3400000000	24.5350037183
1.3450000000	51.3437157761
1.3500000000	109.0722409207
1.3550000000	101.7916838807
1.3600000000	46.9589231957
1.3650000000	23.0760439540
1.3700000000	13.2338176554
1.3750000000	8.5097372207
1.3800000000	5.9338167283
1.3850000000	4.3823671693
1.3900000000	3.3829663514
1.3950000000	2.7015493715
1.4000000000	2.2176661233
1.4050000000	1.8633412462
1.4100000000	1.5978133242
1.4150000000	1.3974587266
1.4200000000	1.2468009830
1.4250000000	1.1459126668
1.4300000000	1.1090170450
1.4350000000	1.1296884823
1.4400000000	0.8702345679
1.4450000000	0.0754134925
1.4500000000	-1.2148410238
1.4550000000	-0.3404837285
1.4600000000	1.4715647991
1.4650000000	0.7965964316
1.4700000000	-0.7527274052
1.4750000000	-3.2936557196
1.4800000000	-1.4659125271
1.4850000000	2.4091936956
1.4900000000	1.9529045103
1.4950000000	1.2640525359
1.5000000000	0.8881409093
1.5050000000	0.6857269982
1.5100000000	0.5703575188
1.5150000000	0.5002942608
1.5200000000	0.4550350968
1.5250000000	0.4269145999
1.5300000000	0.4054343436
1.5350000000	0.3906287483
1.5400000000	0.3808770066
1.5450000000	0.3753095630
1.5500000000	0.3733650236
1.5550000000	0.3750578638
1.5600000000	0.3813884006
1.5650000000	0.3918436891
1.5700000000	0.4087714363
1.5750000000	0.4350357157
1.5800000000	0.4760141668
1.5850000000	0.5421746544
1.5900000000	0.6555713823
1.5950000000	0.8650087237
1.6000000000	1.2735763368
1.6050000000	1.9491311548
1.6100000000	2.2620031078
1.6150000000	1.6754903059
1.6200000000	1.1252707742
1.6250000000	0.8348281536
1.6300000000	0.6889940076
1.6350000000	0.6139106519
1.6400000000	0.5758504897
1.6450000000	0.5591375701
1.6500000000	0.5559217832
1.6550000000	0.5625256965
1.6600000000	0.5767544322
1.6650000000	0.5976055893
1.6700000000	0.6246978802
1.6750000000	0.6580332302
1.6800000000	0.6979093494
1.6850000000	0.7447881803
1.6900000000	0.7990778506
1.6950000000	0.8600056100
1.7000000000	0.9265461531
1.7050000000	0.9947280828
1.7100000000	1.0725227851
1.7150000000	1.2659490594
1.7200000000	1.6053577767
1.7250000000	1.9162863818
1.7300000000	2.2499366975
1.7350000000	2.6165572308
1.7400000000	2.9763251965
1.7450000000	3.4384356570
1.7500000000	4.1372508631
1.7550000000	5.1773558699
1.7600000000	6.7335409017
1.7650000000	9.1324112883
1.7700000000	12.9965707229
1.7750000000	19.5066772416
1.7800000000	30.5997776499
1.7850000000	46.9595267880
1.7900000000	58.3581585554
1.7950000000	49.6931607817
1.8000000000	33.0722323512
1.8050000000	20.8859053437
1.8100000000	13.7706017580
1.8150000000	9.6000404690
1.8200000000	7.0334198182
1.8250000000	5.3694714856
1.8300000000	4.2397089689
1.8350000000	3.4422766597
1.8400000000	2.8613110915
1.8450000000	2.4265272962
1.8500000000	2.0936302904
1.8550000000	1.8349036740
1.8600000000	1.6310129238
1.8650000000	1.4688181261
1.8700000000	1.3389741277
1.8750000000	1.2346204792
1.8800000000	1.1503158081
1.8850000000	1.0812526131
1.8900000000	1.0218918233
1.8950000000	0.9639680426
1.9000000000	0.8932081991
1.9050000000	0.7592345716
1.9100000000	0.5748659646
1.9150000000	0.4773626633
1.9200000000	1.1666221367
1.9250000000	3.0711509935
1.9300000000	4.5815633002
1.9350000000	4.5110180488
1.9400000000	3.5479896449
1.9450000000	2.6143153548
1.9500000000	1.9587728318
1.9550000000	1.5292435195
1.9600000000	1.2453986251
1.9650000000	1.0554160497
1.9700000000	0.9182653775
1.9750000000	0.8177287725
1.9800000000	0.7409729087
1.9850000000	0.6786868555
1.9900000000	0.6237458321
1.9950000000	0.5699315904
2.0000000000	0.5163376952
2.0050000000	0.4820973038
2.0100000000	0.5017140659
2.0150000000	0.5557546607
2.0200000000	0.5890748268
2.0250000000	0.5979243559
2.0300000000	0.5999144480
2.0350000000	0.6035363247
2.0400000000	0.6119445905
2.0450000000	0.6259431045
2.0500000000	0.6460530338
2.0550000000	0.6727475517
2.0600000000	0.7060269967
2.0650000000	0.7438766696
2.0700000000	0.7813001912
2.0750000000	0.8145535605
2.0800000000	0.8469415299
2.0850000000	0.8852979186
2.0900000000	0.9342040430
2.0950000000	0.9955897479
2.1000000000	1.0715318684
2.1050000000	1.1613432729
2.1100000000	1.2713360253
2.1150000000	1.4061244673
2.1200000000	1.5721795690
2.1250000000	1.7785777835
2.1300000000	2.0381132279
2.1350000000	2.3690519115
2.1400000000	2.7977693645
2.1450000000	3.3628267792
2.1500000000	4.1204092426
2.1550000000	5.1500340346
2.1600000000	6.5534708162
2.1650000000	8.4169060476
2.1700000000	10.7058617842
2.1750000000	12.9815605034
2.1800000000	14.3876490079
2.1850000000	14.4606919725
2.1900000000	13.8213461835
2.1950000000	13.3238142119
2.2000000000	13.1031707693
2.2050000000	12.4903485443
2.2100000000	11.1893180625
2.2150000000	9.5897125722
2.2200000000	8.1537356161
2.2250000000	6.9669486074
2.2300000000	5.9219102000
2.2350000000	4.9770325797
2.2400000000	4.1654184634
2.2450000000	3.5160214740
2.2500000000	3.0182050020
2.2550000000	2.6442443994
2.2600000000	2.3642495617
2.2650000000	2.1482667796
2.2700000000	1.9639141303
2.2750000000	1.7792866889
2.2800000000	1.5805062999
2.2850000000	1.3913462135
2.2900000000	1.2606216391
2.2950000000	1.2159665572
2.3000000000	1.2319216743
2.3050000000	1.2562885178
2.3100000000	1.2583334473
2.3150000000	1.2383056233
2.3200000000	1.2095089424
2.3250000000	1.1856848385
2.3300000000	1.1738642973
2.3350000000	1.1752546921
2.3400000000	1.1859166574
2.3450000000	1.1969350038
2.3500000000	1.1970838444
2.3550000000	1.1792011426
2.3600000000	1.1453137935
2.3650000000	1.1042788592
2.3700000000	1.0652259657
2.3750000000	1.0336078495
2.3800000000	1.0111959221
2.3850000000	0.9974894068
2.3900000000	0.9913461187
2.3950000000	0.9914428912
2.4000000000	0.9981400121
2.4050000000	1.0136430531
2.4100000000	1.0386910608
2.4150000000	1.0743072080
2.4200000000	1.1211063984
2.4250000000	1.1801651780
2.4300000000	1.2530537521
2.4350000000	1.3418785002
2.4400000000	1.4493575301
2.4450000000	1.5789614177
2.4500000000	1.7350687963
2.4550000000	1.9231832060
2.4600000000	2.1500664366
2.4650000000	2.4238312696
2.4700000000	2.7537821932
2.4750000000	3.1492393314
2.4800000000	3.6198280817
2.4850000000	4.1693585770
2.4900000000	4.7924593476
2.4950000000	5.4668322161
2.5000000000	6.1453210551
2.5050000000	6.7800207268
2.5100000000	7.2088118783
2.5150000000	7.3381876449
2.5200000000	7.1458611108
2.5250000000	6.6912006827
2.5300000000	6.0776410311
2.5350000000	5.4049444049
2.5400000000	4.7435936827
2.5450000000	4.1334136050
2.5500000000	3.5921142362
2.5550000000	3.1237275069
2.5600000000	2.7218135377
2.5650000000	2.3839061186
2.5700000000	2.1020493005
2.5750000000	1.8712625255
2.5800000000	1.6878255359
2.5850000000	1.5476944048
2.5900000000	1.4442182295
2.5950000000	1.3680465826
2.6000000000	1.3094436839
2.6050000000	1.2677955610
2.6100000000	1.2317341212
2.6150000000	1.2006877179
2.6200000000	1.1752696416
2.6250000000	1.1561594052
2.6300000000	1.1438107748
2.6350000000	1.1384552855
2.6400000000	1.1402274345
2.6450000000	1.1492523412
2.6500000000	1.1657749431
2.6550000000	1.1898638630
2.6600000000	1.2218887506
2.6650000000	1.2622230446
2.6700000000	1.3113254925
2.6750000000	1.3697519890
2.6800000000	1.4381186641
2.6850000000	1.5170557628
2.6900000000	1.6070794892
2.6950000000	1.7084891633
2.7000000000	1.8211819569
2.7050000000	1.9579746891
2.7100000000	2.1072640270
2.7150000000	2.2661424291
2.7200000000	2.4303812391
2.7250000000	2.5946684370
2.7300000000	2.7530105103
2.7350000000	2.8990780218
2.7400000000	3.0262888482
2.7450000000	3.1288007792
2.7500000000	3.1975511782
2.7550000000	3.2270540338
2.7600000000	3.2131466053
2.7650000000	3.1553450705
2.7700000000	3.0575228496
2.7750000000	2.9274403000
2.7800000000	2.7752124641
2.7850000000	2.6115700086
2.7900000000	2.4461409872
2.7950000000	2.2866462133
2.8000000000	2.1385450610
2.8050000000	1.9887016788
2.8100000000	1.8604557553
2.8150000000	1.7534633155
2.8200000000	1.6660020579
2.8250000000	1.5958020149
2.8300000000	1.5405765692
2.8350000000	1.4983687769
2.8400000000	1.4671185867
2.8450000000	1.4468976887
2.8500000000	1.4362089540
2.8550000000	1.4344819224
2.8600000000	1.4412906120
2.8650000000	1.4562512555
2.8700000000	1.4789345456
2.8750000000	1.5087957878
2.8800000000	1.5451208933
2.8850000000	1.5869811744
2.8900000000	1.6332602796
2.8950000000	1.6826956639
2.9000000000	1.7339596353
2.9050000000	1.7955615801
2.9100000000	1.8546561457
2.9150000000	1.9093846341
2.9200000000	1.9577964203
2.9250000000	1.9976782942
2.9300000000	2.0269923477
2.9350000000	2.0425691543
2.9400000000	2.0430408395
2.9450000000	2.0278247619
2.9500000000	1.9977988081
2.9550000000	1.9552449329
2.9600000000	1.9034568379
2.9650000000	1.8461665484
2.9700000000	1.7869828800
2.9750000000	1.7289899331
2.9800000000	1.6745508470
2.9850000000	1.6252779175
2.9900000000	1.5821408775
2.9950000000	1.5455949220
3.0000000000	1.5157358125
