# energy (eV)    P(omega), $W$ = 300 nm, $h$ = 300 nm, $s$ = 20 nm, $d/W = 5$, $E_{\rm e}$ = 200 keV
0.2000000000	0.0715434825
0.2050000000	0.0726329459
0.2100000000	0.0736453734
0.2150000000	0.0745833377
0.2200000000	0.0754491546
0.2250000000	0.0762447360
0.2300000000	0.0769716090
0.2350000000	0.0776308367
0.2400000000	0.0782229603
0.2450000000	0.0787479042
0.2500000000	0.0792049021
0.2550000000	0.0795923050
0.2600000000	0.0799075470
0.2650000000	0.0801468141
0.2700000000	0.0803049229
0.2750000000	0.0803749314
0.2800000000	0.0803477875
0.2850000000	0.0802118076
0.2900000000	0.0799520482
0.2950000000	0.0795494683
0.3000000000	0.0789797665
0.3050000000	0.0782119727
0.3100000000	0.0772064201
0.3150000000	0.0817533738
0.3200000000	0.0871531996
0.3250000000	0.0939876498
0.3300000000	0.1031489709
0.3350000000	0.1145490870
0.3400000000	0.1294771829
0.3450000000	0.1475674206
0.3500000000	0.1712226480
0.3550000000	0.2025065181
0.3600000000	0.2433220959
0.3650000000	0.3001940082
0.3700000000	0.3751078014
0.3750000000	0.4792325811
0.3800000000	0.6297124329
0.3850000000	0.8640355708
0.3900000000	1.2339195356
0.3950000000	1.8617220676
0.4000000000	3.0576816999
0.4050000000	5.7371002618
0.4100000000	13.0426354865
0.4150000000	41.8163964239
0.4200000000	26.6608257566
0.4250000000	-50.0436983656
0.4300000000	13.8885716585
0.4350000000	8.6434675050
0.4400000000	5.2758912812
0.4450000000	3.4645282880
0.4500000000	2.4224967652
0.4550000000	1.7816503479
0.4600000000	1.3645209425
0.4650000000	1.0804269461
0.4700000000	0.8797281563
0.4750000000	0.7346276422
0.4800000000	0.6270693310
0.4850000000	0.5461340647
0.4900000000	0.4843376825
0.4950000000	0.4366582393
0.5000000000	0.3996624708
0.5050000000	0.3708340686
0.5100000000	0.3485499696
0.5150000000	0.3316140628
0.5200000000	0.3187840486
0.5250000000	0.3094933358
0.5300000000	0.3031395527
0.5350000000	0.2992802464
0.5400000000	0.2975887776
0.5450000000	0.2977924105
0.5500000000	0.2997994210
0.5550000000	0.3034543518
0.5600000000	0.3086743527
0.5650000000	0.3154198236
0.5700000000	0.3236525711
0.5750000000	0.3334288479
0.5800000000	0.3448396868
0.5850000000	0.3579432841
0.5900000000	0.3728564414
0.5950000000	0.3897287222
0.6000000000	0.4087499394
0.6050000000	0.4302001651
0.6100000000	0.4543430472
0.6150000000	0.4815417226
0.6200000000	0.5122809792
0.6250000000	0.5470250906
0.6300000000	0.5864617152
0.6350000000	0.6314476484
0.6400000000	0.6828732508
0.6450000000	0.7420258869
0.6500000000	0.8105968575
0.6550000000	0.8903457589
0.6600000000	0.9839794839
0.6650000000	1.0949675534
0.6700000000	1.2273881719
0.6750000000	1.3874635537
0.6800000000	1.5835571422
0.6850000000	1.8266207456
0.6900000000	2.1336158121
0.6950000000	2.5282589358
0.7000000000	3.0482174359
0.7050000000	3.7510597863
0.7100000000	4.7343102236
0.7150000000	6.1715487732
0.7200000000	8.3858376320
0.7250000000	12.0599538006
0.7300000000	18.8011286362
0.7350000000	33.2193310922
0.7400000000	72.7447779706
0.7450000000	241.1377453669
0.7500000000	746.4516305278
0.7550000000	187.6363958093
0.7600000000	62.0911250867
0.7650000000	29.7266914852
0.7700000000	17.2740867821
0.7750000000	11.2652327163
0.7800000000	7.9214197667
0.7850000000	5.8784822160
0.7900000000	4.5379202994
0.7950000000	3.6137168718
0.8000000000	2.9495881849
0.8050000000	2.4551441879
0.8100000000	2.0782407500
0.8150000000	1.7795932986
0.8200000000	1.5439696183
0.8250000000	1.3543096534
0.8300000000	1.1990025861
0.8350000000	1.0713432579
0.8400000000	0.9643588434
0.8450000000	0.8746056378
0.8500000000	0.7987477606
0.8550000000	0.7333049985
0.8600000000	0.6774413082
0.8650000000	0.6297176401
0.8700000000	0.5875617556
0.8750000000	0.5516854591
0.8800000000	0.5212199986
0.8850000000	0.4939086722
0.8900000000	0.4719468192
0.8950000000	0.4519697453
0.9000000000	0.4360776146
0.9050000000	0.4250215988
0.9100000000	0.4148823047
0.9150000000	0.4085930188
0.9200000000	0.4075038233
0.9250000000	0.4066211189
0.9300000000	0.4003809148
0.9350000000	0.3823989940
0.9400000000	0.2835955282
0.9450000000	-0.1642448843
0.9500000000	-2.5250768889
0.9550000000	-14.4902582311
0.9600000000	3.4175661140
0.9650000000	5.9984482070
0.9700000000	2.6592737794
0.9750000000	1.3958788540
0.9800000000	0.8749563518
0.9850000000	0.6313846608
0.9900000000	0.4911107471
0.9950000000	0.4060774100
1.0000000000	0.3517904741
1.0050000000	0.3173578440
1.0100000000	0.2906901902
1.0150000000	0.2712158686
1.0200000000	0.2580905446
1.0250000000	0.2470984119
1.0300000000	0.2387621938
1.0350000000	0.2324735705
1.0400000000	0.2284884334
1.0450000000	0.2252060125
1.0500000000	0.2230768775
1.0550000000	0.2219713100
1.0600000000	0.2221757828
1.0650000000	0.2228918922
1.0700000000	0.2244473466
1.0750000000	0.2268489736
1.0800000000	0.2303131165
1.0850000000	0.2347061188
1.0900000000	0.2411446158
1.0950000000	0.2487810146
1.1000000000	0.2578634907
1.1050000000	0.2683490312
1.1100000000	0.2805592269
1.1150000000	0.2947714683
1.1200000000	0.3113042995
1.1250000000	0.3306185283
1.1300000000	0.3532792994
1.1350000000	0.3800078765
1.1400000000	0.4116140943
1.1450000000	0.4496243911
1.1500000000	0.4956591204
1.1550000000	0.5520788004
1.1600000000	0.6222139467
1.1650000000	0.7103745428
1.1700000000	0.8246877745
1.1750000000	0.9758954854
1.1800000000	1.1817722254
1.1850000000	1.4715463986
1.1900000000	1.9002396273
1.1950000000	2.5736333626
1.2000000000	3.7162555570
1.2050000000	5.8759301229
1.2100000000	10.6267812541
1.2150000000	23.4648386293
1.2200000000	57.5955635562
1.2250000000	51.6966582494
1.2300000000	20.5744854034
1.2350000000	9.6127507724
1.2400000000	5.4600386717
1.2450000000	3.5511901301
1.2500000000	2.5415718454
1.2550000000	1.9558566886
1.2600000000	1.5959435437
1.2650000000	1.3664574924
1.2700000000	1.2243288446
1.2750000000	1.1415629598
1.2800000000	1.1043935908
1.2850000000	1.1062302345
1.2900000000	1.1453830590
1.2950000000	1.2235768641
1.3000000000	1.3513139457
1.3050000000	1.5418832074
1.3100000000	1.8209007510
1.3150000000	2.2329026603
1.3200000000	2.8582848248
1.3250000000	3.8500403867
1.3300000000	5.5443311227
1.3350000000	8.7194817371
1.3400000000	15.5062417802
1.3450000000	32.3505956064
1.3500000000	68.5828162828
1.3550000000	63.9201199249
1.3600000000	29.4657647556
1.3650000000	14.4761311534
1.3700000000	8.3026137857
1.3750000000	5.3404818894
1.3800000000	3.7254690886
1.3850000000	2.7524910248
1.3900000000	2.1251155514
1.3950000000	1.6968543984
1.4000000000	1.3917838763
1.4050000000	1.1671498734
1.4100000000	0.9968277832
1.4150000000	0.8648176533
1.4200000000	0.7592132465
1.4250000000	0.6746293985
1.4300000000	0.6062025775
1.4350000000	0.5366280075
1.4400000000	0.3163561304
1.4450000000	-0.2540800839
1.4500000000	-1.2976226317
1.4550000000	-0.4712728659
1.4600000000	1.1839718162
1.4650000000	0.7204780490
1.4700000000	-0.3074474432
1.4750000000	-1.8788354100
1.4800000000	-0.8189451186
1.4850000000	1.4748910316
1.4900000000	1.1932010354
1.4950000000	0.7774527745
1.5000000000	0.5498887741
1.5050000000	0.4262685583
1.5100000000	0.3553982323
1.5150000000	0.3117771550
1.5200000000	0.2830844650
1.5250000000	0.2648215975
1.5300000000	0.2503123725
1.5350000000	0.2396932852
1.5400000000	0.2319166245
1.5450000000	0.2263424105
1.5500000000	0.2225509808
1.5550000000	0.2203302082
1.5600000000	0.2200371031
1.5650000000	0.2208530099
1.5700000000	0.2235242765
1.5750000000	0.2285594275
1.5800000000	0.2369900087
1.5850000000	0.2508476137
1.5900000000	0.2744168987
1.5950000000	0.3171132537
1.6000000000	0.3985573765
1.6050000000	0.5304067820
1.6100000000	0.5888931689
1.6150000000	0.4756054246
1.6200000000	0.3731702073
1.6250000000	0.3223665076
1.6300000000	0.3001549590
1.6350000000	0.2922044057
1.6400000000	0.2920973733
1.6450000000	0.2969310457
1.6500000000	0.3053347561
1.6550000000	0.3167357053
1.6600000000	0.3309117887
1.6650000000	0.3478884775
1.6700000000	0.3678584065
1.6750000000	0.3911569488
1.6800000000	0.4182602545
1.6850000000	0.4498022073
1.6900000000	0.4865961149
1.6950000000	0.5294148583
1.7000000000	0.5798895152
1.7050000000	0.6409938819
1.7100000000	0.7162541879
1.7150000000	0.8231116477
1.7200000000	0.9711873361
1.7250000000	1.1506826350
1.7300000000	1.3761069685
1.7350000000	1.6169990407
1.7400000000	1.8296704241
1.7450000000	2.0941324300
1.7500000000	2.5044290499
1.7550000000	3.1237948252
1.7600000000	4.0551382529
1.7650000000	5.4928318096
1.7700000000	7.8087198268
1.7750000000	11.7080936477
1.7800000000	18.3460522485
1.7850000000	28.1197724022
1.7900000000	34.8966561323
1.7950000000	29.6680425488
1.8000000000	19.7086873226
1.8050000000	12.4199128265
1.8100000000	8.1684379119
1.8150000000	5.6780905140
1.8200000000	4.1459753711
1.8250000000	3.1526030836
1.8300000000	2.4776761635
1.8350000000	2.0005557136
1.8400000000	1.6520152331
1.8450000000	1.3899744464
1.8500000000	1.1878767878
1.8550000000	1.0290614393
1.8600000000	0.9017468701
1.8650000000	0.7977915804
1.8700000000	0.7111850732
1.8750000000	0.6372148833
1.8800000000	0.5717373590
1.8850000000	0.5105501640
1.8900000000	0.4483128217
1.8950000000	0.3769048824
1.9000000000	0.2826601063
1.9050000000	0.1222491837
1.9100000000	-0.1106785931
1.9150000000	-0.3615372306
1.9200000000	-0.2493510451
1.9250000000	0.4835774094
1.9300000000	1.0722938584
1.9350000000	1.1200706364
1.9400000000	0.9232969748
1.9450000000	0.7244760215
1.9500000000	0.5815186067
1.9550000000	0.4856042467
1.9600000000	0.4208920855
1.9650000000	0.3780492059
1.9700000000	0.3456054839
1.9750000000	0.3217944342
1.9800000000	0.3038598466
1.9850000000	0.2898546802
1.9900000000	0.2783914726
1.9950000000	0.2683463094
2.0000000000	0.2594481256
2.0050000000	0.2549140225
2.0100000000	0.2590731802
2.0150000000	0.2690176125
2.0200000000	0.2768451549
2.0250000000	0.2821816580
2.0300000000	0.2878791306
2.0350000000	0.2951679632
2.0400000000	0.3049870066
2.0450000000	0.3179473846
2.0500000000	0.3347837469
2.0550000000	0.3562411478
2.0600000000	0.3823550760
2.0650000000	0.4106446778
2.0700000000	0.4349553873
2.0750000000	0.4503990750
2.0800000000	0.4603128042
2.0850000000	0.4721497275
2.0900000000	0.4905238056
2.0950000000	0.5168452940
2.1000000000	0.5518727664
2.1050000000	0.5948050072
2.1100000000	0.6486373917
2.1150000000	0.7154493452
2.1200000000	0.7983270259
2.1250000000	0.9017068209
2.1300000000	1.0319143522
2.1350000000	1.1980224515
2.1400000000	1.4131455650
2.1450000000	1.6964528576
2.1500000000	2.0758491616
2.1550000000	2.5907755582
2.1600000000	3.2916597991
2.1650000000	4.2211470030
2.1700000000	5.3630835190
2.1750000000	6.5027467281
2.1800000000	7.2233190926
2.1850000000	7.3044373388
2.1900000000	7.0563809667
2.1950000000	6.8916965705
2.2000000000	6.8442695210
2.2050000000	6.5151048735
2.2100000000	5.7369290622
2.2150000000	4.7484745041
2.2200000000	3.8440696597
2.2250000000	3.1196947416
2.2300000000	2.5495510012
2.2350000000	2.0967024189
2.2400000000	1.7374170772
2.2450000000	1.4569879225
2.2500000000	1.2382865878
2.2550000000	1.0657338457
2.2600000000	0.9263254556
2.2650000000	0.8092416079
2.2700000000	0.7053911590
2.2750000000	0.6083932985
2.2800000000	0.5186992802
2.2850000000	0.4475694492
2.2900000000	0.4116833790
2.2950000000	0.4167900991
2.3000000000	0.4464359756
2.3050000000	0.4754083355
2.3100000000	0.4879137640
2.3150000000	0.4847540360
2.3200000000	0.4728439689
2.3250000000	0.4592426716
2.3300000000	0.4477648651
2.3350000000	0.4397326841
2.3400000000	0.4348722562
2.3450000000	0.4317683510
2.3500000000	0.4285315059
2.3550000000	0.4239534470
2.3600000000	0.4183692800
2.3650000000	0.4132445389
2.3700000000	0.4100321082
2.3750000000	0.4094419905
2.3800000000	0.4113537704
2.3850000000	0.4150390536
2.3900000000	0.4196863869
2.3950000000	0.4246017643
2.4000000000	0.4301994129
2.4050000000	0.4380225043
2.4100000000	0.4488555033
2.4150000000	0.4636931233
2.4200000000	0.4832119157
2.4250000000	0.5080273874
2.4300000000	0.5388299444
2.4350000000	0.5764849848
2.4400000000	0.6221059652
2.4450000000	0.6771293975
2.4500000000	0.7433835331
2.4550000000	0.8231813555
2.4600000000	0.9193790226
2.4650000000	1.0354324055
2.4700000000	1.1753446021
2.4750000000	1.3431904310
2.4800000000	1.5433774435
2.4850000000	1.7778875662
2.4900000000	2.0447798146
2.4950000000	2.3344007737
2.5000000000	2.6253045650
2.5050000000	2.8941694793
2.5100000000	3.0678635836
2.5150000000	3.1058908852
2.5200000000	3.0030150441
2.5250000000	2.7914237605
2.5300000000	2.5200866355
2.5350000000	2.2319570514
2.5400000000	1.9542414923
2.5450000000	1.7003865993
2.5500000000	1.4754170335
2.5550000000	1.2799712115
2.5600000000	1.1112135025
2.5650000000	0.9687739548
2.5700000000	0.8498104572
2.5750000000	0.7526407083
2.5800000000	0.6759508500
2.5850000000	0.6181132329
2.5900000000	0.5761895454
2.5950000000	0.5459260858
2.6000000000	0.5228737864
2.6050000000	0.5064325516
2.6100000000	0.4916699127
2.6150000000	0.4784043179
2.6200000000	0.4669672573
2.6250000000	0.4576846402
2.6300000000	0.4507532570
2.6350000000	0.4462584299
2.6400000000	0.4442449222
2.6450000000	0.4447633018
2.6500000000	0.4479221511
2.6550000000	0.4537397430
2.6600000000	0.4623687057
2.6650000000	0.4739438714
2.6700000000	0.4886241086
2.6750000000	0.5065979094
2.6800000000	0.5280750606
2.6850000000	0.5532846825
2.6900000000	0.5824481824
2.6950000000	0.6157662386
2.7000000000	0.6533778610
2.7050000000	0.6998119717
2.7100000000	0.7518552276
2.7150000000	0.8091503037
2.7200000000	0.8709249362
2.7250000000	0.9358926774
2.7300000000	1.0021615812
2.7350000000	1.0671540987
2.7400000000	1.1275652629
2.7450000000	1.1799061773
2.7500000000	1.2191122013
2.7550000000	1.2417045420
2.7600000000	1.2450704540
2.7650000000	1.2285378727
2.7700000000	1.1936125526
2.7750000000	1.1436730098
2.7800000000	1.0832000026
2.7850000000	1.0169602924
2.7900000000	0.9492122481
2.7950000000	0.8833652064
2.8000000000	0.8218239627
2.8050000000	0.7592458335
2.8100000000	0.7052259085
2.8150000000	0.6596409625
2.8200000000	0.6217744674
2.8250000000	0.5906741101
2.8300000000	0.5653845787
2.8350000000	0.5450916947
2.8400000000	0.5289299323
2.8450000000	0.5169575909
2.8500000000	0.5085403688
2.8550000000	0.5034419245
2.8600000000	0.5014950582
2.8650000000	0.5025676767
2.8700000000	0.5065421877
2.8750000000	0.5132982570
2.8800000000	0.5226966688
2.8850000000	0.5345643257
2.8900000000	0.5486881072
2.8950000000	0.5648077210
2.9000000000	0.5826144332
2.9050000000	0.6060054963
2.9100000000	0.6300205698
2.9150000000	0.6537335377
2.9200000000	0.6760307363
2.9250000000	0.6956209021
2.9300000000	0.7112904248
2.9350000000	0.7214236018
2.9400000000	0.7252111271
2.9450000000	0.7222385805
2.9500000000	0.7127499188
2.9550000000	0.6976107963
2.9600000000	0.6781396810
2.9650000000	0.6558661283
2.9700000000	0.6322910736
2.9750000000	0.6087168194
2.9800000000	0.5861533677
2.9850000000	0.5653053023
2.9900000000	0.5466062119
2.9950000000	0.5302769581
3.0000000000	0.5163887509
