# energy (eV)    P(omega), $W$ = 300 nm, $h$ = 300 nm, $s$ = 20 nm, $d/W = 5$, $E_{\rm e}$ = 200 keV
0.2000000000	0.0852093206
0.2050000000	0.0864333880
0.2100000000	0.0875839798
0.2150000000	0.0886633936
0.2200000000	0.0896736103
0.2250000000	0.0906162677
0.2300000000	0.0914925690
0.2350000000	0.0923032658
0.2400000000	0.0930485733
0.2450000000	0.0937279857
0.2500000000	0.0943403796
0.2550000000	0.0948835960
0.2600000000	0.0953544800
0.2650000000	0.0957486333
0.2700000000	0.0960600271
0.2750000000	0.0962807688
0.2800000000	0.0964006280
0.2850000000	0.0964065242
0.2900000000	0.0962816515
0.2950000000	0.0960048193
0.3000000000	0.0955487389
0.3050000000	0.0948789359
0.3100000000	0.0939511517
0.3150000000	0.0990129892
0.3200000000	0.1050254932
0.3250000000	0.1126260020
0.3300000000	0.1227967769
0.3350000000	0.1354609181
0.3400000000	0.1520465359
0.3450000000	0.1721810519
0.3500000000	0.1985315046
0.3550000000	0.2334154329
0.3600000000	0.2789972694
0.3650000000	0.3425731446
0.3700000000	0.4264846366
0.3750000000	0.5432974426
0.3800000000	0.7123632380
0.3850000000	0.9759615001
0.3900000000	1.3927041037
0.3950000000	2.1011098868
0.4000000000	3.4524893333
0.4050000000	6.4842691702
0.4100000000	14.7627914277
0.4150000000	47.4168426337
0.4200000000	30.1820565355
0.4250000000	-56.9741210035
0.4300000000	15.8768071868
0.4350000000	9.9064497317
0.4400000000	6.0649790643
0.4450000000	3.9957136704
0.4500000000	2.8037096034
0.4550000000	2.0697156474
0.4600000000	1.5913973606
0.4650000000	1.2652834297
0.4700000000	1.0346866851
0.4750000000	0.8678603668
0.4800000000	0.7441463064
0.4850000000	0.6510537535
0.4900000000	0.5800101054
0.4950000000	0.5252580441
0.5000000000	0.4828634288
0.5050000000	0.4499363693
0.5100000000	0.4246197934
0.5150000000	0.4055472285
0.5200000000	0.3912819093
0.5250000000	0.3811839068
0.5300000000	0.3745606815
0.5350000000	0.3709071544
0.5400000000	0.3698515841
0.5450000000	0.3710836189
0.5500000000	0.3745108070
0.5550000000	0.3799600273
0.5600000000	0.3873469254
0.5650000000	0.3966358736
0.5700000000	0.4077967182
0.5750000000	0.4209093188
0.5800000000	0.4361034916
0.5850000000	0.4534645327
0.5900000000	0.4731547360
0.5950000000	0.4953753657
0.6000000000	0.5203824755
0.6050000000	0.5485431080
0.6100000000	0.5802108312
0.6150000000	0.6158655001
0.6200000000	0.6561476117
0.6250000000	0.7016704188
0.6300000000	0.7533403303
0.6350000000	0.8122871409
0.6400000000	0.8796868787
0.6450000000	0.9572362304
0.6500000000	1.0471667703
0.6550000000	1.1518020090
0.6600000000	1.2747116967
0.6650000000	1.4204798289
0.6700000000	1.5944955673
0.6750000000	1.8049736181
0.6800000000	2.0629742833
0.6850000000	2.3829758541
0.6900000000	2.7874209753
0.6950000000	3.3076871463
0.7000000000	3.9936469220
0.7050000000	4.9215400300
0.7100000000	6.2205856169
0.7150000000	8.1208375928
0.7200000000	11.0506783960
0.7250000000	15.9158206797
0.7300000000	24.8492162891
0.7350000000	43.9714253236
0.7400000000	96.4355172345
0.7450000000	320.1561581353
0.7500000000	992.5782575029
0.7550000000	249.8919152658
0.7600000000	82.8214249805
0.7650000000	39.7139247271
0.7700000000	23.1142893254
0.7750000000	15.0980122712
0.7800000000	10.6336492629
0.7850000000	7.9040481248
0.7900000000	6.1115693802
0.7950000000	4.8748928530
0.8000000000	3.9855879420
0.8050000000	3.3230304620
0.8100000000	2.8176211771
0.8150000000	2.4168178969
0.8200000000	2.1003941957
0.8250000000	1.8455421306
0.8300000000	1.6367086985
0.8350000000	1.4649714934
0.8400000000	1.3209719990
0.8450000000	1.2001115651
0.8500000000	1.0979412417
0.8550000000	1.0097479141
0.8600000000	0.9344588698
0.8650000000	0.8701643733
0.8700000000	0.8133378044
0.8750000000	0.7650239213
0.8800000000	0.7240655487
0.8850000000	0.6873402496
0.8900000000	0.6579583007
0.8950000000	0.6312266044
0.9000000000	0.6101259354
0.9050000000	0.5957549470
0.9100000000	0.5825932127
0.9150000000	0.5748066668
0.9200000000	0.5743440623
0.9250000000	0.5741004379
0.9300000000	0.5660721808
0.9350000000	0.5409363396
0.9400000000	0.3990463247
0.9450000000	-0.2475248593
0.9500000000	-3.6631462510
0.9550000000	-21.0001042437
0.9600000000	4.9602016956
0.9650000000	8.7180917670
0.9700000000	3.8694107956
0.9750000000	2.0322658814
0.9800000000	1.2739554977
0.9850000000	0.9191934461
0.9900000000	0.7146834786
0.9950000000	0.5906320727
1.0000000000	0.5114101699
1.0050000000	0.4612069445
1.0100000000	0.4222433629
1.0150000000	0.3937613440
1.0200000000	0.3745856791
1.0250000000	0.3584485635
1.0300000000	0.3461622470
1.0350000000	0.3368344251
1.0400000000	0.3308763725
1.0450000000	0.3258670602
1.0500000000	0.3224960405
1.0550000000	0.3205702582
1.0600000000	0.3205350516
1.0650000000	0.3211512449
1.0700000000	0.3229191871
1.0750000000	0.3258447430
1.0800000000	0.3302558725
1.0850000000	0.3358637814
1.0900000000	0.3442225795
1.0950000000	0.3541629505
1.1000000000	0.3660338288
1.1050000000	0.3796828506
1.1100000000	0.3955558174
1.1150000000	0.4140045074
1.1200000000	0.4354605446
1.1250000000	0.4604166369
1.1300000000	0.4896172819
1.1350000000	0.5239615962
1.1400000000	0.5644902835
1.1450000000	0.6130273594
1.1500000000	0.6716190959
1.1550000000	0.7431941951
1.1600000000	0.8318838620
1.1650000000	0.9430643684
1.1700000000	1.0867264029
1.1750000000	1.2762033972
1.1800000000	1.5335060265
1.1850000000	1.8947929866
1.1900000000	2.4283123850
1.1950000000	3.2648731173
1.2000000000	4.6826650807
1.2050000000	7.3605401891
1.2100000000	13.2499405766
1.2150000000	29.1709325266
1.2200000000	71.5443957625
1.2250000000	64.3414022403
1.2300000000	25.7414490492
1.2350000000	12.1366825790
1.2400000000	6.9861719743
1.2450000000	4.6257911105
1.2500000000	3.3857104293
1.2550000000	2.6757963136
1.2600000000	2.2503633427
1.2650000000	1.9914107443
1.2700000000	1.8467968881
1.2750000000	1.7828820732
1.2800000000	1.7844541974
1.2850000000	1.8459352313
1.2900000000	1.9689958474
1.2950000000	2.1606476174
1.3000000000	2.4429182718
1.3050000000	2.8444831949
1.3100000000	3.4172093002
1.3150000000	4.2504588620
1.3200000000	5.5042243871
1.3250000000	7.4840392912
1.3300000000	10.8567729920
1.3350000000	17.1707905864
1.3400000000	30.6647063311
1.3450000000	64.1709741035
1.3500000000	136.3215975712
1.3550000000	127.2219806922
1.3600000000	58.6904793371
1.3650000000	28.8410309037
1.3700000000	16.5399661641
1.3750000000	10.6356923393
1.3800000000	7.4162430047
1.3850000000	5.4772023066
1.3900000000	4.2281249055
1.3950000000	3.3764711182
1.4000000000	2.7716986618
1.4050000000	2.3288500028
1.4100000000	1.9969794188
1.4150000000	1.7465593031
1.4200000000	1.5582426481
1.4250000000	1.4321100309
1.4300000000	1.3859122727
1.4350000000	1.4115933721
1.4400000000	1.0872099104
1.4450000000	0.0936763209
1.4500000000	-1.5193759939
1.4550000000	-0.4260426321
1.4600000000	1.8397092985
1.4650000000	0.9960377614
1.4700000000	-0.9404561535
1.4750000000	-4.1161300498
1.4800000000	-1.8319372690
1.4850000000	3.0110044809
1.4900000000	2.4407313377
1.4950000000	1.5798182454
1.5000000000	1.1100103747
1.5050000000	0.8570350047
1.5100000000	0.7128464366
1.5150000000	0.6252805401
1.5200000000	0.5687142810
1.5250000000	0.5335678195
1.5300000000	0.5067198087
1.5350000000	0.4882135075
1.5400000000	0.4760231674
1.5450000000	0.4690618602
1.5500000000	0.4666278798
1.5550000000	0.4687389932
1.5600000000	0.4766450546
1.5650000000	0.4897042594
1.5700000000	0.5108498204
1.5750000000	0.5436595178
1.5800000000	0.5948511603
1.5850000000	0.6775013442
1.5900000000	0.8191604559
1.5950000000	1.0807953600
1.6000000000	1.5911858628
1.6050000000	2.4350957073
1.6100000000	2.8259300389
1.6150000000	2.0932488305
1.6200000000	1.4059144955
1.6250000000	1.0430988626
1.6300000000	0.8609304213
1.6350000000	0.7671452276
1.6400000000	0.7196105889
1.6450000000	0.6987441699
1.6500000000	0.6947398013
1.6550000000	0.7030037617
1.6600000000	0.7207945083
1.6650000000	0.7468601579
1.6700000000	0.7807247932
1.6750000000	0.8223913060
1.6800000000	0.8722322398
1.6850000000	0.9308254781
1.6900000000	0.9986820348
1.6950000000	1.0748382649
1.7000000000	1.1580165662
1.7050000000	1.2432627242
1.7100000000	1.3405367545
1.7150000000	1.5822583994
1.7200000000	2.0063455617
1.7250000000	2.3949239405
1.7300000000	2.8119554929
1.7350000000	3.2701840444
1.7400000000	3.7198046303
1.7450000000	4.2973123459
1.7500000000	5.1706534116
1.7550000000	6.4705358084
1.7600000000	8.4154032847
1.7650000000	11.4134342197
1.7700000000	16.2427358111
1.7750000000	24.3788521164
1.7800000000	38.2426303285
1.7850000000	58.6884557265
1.7900000000	72.9339920159
1.7950000000	62.1046885494
1.8000000000	41.3323934756
1.8050000000	26.1023449383
1.8100000000	17.2098938079
1.8150000000	11.9976793457
1.8200000000	8.7900119988
1.8250000000	6.7104710448
1.8300000000	5.2985350412
1.8350000000	4.3019319976
1.8400000000	3.5758599335
1.8450000000	3.0324790767
1.8500000000	2.6164310163
1.8550000000	2.2930765943
1.8600000000	2.0382518469
1.8650000000	1.8355344690
1.8700000000	1.6732444902
1.8750000000	1.5428068912
1.8800000000	1.4374196818
1.8850000000	1.3510723178
1.8900000000	1.2768387404
1.8950000000	1.2043836195
1.9000000000	1.1158600354
1.9050000000	0.9482848175
1.9100000000	0.7176540388
1.9150000000	0.5954626861
1.9200000000	1.4563510961
1.9250000000	3.8358529976
1.9300000000	5.7229615970
1.9350000000	5.6349530184
1.9400000000	4.4320562758
1.9450000000	3.2658112487
1.9500000000	2.4469725624
1.9550000000	1.9104432814
1.9600000000	1.5558875330
1.9650000000	1.3185777135
1.9700000000	1.1472582938
1.9750000000	1.0216746654
1.9800000000	0.9257967761
1.9850000000	0.8479944724
1.9900000000	0.7793684710
1.9950000000	0.7121519535
2.0000000000	0.6452125706
2.0050000000	0.6024479154
2.0100000000	0.6269510297
2.0150000000	0.6944500475
2.0200000000	0.7360713458
2.0250000000	0.7471312930
2.0300000000	0.7496263564
2.0350000000	0.7541618714
2.0400000000	0.7646787010
2.0450000000	0.7821817645
2.0500000000	0.8073231491
2.0550000000	0.8406950546
2.0600000000	0.8822979543
2.0650000000	0.9296115732
2.0700000000	0.9763857197
2.0750000000	1.0179363119
2.0800000000	1.0583960529
2.0850000000	1.1063119029
2.0900000000	1.1674128957
2.0950000000	1.2441113791
2.1000000000	1.3390019993
2.1050000000	1.4512252729
2.1100000000	1.5886683616
2.1150000000	1.7570968643
2.1200000000	1.9645965425
2.1250000000	2.2225090034
2.1300000000	2.5468214490
2.1350000000	2.9603587366
2.1400000000	3.4960791834
2.1450000000	4.2021681162
2.1500000000	5.1488332887
2.1550000000	6.4354377597
2.1600000000	8.1891506378
2.1650000000	10.5176682874
2.1700000000	13.3779092466
2.1750000000	16.2215913276
2.1800000000	17.9786467484
2.1850000000	18.0699935073
2.1900000000	17.2711952985
2.1950000000	16.6496265554
2.2000000000	16.3740173581
2.2050000000	15.6082007618
2.2100000000	13.9822305208
2.2150000000	11.9830612859
2.2200000000	10.1883644085
2.2250000000	8.7051476911
2.2300000000	7.3992031281
2.2350000000	6.2185348002
2.2400000000	5.2044373329
2.2450000000	4.3930398224
2.2500000000	3.7710304020
2.2550000000	3.3037619064
2.2600000000	2.9538875342
2.2650000000	2.6839848110
2.2700000000	2.4536020093
2.2750000000	2.2228875353
2.2800000000	1.9745121024
2.2850000000	1.7381813438
2.2900000000	1.5748808020
2.2950000000	1.5191277192
2.3000000000	1.5391022639
2.3050000000	1.5695797130
2.3100000000	1.5721551470
2.3150000000	1.5471411479
2.3200000000	1.5111625528
2.3250000000	1.4813907721
2.3300000000	1.4666121148
2.3350000000	1.4683364817
2.3400000000	1.4816440204
2.3450000000	1.4953992979
2.3500000000	1.4955805173
2.3550000000	1.4732418952
2.3600000000	1.4309151535
2.3650000000	1.3796632503
2.3700000000	1.3308895098
2.3750000000	1.2914043821
2.3800000000	1.2634197718
2.3850000000	1.2463090810
2.3900000000	1.2386446242
2.3950000000	1.2387729006
2.4000000000	1.2471444948
2.4050000000	1.2665161721
2.4100000000	1.2978121918
2.4150000000	1.3423118678
2.4200000000	1.4007841674
2.4250000000	1.4745744330
2.4300000000	1.5656445586
2.4350000000	1.6766263214
2.4400000000	1.8109157961
2.4450000000	1.9728492045
2.4500000000	2.1678973763
2.4550000000	2.4029366626
2.4600000000	2.6864155510
2.4650000000	3.0284705794
2.4700000000	3.4407273055
2.4750000000	3.9348310101
2.4800000000	4.5228087339
2.4850000000	5.2094217784
2.4900000000	5.9879594999
2.4950000000	6.8305612650
2.5000000000	7.6783055694
2.5050000000	8.4713323960
2.5100000000	9.0070739725
2.5150000000	9.1686964055
2.5200000000	8.9283598129
2.5250000000	8.3602536015
2.5300000000	7.5936226594
2.5350000000	6.7531163611
2.5400000000	5.9267951354
2.5450000000	5.1644126502
2.5500000000	4.4880927444
2.5550000000	3.9028714020
2.5600000000	3.4007021498
2.5650000000	2.9785046828
2.5700000000	2.6263392932
2.5750000000	2.3379836852
2.5800000000	2.1087900201
2.5850000000	1.9337057241
2.5900000000	1.8044206221
2.5950000000	1.7092513417
2.6000000000	1.6360329783
2.6050000000	1.5839978796
2.6100000000	1.5389419851
2.6150000000	1.5001511137
2.6200000000	1.4683916934
2.6250000000	1.4445127760
2.6300000000	1.4290813122
2.6350000000	1.4223865890
2.6400000000	1.4245965958
2.6450000000	1.4358676874
2.6500000000	1.4565058626
2.6550000000	1.4865968227
2.6600000000	1.5266023822
2.6650000000	1.5769890423
2.6700000000	1.6383298711
2.6750000000	1.7113193560
2.6800000000	1.7967272155
2.6850000000	1.8953408653
2.6900000000	2.0078053293
2.6950000000	2.1344947695
2.7000000000	2.2752810352
2.7050000000	2.4461765551
2.7100000000	2.6326864745
2.7150000000	2.8311794065
2.7200000000	3.0363735664
2.7250000000	3.2416334738
2.7300000000	3.4394716110
2.7350000000	3.6219798598
2.7400000000	3.7809333653
2.7450000000	3.9090309181
2.7500000000	3.9949472454
2.7550000000	4.0318259818
2.7600000000	4.0144646172
2.7650000000	3.9422578862
2.7700000000	3.8200451929
2.7750000000	3.6575228289
2.7800000000	3.4673293079
2.7850000000	3.2628723882
2.7900000000	3.0561820652
2.7950000000	2.8569052924
2.8000000000	2.6718634016
2.8050000000	2.4846442705
2.8100000000	2.3244090057
2.8150000000	2.1907278005
2.8200000000	2.0814487612
2.8250000000	1.9937356835
2.8300000000	1.9247315713
2.8350000000	1.8719913810
2.8400000000	1.8329411826
2.8450000000	1.8076706084
2.8500000000	1.7943090811
2.8550000000	1.7921438669
2.8600000000	1.8006427596
2.8650000000	1.8193263302
2.8700000000	1.8476582981
2.8750000000	1.8849583031
2.8800000000	1.9303343938
2.8850000000	1.9826265822
2.8900000000	2.0404405015
2.8950000000	2.1021991078
2.9000000000	2.1662439358
2.9050000000	2.2432074666
2.9100000000	2.3170409629
2.9150000000	2.3854218564
2.9200000000	2.4459125206
2.9250000000	2.4957470680
2.9300000000	2.5323786756
2.9350000000	2.5518468702
2.9400000000	2.5524421829
2.9450000000	2.5334363716
2.9500000000	2.4959260634
2.9550000000	2.4427622633
2.9600000000	2.3780601429
2.9650000000	2.3064825486
2.9700000000	2.2325384477
2.9750000000	2.1600812368
2.9800000000	2.0920635338
2.9850000000	2.0304998386
2.9900000000	1.9766018166
2.9950000000	1.9309382713
3.0000000000	1.8936288996
