# energy (eV)    P(omega), $W$ = 300 nm, $h$ = 300 nm, $s$ = 20 nm, $d/W = 5$, $E_{\rm e}$ = 200 keV
0.2000000000	0.1237715289
0.2050000000	0.1255496457
0.2100000000	0.1272209919
0.2150000000	0.1287889071
0.2200000000	0.1302562705
0.2250000000	0.1316254630
0.2300000000	0.1328982340
0.2350000000	0.1340756769
0.2400000000	0.1351581053
0.2450000000	0.1361447859
0.2500000000	0.1370340879
0.2550000000	0.1378228756
0.2600000000	0.1385065671
0.2650000000	0.1390787736
0.2700000000	0.1395307381
0.2750000000	0.1398509957
0.2800000000	0.1400246856
0.2850000000	0.1400328062
0.2900000000	0.1398509446
0.2950000000	0.1394483182
0.3000000000	0.1387852854
0.3050000000	0.1378117665
0.3100000000	0.1364634689
0.3150000000	0.1438166591
0.3200000000	0.1525508556
0.3250000000	0.1635919317
0.3300000000	0.1783668209
0.3350000000	0.1967637588
0.3400000000	0.2208573410
0.3450000000	0.2501062429
0.3500000000	0.2883848231
0.3550000000	0.3390596612
0.3600000000	0.4052748496
0.3650000000	0.4976292082
0.3700000000	0.6195239457
0.3750000000	0.7892125894
0.3800000000	1.0348061284
0.3850000000	1.4177214613
0.3900000000	2.0230998652
0.3950000000	3.0521581151
0.4000000000	5.0152205270
0.4050000000	9.4192823772
0.4100000000	21.4449012909
0.4150000000	68.8789888866
0.4200000000	43.8433552966
0.4250000000	-82.7615536036
0.4300000000	23.0627604584
0.4350000000	14.3901142092
0.4400000000	8.8099477872
0.4450000000	5.8041156598
0.4500000000	4.0726047142
0.4550000000	3.0064037910
0.4600000000	2.3115992097
0.4650000000	1.8378873717
0.4700000000	1.5029239578
0.4750000000	1.2605933510
0.4800000000	1.0808874100
0.4850000000	0.9456620040
0.4900000000	0.8424645601
0.4950000000	0.7629320006
0.5000000000	0.7013495925
0.5050000000	0.6535194934
0.5100000000	0.6167441148
0.5150000000	0.5890385087
0.5200000000	0.5683156607
0.5250000000	0.5536459884
0.5300000000	0.5440235162
0.5350000000	0.5387145600
0.5400000000	0.5371791226
0.5450000000	0.5389663822
0.5500000000	0.5439420142
0.5550000000	0.5518545321
0.5600000000	0.5625813756
0.5650000000	0.5760707689
0.5700000000	0.5922788811
0.5750000000	0.6113216762
0.5800000000	0.6333876675
0.5850000000	0.6586007101
0.5900000000	0.6871964873
0.5950000000	0.7194672824
0.6000000000	0.7557849487
0.6050000000	0.7966825401
0.6100000000	0.8426735308
0.6150000000	0.8944548060
0.6200000000	0.9529565491
0.6250000000	1.0190693814
0.6300000000	1.0941096669
0.6350000000	1.1797181987
0.6400000000	1.2776029039
0.6450000000	1.3902278646
0.6500000000	1.5208339693
0.6550000000	1.6727956231
0.6600000000	1.8512971460
0.6650000000	2.0629957852
0.6700000000	2.3157181697
0.6750000000	2.6213943904
0.6800000000	2.9960871587
0.6850000000	3.4608230663
0.6900000000	4.0481952092
0.6950000000	4.8037725666
0.7000000000	5.7999841714
0.7050000000	7.1475515507
0.7100000000	9.0341371004
0.7150000000	11.7938435229
0.7200000000	16.0488016630
0.7250000000	23.1143580160
0.7300000000	36.0881503236
0.7350000000	63.8589242788
0.7400000000	140.0513173605
0.7450000000	464.9552620992
0.7500000000	1441.4951567493
0.7550000000	362.9106867241
0.7600000000	120.2788787027
0.7650000000	57.6751322720
0.7700000000	33.5679988529
0.7750000000	21.9262213823
0.7800000000	15.4427793323
0.7850000000	11.4786765810
0.7900000000	8.8755259492
0.7950000000	7.0795480605
0.8000000000	5.7880458372
0.8050000000	4.8258408156
0.8100000000	4.0918563308
0.8150000000	3.5097873341
0.8200000000	3.0502594903
0.8250000000	2.6801496303
0.8300000000	2.3768707784
0.8350000000	2.1274651470
0.8400000000	1.9183418122
0.8450000000	1.7428222864
0.8500000000	1.5944455136
0.8550000000	1.4663669143
0.8600000000	1.3570285603
0.8650000000	1.2636569631
0.8700000000	1.1811307231
0.8750000000	1.1109669264
0.8800000000	1.0514850479
0.8850000000	0.9981506720
0.8900000000	0.9554804281
0.8950000000	0.9166590497
0.9000000000	0.8860150975
0.9050000000	0.8651439397
0.9100000000	0.8460289621
0.9150000000	0.8347197609
0.9200000000	0.8340461830
0.9250000000	0.8336907132
0.9300000000	0.8220309993
0.9350000000	0.7855290434
0.9400000000	0.5794846725
0.9450000000	-0.3594222939
0.9500000000	-5.3193447007
0.9550000000	-30.4947985755
0.9600000000	7.2028279224
0.9650000000	12.6597291604
0.9700000000	5.6188480631
0.9750000000	2.9510918606
0.9800000000	1.8499349358
0.9850000000	1.3347785009
0.9900000000	1.0378061608
0.9950000000	0.8576691515
1.0000000000	0.7426298011
1.0050000000	0.6697288393
1.0100000000	0.6131492723
1.0150000000	0.5717901636
1.0200000000	0.5439448863
1.0250000000	0.5205120435
1.0300000000	0.5026710385
1.0350000000	0.4891261499
1.0400000000	0.4804745371
1.0450000000	0.4732007181
1.0500000000	0.4683059520
1.0550000000	0.4655099037
1.0600000000	0.4654592157
1.0650000000	0.4663545718
1.0700000000	0.4689225047
1.0750000000	0.4731715321
1.0800000000	0.4795778706
1.0850000000	0.4877222982
1.0900000000	0.4998616662
1.0950000000	0.5142978930
1.1000000000	0.5315376878
1.1050000000	0.5513599303
1.1100000000	0.5744120064
1.1150000000	0.6012048122
1.1200000000	0.6323651610
1.1250000000	0.6686087743
1.1300000000	0.7110168616
1.1350000000	0.7608952540
1.1400000000	0.8197553696
1.1450000000	0.8902464602
1.1500000000	0.9753403856
1.1550000000	1.0792906797
1.1600000000	1.2080973453
1.1650000000	1.3695686221
1.1700000000	1.5782147371
1.1750000000	1.8534006481
1.1800000000	2.2270938550
1.1850000000	2.7518099936
1.1900000000	3.5266699143
1.1950000000	4.7416559985
1.2000000000	6.8008007709
1.2050000000	10.6900429282
1.2100000000	19.2435812089
1.2150000000	42.3666018879
1.2200000000	103.9080555436
1.2250000000	93.4464971829
1.2300000000	37.3854627053
1.2350000000	17.6264617726
1.2400000000	10.1460682251
1.2450000000	6.7179349851
1.2500000000	4.9168720738
1.2550000000	3.8857941675
1.2600000000	3.2678776542
1.2650000000	2.8917425169
1.2700000000	2.6816582095
1.2750000000	2.5887659786
1.2800000000	2.5909692632
1.2850000000	2.6801623794
1.2900000000	2.8587654442
1.2950000000	3.1369535650
1.3000000000	3.5467037854
1.3050000000	4.1296425498
1.3100000000	4.9610654665
1.3150000000	6.1707012579
1.3200000000	7.9908151273
1.3250000000	10.8649567175
1.3300000000	15.7612394091
1.3350000000	24.9274653123
1.3400000000	44.5169406742
1.3450000000	93.1588622473
1.3500000000	197.9017193030
1.3550000000	184.6913866026
1.3600000000	85.2024163141
1.3650000000	41.8692285127
1.3700000000	24.0114743324
1.3750000000	15.4400988475
1.3800000000	10.7663477667
1.3850000000	7.9513957410
1.3900000000	6.1380788661
1.3950000000	4.9017107912
1.4000000000	4.0237449267
1.4050000000	3.3808461468
1.4100000000	2.8990541905
1.4150000000	2.5355008248
1.4200000000	2.2620952055
1.4250000000	2.0789437016
1.4300000000	2.0117886144
1.4350000000	2.0489086395
1.4400000000	1.5778774759
1.4450000000	0.1353902781
1.4500000000	-2.2067933435
1.4550000000	-0.6190141729
1.4600000000	2.6712798521
1.4650000000	1.4464196782
1.4700000000	-1.3649490919
1.4750000000	-5.9751068242
1.4800000000	-2.6592630298
1.4850000000	4.3710771219
1.4900000000	3.5432068659
1.4950000000	2.2934314214
1.5000000000	1.6114166319
1.5050000000	1.2441730518
1.5100000000	1.0348542007
1.5150000000	0.9077335432
1.5200000000	0.8256145881
1.5250000000	0.7745906776
1.5300000000	0.7356130736
1.5350000000	0.7087448179
1.5400000000	0.6910450477
1.5450000000	0.6809356837
1.5500000000	0.6773979542
1.5550000000	0.6804572777
1.5600000000	0.6919276604
1.5650000000	0.7108765501
1.5700000000	0.7415609709
1.5750000000	0.7891727480
1.5800000000	0.8634604158
1.5850000000	0.9834000803
1.5900000000	1.1889714802
1.5950000000	1.5686465122
1.6000000000	2.3093029065
1.6050000000	3.5339416553
1.6100000000	4.1010925263
1.6150000000	3.0378611052
1.6200000000	2.0404437302
1.6250000000	1.5139539246
1.6300000000	1.2496109226
1.6350000000	1.1135259234
1.6400000000	1.0445583341
1.6450000000	1.0142915323
1.6500000000	1.0084956045
1.6550000000	1.0205045894
1.6600000000	1.0463404601
1.6650000000	1.0841869255
1.6700000000	1.1333538141
1.6750000000	1.1938458790
1.6800000000	1.2662044682
1.6850000000	1.3512691106
1.6900000000	1.4497826723
1.6950000000	1.5603485551
1.7000000000	1.6811162337
1.7050000000	1.8049037195
1.7100000000	1.9461672689
1.7150000000	2.2970516242
1.7200000000	2.9125860105
1.7250000000	3.4766644521
1.7300000000	4.0821084617
1.7350000000	4.7473487482
1.7400000000	5.4000466088
1.7450000000	6.2383769615
1.7500000000	7.5061694940
1.7550000000	9.3931709923
1.7600000000	12.2164875796
1.7650000000	16.5686598097
1.7700000000	23.5792449686
1.7750000000	35.3902517893
1.7800000000	55.5159563024
1.7850000000	85.1966244280
1.7900000000	105.8764299162
1.7950000000	90.1557090404
1.8000000000	60.0010539587
1.8050000000	37.8919756490
1.8100000000	24.9830366738
1.8150000000	17.4166045924
1.8200000000	12.7601207804
1.8250000000	9.7413074390
1.8300000000	7.6916373596
1.8350000000	6.2448937907
1.8400000000	5.1908714986
1.8450000000	4.4020556297
1.8500000000	3.7980836796
1.8550000000	3.3286706743
1.8600000000	2.9587380157
1.8650000000	2.6644453161
1.8700000000	2.4288362759
1.8750000000	2.2394615961
1.8800000000	2.0864453238
1.8850000000	1.9610596154
1.8900000000	1.8532462791
1.8950000000	1.7479957976
1.9000000000	1.6193905784
1.9050000000	1.3759747950
1.9100000000	1.0409431250
1.9150000000	0.8631985404
1.9200000000	2.1123623347
1.9250000000	5.5658570360
1.9300000000	8.3047294527
1.9350000000	8.1771388275
1.9400000000	6.4316396736
1.9450000000	4.7393100632
1.9500000000	3.5510929481
1.9550000000	2.7725309158
1.9600000000	2.2580296696
1.9650000000	1.9136666711
1.9700000000	1.6650602291
1.9750000000	1.4828222393
1.9800000000	1.3436915574
1.9850000000	1.2307918153
1.9900000000	1.1312095706
1.9950000000	1.0336748315
2.0000000000	0.9365443136
2.0050000000	0.8744940123
2.0100000000	0.9100502450
2.0150000000	1.0079946130
2.0200000000	1.0683923598
2.0250000000	1.0844478912
2.0300000000	1.0880784291
2.0350000000	1.0946722161
2.0400000000	1.1099483060
2.0450000000	1.1353658028
2.0500000000	1.1718721170
2.0550000000	1.2203278217
2.0600000000	1.2807336618
2.0650000000	1.3494285438
2.0700000000	1.4173330750
2.0750000000	1.4776423130
2.0800000000	1.5363582467
2.0850000000	1.6058948546
2.0900000000	1.6945724444
2.0950000000	1.8058934750
2.1000000000	1.9436235724
2.1050000000	2.1065142881
2.1100000000	2.3060136946
2.1150000000	2.5504902533
2.1200000000	2.8516803461
2.1250000000	3.2260463670
2.1300000000	3.6967939442
2.1350000000	4.2970537853
2.1400000000	5.0746654465
2.1450000000	6.0995708157
2.1500000000	7.4736776741
2.1550000000	9.3412131004
2.1600000000	11.8867650686
2.1650000000	15.2666562278
2.1700000000	19.4183548599
2.1750000000	23.5460258293
2.1800000000	26.0964624888
2.1850000000	26.2291361634
2.1900000000	25.0697946800
2.1950000000	24.1677288480
2.2000000000	23.7677915076
2.2050000000	22.6561469878
2.2100000000	20.2957746629
2.2150000000	17.3935817211
2.2200000000	14.7881896656
2.2250000000	12.6350221088
2.2300000000	10.7393262939
2.2350000000	9.0255982204
2.2400000000	7.5537021755
2.2450000000	6.3760252638
2.2500000000	5.4732227599
2.2550000000	4.7950003829
2.2600000000	4.2871520867
2.2650000000	3.8953661576
2.2700000000	3.5609393601
2.2750000000	3.2260440744
2.2800000000	2.8655402948
2.2850000000	2.5225452400
2.2900000000	2.2855663128
2.2950000000	2.2046909829
2.3000000000	2.2337251493
2.3050000000	2.2779954594
2.3100000000	2.2817555642
2.3150000000	2.2454605018
2.3200000000	2.1932421130
2.3250000000	2.1500254328
2.3300000000	2.1285645273
2.3350000000	2.1310523743
2.3400000000	2.1503507540
2.3450000000	2.1703018015
2.3500000000	2.1705592202
2.3550000000	2.1381422744
2.3600000000	2.0767246204
2.3650000000	2.0023590805
2.3700000000	1.9315922804
2.3750000000	1.8743061284
2.3800000000	1.8337094353
2.3850000000	1.8088917766
2.3900000000	1.7977803875
2.3950000000	1.7979750896
2.4000000000	1.8101303336
2.4050000000	1.8382484227
2.4100000000	1.8836717473
2.4150000000	1.9482581156
2.4200000000	2.0331243716
2.4250000000	2.1402234423
2.4300000000	2.2724028401
2.4350000000	2.4334823052
2.4400000000	2.6283908619
2.4450000000	2.8634220329
2.4500000000	3.1465161708
2.4550000000	3.4876536080
2.4600000000	3.8990965107
2.4650000000	4.3955571467
2.4700000000	4.9939089981
2.4750000000	5.7110543711
2.4800000000	6.5644500047
2.4850000000	7.5610072270
2.4900000000	8.6909868849
2.4950000000	9.9139515781
2.5000000000	11.1443796631
2.5050000000	12.2953844121
2.5100000000	13.0729493196
2.5150000000	13.3074992409
2.5200000000	12.9586345983
2.5250000000	12.1340472589
2.5300000000	11.0213334317
2.5350000000	9.8014114764
2.5400000000	8.6020878741
2.5450000000	7.4955693642
2.5500000000	6.5139621101
2.5550000000	5.6645734405
2.5600000000	4.9357244604
2.5650000000	4.3229456255
2.5700000000	3.8118113504
2.5750000000	3.3932913024
2.5800000000	3.0606400791
2.5850000000	2.8065244748
2.5900000000	2.6188828284
2.5950000000	2.4807572850
2.6000000000	2.3744910290
2.6050000000	2.2989692945
2.6100000000	2.2335760020
2.6150000000	2.1772746605
2.6200000000	2.1311778359
2.6250000000	2.0965178977
2.6300000000	2.0741177168
2.6350000000	2.0643971676
2.6400000000	2.0676000069
2.6450000000	2.0839531995
2.6500000000	2.1139008380
2.6550000000	2.1575672723
2.6600000000	2.2156227465
2.6650000000	2.2887442603
2.6700000000	2.3777634582
2.6750000000	2.4836882501
2.6800000000	2.6076356928
2.6850000000	2.7507485914
2.6900000000	2.9139631783
2.6950000000	3.0978226991
2.7000000000	3.3021415030
2.7050000000	3.5501584490
2.7100000000	3.8208388233
2.7150000000	4.1089136038
2.7200000000	4.4067186721
2.7250000000	4.7046250463
2.7300000000	4.9917664870
2.7350000000	5.2566653044
2.7400000000	5.4873829670
2.7450000000	5.6733205862
2.7500000000	5.7980383808
2.7550000000	5.8515828733
2.7600000000	5.8264015626
2.7650000000	5.7216151099
2.7700000000	5.5442471947
2.7750000000	5.3083712180
2.7800000000	5.0323311249
2.7850000000	4.7355874173
2.7900000000	4.4356007840
2.7950000000	4.1463731059
2.8000000000	3.8778050560
2.8050000000	3.6060764409
2.8100000000	3.3735112349
2.8150000000	3.1794855962
2.8200000000	3.0208762956
2.8250000000	2.8935668564
2.8300000000	2.7934106321
2.8350000000	2.7168589364
2.8400000000	2.6601759500
2.8450000000	2.6234918301
2.8500000000	2.6040916158
2.8550000000	2.6009408675
2.8600000000	2.6132671724
2.8650000000	2.6403747503
2.8700000000	2.6814853679
2.8750000000	2.7356117682
2.8800000000	2.8014596631
2.8850000000	2.8773458365
2.8900000000	2.9612470022
2.8950000000	3.0508747213
2.9000000000	3.1438223517
2.9050000000	3.2555224590
2.9100000000	3.3626827377
2.9150000000	3.4619319429
2.9200000000	3.5497316105
2.9250000000	3.6220666399
2.9300000000	3.6752399284
2.9350000000	3.7035027194
2.9400000000	3.7043734529
2.9450000000	3.6767948614
2.9500000000	3.6223583228
2.9550000000	3.5452016106
2.9600000000	3.4512973641
2.9650000000	3.3474131386
2.9700000000	3.2400932212
2.9750000000	3.1349304371
2.9800000000	3.0362102364
2.9850000000	2.9468565091
2.9900000000	2.8686279135
2.9950000000	2.8023500813
3.0000000000	2.7481967961
