# energy (eV)    P(omega), $W$ = 300 nm, $h$ = 300 nm, $s$ = 20 nm, $d/W = 5$, $E_{\rm e}$ = 200 keV
0.2000000000	0.0544312698
0.2050000000	0.0552469389
0.2100000000	0.0560096158
0.2150000000	0.0567210273
0.2200000000	0.0573826447
0.2250000000	0.0579957189
0.2300000000	0.0585612042
0.2350000000	0.0590797333
0.2400000000	0.0595515438
0.2450000000	0.0599764544
0.2500000000	0.0603537639
0.2550000000	0.0606821347
0.2600000000	0.0609595612
0.2650000000	0.0611831300
0.2700000000	0.0613488958
0.2750000000	0.0614516300
0.2800000000	0.0614845460
0.2850000000	0.0614389186
0.2900000000	0.0613035715
0.2950000000	0.0610643243
0.3000000000	0.0607030627
0.3050000000	0.0601967041
0.3100000000	0.0595156967
0.3150000000	0.0628986634
0.3200000000	0.0669163693
0.3250000000	0.0719979426
0.3300000000	0.0788032406
0.3350000000	0.0872740998
0.3400000000	0.0983668177
0.3450000000	0.1118212263
0.3500000000	0.1294217087
0.3550000000	0.1527099908
0.3600000000	0.1831168466
0.3650000000	0.2255065764
0.3700000000	0.2813993188
0.3750000000	0.3591467792
0.3800000000	0.4715897742
0.3850000000	0.6467948598
0.3900000000	0.9235760801
0.3950000000	1.3937155636
0.4000000000	2.2899583042
0.4050000000	4.2992932947
0.4100000000	9.7819617942
0.4150000000	31.3924310279
0.4200000000	20.0016261919
0.4250000000	-37.6479468210
0.4300000000	10.4687657520
0.4350000000	6.5236214792
0.4400000000	3.9878350354
0.4450000000	2.6228608412
0.4500000000	1.8370850401
0.4550000000	1.3535271410
0.4600000000	1.0385907504
0.4650000000	0.8239809021
0.4700000000	0.6722988153
0.4750000000	0.5625990649
0.4800000000	0.4812656631
0.4850000000	0.4200641042
0.4900000000	0.3733469329
0.4950000000	0.3373230201
0.5000000000	0.3094010030
0.5050000000	0.2876796332
0.5100000000	0.2709346226
0.5150000000	0.2582646324
0.5200000000	0.2487276493
0.5250000000	0.2418991393
0.5300000000	0.2373235114
0.5350000000	0.2346675572
0.5400000000	0.2336856183
0.5450000000	0.2341724756
0.5500000000	0.2360631531
0.5550000000	0.2392419561
0.5600000000	0.2436497433
0.5650000000	0.2492599339
0.5700000000	0.2560483032
0.5750000000	0.2640622710
0.5800000000	0.2733789274
0.5850000000	0.2840485639
0.5900000000	0.2961686700
0.5950000000	0.3098619056
0.6000000000	0.3252845190
0.6050000000	0.3426630036
0.6100000000	0.3622134320
0.6150000000	0.3842310248
0.6200000000	0.4091095898
0.6250000000	0.4372266961
0.6300000000	0.4691404278
0.6350000000	0.5055463575
0.6400000000	0.5471682240
0.6450000000	0.5950507191
0.6500000000	0.6505674159
0.6550000000	0.7151481632
0.6600000000	0.7909905752
0.6650000000	0.8809144460
0.6700000000	0.9882348329
0.6750000000	1.1180069851
0.6800000000	1.2770290916
0.6850000000	1.4742067772
0.6900000000	1.7233332107
0.6950000000	2.0436992733
0.7000000000	2.4659484568
0.7050000000	3.0369267414
0.7100000000	3.8360088335
0.7150000000	5.0044907926
0.7200000000	6.8054225091
0.7250000000	9.7948518382
0.7300000000	15.2819858571
0.7350000000	27.0228734697
0.7400000000	59.2226161347
0.7450000000	196.4703152668
0.7500000000	608.6672336278
0.7550000000	153.1237346879
0.7600000000	50.7111411828
0.7650000000	24.2979382205
0.7700000000	14.1308399206
0.7750000000	9.2228179403
0.7800000000	6.4904977581
0.7850000000	4.8205048260
0.7900000000	3.7242399440
0.7950000000	2.9681698996
0.8000000000	2.4246582115
0.8050000000	2.0198628484
0.8100000000	1.7111835446
0.8150000000	1.4664882639
0.8200000000	1.2733677848
0.8250000000	1.1178693266
0.8300000000	0.9904916222
0.8350000000	0.8857635535
0.8400000000	0.7979708474
0.8450000000	0.7243013659
0.8500000000	0.6620294229
0.8550000000	0.6082913073
0.8600000000	0.5624168817
0.8650000000	0.5232324294
0.8700000000	0.4886097210
0.8750000000	0.4591582613
0.8800000000	0.4341681944
0.8850000000	0.4117632146
0.8900000000	0.3937909415
0.8950000000	0.3774416969
0.9000000000	0.3644847114
0.9050000000	0.3555622464
0.9100000000	0.3473857244
0.9150000000	0.3424274141
0.9200000000	0.3418340172
0.9250000000	0.3413947699
0.9300000000	0.3363899041
0.9350000000	0.3213640984
0.9400000000	0.2376418801
0.9450000000	-0.1429118597
0.9500000000	-2.1512718347
0.9550000000	-12.3380586447
0.9600000000	2.9113511867
0.9650000000	5.1142459355
0.9700000000	2.2683674930
0.9750000000	1.1908387063
0.9800000000	0.7463136792
0.9850000000	0.5384078708
0.9900000000	0.4186166896
0.9950000000	0.3459780897
1.0000000000	0.2995981441
1.0050000000	0.2701945626
1.0100000000	0.2473993446
1.0150000000	0.2307459718
1.0200000000	0.2195291385
1.0250000000	0.2101140867
1.0300000000	0.2029615668
1.0350000000	0.1975506491
1.0400000000	0.1941106028
1.0450000000	0.1912499838
1.0500000000	0.1893627925
1.0550000000	0.1883372948
1.0600000000	0.1884260390
1.0650000000	0.1889261040
1.0700000000	0.1901240546
1.0750000000	0.1920248762
1.0800000000	0.1948165964
1.0850000000	0.1983593705
1.0900000000	0.2035856291
1.0950000000	0.2097921546
1.1000000000	0.2171872484
1.1050000000	0.2257101730
1.1100000000	0.2356302168
1.1150000000	0.2471704092
1.1200000000	0.2605952351
1.1250000000	0.2762500539
1.1300000000	0.2945978834
1.1350000000	0.3162149935
1.1400000000	0.3417577085
1.1450000000	0.3724239458
1.1500000000	0.4095165095
1.1550000000	0.4549187488
1.1600000000	0.5112877293
1.1650000000	0.5820712312
1.1700000000	0.6737275813
1.1750000000	0.7948306725
1.1800000000	0.9595543418
1.1850000000	1.1911969162
1.1900000000	1.5336680359
1.1950000000	2.0712765754
1.2000000000	2.9831352590
1.2050000000	4.7063063318
1.2100000000	8.4969431401
1.2150000000	18.7430401509
1.2200000000	45.9992943339
1.2250000000	41.3280072115
1.2300000000	16.4858765844
1.2350000000	7.7324114775
1.2400000000	4.4168112393
1.2450000000	2.8944666773
1.2500000000	2.0913839418
1.2550000000	1.6279280189
1.2600000000	1.3459358394
1.2650000000	1.1693294503
1.2700000000	1.0640603409
1.2750000000	1.0080526208
1.2800000000	0.9908011845
1.2850000000	1.0077224228
1.2900000000	1.0584557092
1.2950000000	1.1456417017
1.3000000000	1.2800390005
1.3050000000	1.4754454964
1.3100000000	1.7575796641
1.3150000000	2.1709390695
1.3200000000	2.7955163017
1.3250000000	3.7837773000
1.3300000000	5.4696325811
1.3350000000	8.6272586356
1.3400000000	15.3760242349
1.3450000000	32.1299851588
1.3500000000	68.1880994875
1.3550000000	63.5955577679
1.3600000000	29.3270504603
1.3650000000	14.4094676621
1.3700000000	8.2636623745
1.3750000000	5.3142816273
1.3800000000	3.7061179974
1.3850000000	2.7373779380
1.3900000000	2.1130147630
1.3950000000	1.6870324461
1.4000000000	1.3840258391
1.4050000000	1.1614790509
1.4100000000	0.9936438181
1.4150000000	0.8651409445
1.4200000000	0.7651250446
1.4250000000	0.6907295230
1.4300000000	0.6434724039
1.4350000000	0.6123561474
1.4400000000	0.4212340794
1.4450000000	-0.1083701262
1.4500000000	-1.0296748679
1.4550000000	-0.3438628047
1.4600000000	1.0479834602
1.4650000000	0.6069187801
1.4700000000	-0.3880417620
1.4750000000	-1.9622995509
1.4800000000	-0.8657821306
1.4850000000	1.4830791771
1.4900000000	1.2005984521
1.4950000000	0.7789292448
1.5000000000	0.5483960399
1.5050000000	0.4235976990
1.5100000000	0.3521594308
1.5150000000	0.3083591277
1.5200000000	0.2796702693
1.5250000000	0.2614602327
1.5300000000	0.2471098235
1.5350000000	0.2366843845
1.5400000000	0.2291310638
1.5450000000	0.2238219623
1.5500000000	0.2203227829
1.5550000000	0.2184523646
1.5600000000	0.2185840203
1.5650000000	0.2199620719
1.5700000000	0.2233907981
1.5750000000	0.2295009055
1.5800000000	0.2395490261
1.5850000000	0.2560099219
1.5900000000	0.2841193281
1.5950000000	0.3354522778
1.6000000000	0.4344039892
1.6050000000	0.5968114068
1.6100000000	0.6725688002
1.6150000000	0.5357353255
1.6200000000	0.4088541788
1.6250000000	0.3443773253
1.6300000000	0.3148091687
1.6350000000	0.3026516843
1.6400000000	0.2999790780
1.6450000000	0.3031663603
1.6500000000	0.3104492872
1.6550000000	0.3211043082
1.6600000000	0.3347630142
1.6650000000	0.3513768892
1.6700000000	0.3710846354
1.6750000000	0.3941708527
1.6800000000	0.4210512275
1.6850000000	0.4522804933
1.6900000000	0.4885030201
1.6950000000	0.5300923724
1.7000000000	0.5779646098
1.7050000000	0.6333490339
1.7100000000	0.7004769751
1.7150000000	0.8133372404
1.7200000000	0.9838134911
1.7250000000	1.1680497483
1.7300000000	1.3870942322
1.7350000000	1.6240982409
1.7400000000	1.8429260178
1.7450000000	2.1187240754
1.7500000000	2.5414950213
1.7550000000	3.1755935099
1.7600000000	4.1269406134
1.7650000000	5.5946268901
1.7700000000	7.9589081198
1.7750000000	11.9410581811
1.7800000000	18.7233663311
1.7850000000	28.7178927506
1.7900000000	35.6651307503
1.7950000000	30.3454721944
1.8000000000	20.1763954455
1.8050000000	12.7271038332
1.8100000000	8.3796692772
1.8150000000	5.8321553042
1.8200000000	4.2644962454
1.8250000000	3.2479965446
1.8300000000	2.5574515697
1.8350000000	2.0695106743
1.8400000000	1.7133745011
1.8450000000	1.4460412142
1.8500000000	1.2403818128
1.8550000000	1.0793869510
1.8600000000	0.9510931574
1.8650000000	0.8472772603
1.8700000000	0.7619476798
1.8750000000	0.6905090319
1.8800000000	0.6290503155
1.8850000000	0.5737590409
1.8900000000	0.5199173982
1.8950000000	0.4603786133
1.9000000000	0.3830326821
1.9050000000	0.2483569395
1.9100000000	0.0549672646
1.9150000000	-0.1311123274
1.9200000000	0.0944292190
1.9250000000	0.9954972704
1.9300000000	1.7152969610
1.9350000000	1.7313012093
1.9400000000	1.3897355952
1.9450000000	1.0532121967
1.9500000000	0.8146990449
1.9550000000	0.6569363192
1.9600000000	0.5518068646
1.9650000000	0.4817545846
1.9700000000	0.4301890506
1.9750000000	0.3923770007
1.9800000000	0.3636777911
1.9850000000	0.3407634428
1.9900000000	0.3211565258
1.9950000000	0.3027569018
2.0000000000	0.2851872620
2.0050000000	0.2747388227
2.0100000000	0.2817612650
2.0150000000	0.3000751419
2.0200000000	0.3124464692
2.0250000000	0.3178197578
2.0300000000	0.3219136208
2.0350000000	0.3273740690
2.0400000000	0.3354871915
2.0450000000	0.3467981567
2.0500000000	0.3618608105
2.0550000000	0.3812258755
2.0600000000	0.4049249334
2.0650000000	0.4310685330
2.0700000000	0.4549531471
2.0750000000	0.4729060115
2.0800000000	0.4876590516
2.0850000000	0.5051483403
2.0900000000	0.5291501970
2.0950000000	0.5609743851
2.1000000000	0.6016253516
2.1050000000	0.6504914586
2.1100000000	0.7109772860
2.1150000000	0.7855234126
2.1200000000	0.8776394582
2.1250000000	0.9923052561
2.1300000000	1.1365765014
2.1350000000	1.3205483982
2.1400000000	1.5588010548
2.1450000000	1.8726460496
2.1500000000	2.2931184465
2.1550000000	2.8641138373
2.1600000000	3.6417941758
2.1650000000	4.6737547830
2.1700000000	5.9418546475
2.1750000000	7.2063519545
2.1800000000	8.0004690946
2.1850000000	8.0748735526
2.1900000000	7.7733301106
2.1950000000	7.5593899133
2.2000000000	7.4846451415
2.2050000000	7.1330043077
2.2100000000	6.3264156274
2.2150000000	5.3115481557
2.2200000000	4.3884746537
2.2250000000	3.6404880652
2.2300000000	3.0263693505
2.2350000000	2.5123505195
2.2400000000	2.0902741837
2.2450000000	1.7569855940
2.2500000000	1.4987063738
2.2550000000	1.2988186805
2.2600000000	1.1419369091
2.2650000000	1.0141911505
2.2700000000	0.9024508300
2.2750000000	0.7956175818
2.2800000000	0.6911108591
2.2850000000	0.6016890786
2.2900000000	0.5490878309
2.2950000000	0.5430529506
2.3000000000	0.5668111547
2.3050000000	0.5918519432
2.3100000000	0.6006972870
2.3150000000	0.5938961702
2.3200000000	0.5790051161
2.3250000000	0.5637907402
2.3300000000	0.5523762706
2.3350000000	0.5459652401
2.3400000000	0.5436518208
2.3450000000	0.5428008779
2.3500000000	0.5400182505
2.3550000000	0.5331356449
2.3600000000	0.5227529378
2.3650000000	0.5115149664
2.3700000000	0.5021099648
2.3750000000	0.4960321467
2.3800000000	0.4935215350
2.3850000000	0.4939781007
2.3900000000	0.4966353708
2.3950000000	0.5007586926
2.4000000000	0.5067138732
2.4050000000	0.5160543675
2.4100000000	0.5294400502
2.4150000000	0.5477824112
2.4200000000	0.5717100823
2.4250000000	0.6018971486
2.4300000000	0.6391709312
2.4350000000	0.6845921019
2.4400000000	0.7395256659
2.4450000000	0.8057218799
2.4500000000	0.8853990221
2.4550000000	0.9813560350
2.4600000000	1.0970344007
2.4650000000	1.2365830900
2.4700000000	1.4047762378
2.4750000000	1.6064277111
2.4800000000	1.8466173582
2.4850000000	2.1274548130
2.4900000000	2.4463083829
2.4950000000	2.7915464608
2.5000000000	3.1380585771
2.5050000000	3.4592156292
2.5100000000	3.6697961740
2.5150000000	3.7219956849
2.5200000000	3.6078225937
2.5250000000	3.3626861352
2.5300000000	3.0428516275
2.5350000000	2.6993639264
2.5400000000	2.3659105012
2.5450000000	2.0600707808
2.5500000000	1.7889238350
2.5550000000	1.5536855294
2.5600000000	1.3510003474
2.5650000000	1.1801304108
2.5700000000	1.0374477315
2.5750000000	0.9207602416
2.5800000000	0.8283922063
2.5850000000	0.7583661659
2.5900000000	0.7072244497
2.5950000000	0.6700043511
2.6000000000	0.6415182448
2.6050000000	0.6211919200
2.6100000000	0.6031706654
2.6150000000	0.5872127824
2.6200000000	0.5736929234
2.6250000000	0.5629952132
2.6300000000	0.5553660102
2.6350000000	0.5509234396
2.6400000000	0.5497296820
2.6450000000	0.5518478449
2.6500000000	0.5574076102
2.6550000000	0.5664379282
2.6600000000	0.5791369939
2.6650000000	0.5956933490
2.6700000000	0.6163290639
2.6750000000	0.6413038319
2.6800000000	0.6708953074
2.6850000000	0.7053876175
2.6900000000	0.7450321180
2.6950000000	0.7900211980
2.7000000000	0.8404255308
2.7050000000	0.9021427635
2.7100000000	0.9704805129
2.7150000000	1.0446047977
2.7200000000	1.1231142331
2.7250000000	1.2040160384
2.7300000000	1.2847307197
2.7350000000	1.3621010791
2.7400000000	1.4323714262
2.7450000000	1.4917941128
2.7500000000	1.5348039753
2.7550000000	1.5577172302
2.7600000000	1.5577518998
2.7650000000	1.5342952217
2.7700000000	1.4892154925
2.7750000000	1.4265468505
2.7800000000	1.3516136983
2.7850000000	1.2700791941
2.7900000000	1.1870168990
2.7950000000	1.1064935072
2.8000000000	1.0313865268
2.8050000000	0.9550969380
2.8100000000	0.8894243860
2.8150000000	0.8342219309
2.8200000000	0.7886272618
2.8250000000	0.7514939187
2.8300000000	0.7216655434
2.8350000000	0.6981578456
2.8400000000	0.6799237569
2.8450000000	0.6670270369
2.8500000000	0.6586984494
2.8550000000	0.6546471465
2.8600000000	0.6546586757
2.8650000000	0.6585509925
2.8700000000	0.6661466952
2.8750000000	0.6772431314
2.8800000000	0.6915927630
2.8850000000	0.7088819421
2.8900000000	0.7287363697
2.8950000000	0.7507123404
2.9000000000	0.7743219247
2.9050000000	0.8041768776
2.9100000000	0.8340143844
2.9150000000	0.8627691154
2.9200000000	0.8892180449
2.9250000000	0.9119497979
2.9300000000	0.9296497219
2.9350000000	0.9404738435
2.9400000000	0.9435435523
2.9450000000	0.9384295169
2.9500000000	0.9254824020
2.9550000000	0.9058033817
2.9600000000	0.8810301770
2.9650000000	0.8530482962
2.9700000000	0.8237020993
2.9750000000	0.7945818194
2.9800000000	0.7669171754
2.9850000000	0.7415580270
2.9900000000	0.7190280910
2.9950000000	0.6995812625
3.0000000000	0.6832911855
