# energy (eV)    P(omega), $W$ = 400 nm, $h$ = 300 nm, $s$ = 20 nm, $d/W = 5$, $E_{\rm e}$ = 200 keV
0.2000000000	0.0562440090
0.2050000000	0.0567556238
0.2100000000	0.0571158016
0.2150000000	0.0573184766
0.2200000000	0.0573551664
0.2250000000	0.0572143470
0.2300000000	0.0568808544
0.2350000000	0.0563349444
0.2400000000	0.0555512244
0.2450000000	0.0544969690
0.2500000000	0.0531303374
0.2550000000	0.0513974934
0.2600000000	0.0492290605
0.2650000000	0.0515009048
0.2700000000	0.0572718611
0.2750000000	0.0655299094
0.2800000000	0.0770356850
0.2850000000	0.0939981766
0.2900000000	0.1150158275
0.2950000000	0.1451463343
0.3000000000	0.1856502224
0.3050000000	0.2477328935
0.3100000000	0.3342118715
0.3150000000	0.5015446838
0.3200000000	0.7628852953
0.3250000000	0.9418084308
0.3300000000	1.1893164244
0.3350000000	1.5401938746
0.3400000000	2.0909999413
0.3450000000	3.0360053356
0.3500000000	4.9204259243
0.3550000000	9.2826191617
0.3600000000	22.8131227516
0.3650000000	0.1031377180
0.3700000000	10.5730031062
0.3750000000	13.9030619727
0.3800000000	6.4783276032
0.3850000000	3.6492888177
0.3900000000	2.3406879669
0.3950000000	1.6494282874
0.4000000000	1.2491897306
0.4050000000	0.9882624966
0.4100000000	0.8183931079
0.4150000000	0.7063547161
0.4200000000	0.6355438772
0.4250000000	0.5799308828
0.4300000000	0.5142169329
0.4350000000	0.4622082151
0.4400000000	0.4210750972
0.4450000000	0.3883693545
0.4500000000	0.3625482580
0.4550000000	0.3420727492
0.4600000000	0.3261000387
0.4650000000	0.3137387443
0.4700000000	0.3043987551
0.4750000000	0.2976671867
0.4800000000	0.2931837381
0.4850000000	0.2906324850
0.4900000000	0.2898265954
0.4950000000	0.2906223283
0.5000000000	0.2928968603
0.5050000000	0.2965954414
0.5100000000	0.3016732190
0.5150000000	0.3081035306
0.5200000000	0.3158996947
0.5250000000	0.3250726290
0.5300000000	0.3357570050
0.5350000000	0.3480126801
0.5400000000	0.3619474567
0.5450000000	0.3777027106
0.5500000000	0.3954784645
0.5550000000	0.4154935149
0.5600000000	0.4380141707
0.5650000000	0.4633828838
0.5700000000	0.4920723908
0.5750000000	0.5244330625
0.5800000000	0.5611204905
0.5850000000	0.6030304319
0.5900000000	0.6507670701
0.5950000000	0.7056017949
0.6000000000	0.7692142733
0.6050000000	0.8428633564
0.6100000000	0.9294348471
0.6150000000	1.0313217880
0.6200000000	1.1526321734
0.6250000000	1.2992595933
0.6300000000	1.4772144426
0.6350000000	1.6977908849
0.6400000000	1.9734492910
0.6450000000	2.3268008943
0.6500000000	2.7867290650
0.6550000000	3.4021594307
0.6600000000	4.2557019678
0.6650000000	5.4778728876
0.6700000000	7.3285288376
0.6750000000	10.3041000919
0.6800000000	15.5639755577
0.6850000000	26.1182408390
0.6900000000	52.3449866998
0.6950000000	146.9397938455
0.7000000000	712.6685135191
0.7050000000	346.4804679058
0.7100000000	89.0033850267
0.7150000000	37.8491792523
0.7200000000	20.6698846166
0.7250000000	12.9843610291
0.7300000000	8.9054633784
0.7350000000	6.4942268524
0.7400000000	4.9501603389
0.7450000000	3.9021101986
0.7500000000	3.1596919829
0.7550000000	2.6142595030
0.7600000000	2.2031552474
0.7650000000	1.8843501084
0.7700000000	1.6326863749
0.7750000000	1.4306476827
0.7800000000	1.2664643651
0.7850000000	1.1312763466
0.7900000000	1.0180202793
0.7950000000	0.9234307195
0.8000000000	0.8430041503
0.8050000000	0.7740992437
0.8100000000	0.7154405164
0.8150000000	0.6640286479
0.8200000000	0.6192691474
0.8250000000	0.5817080513
0.8300000000	0.5488296469
0.8350000000	0.5202466302
0.8400000000	0.4974843534
0.8450000000	0.4776230088
0.8500000000	0.4607826229
0.8550000000	0.4501375676
0.8600000000	0.4416105350
0.8650000000	0.4355048605
0.8700000000	0.4376288139
0.8750000000	0.4383720105
0.8800000000	0.4360115567
0.8850000000	0.4170534109
0.8900000000	0.3236507819
0.8950000000	-0.1444340292
0.9000000000	-2.6544246241
0.9050000000	-17.4415858197
0.9100000000	3.3212214921
0.9150000000	7.8673328701
0.9200000000	3.2658810232
0.9250000000	1.6990076308
0.9300000000	1.0371174884
0.9350000000	0.7208888703
0.9400000000	0.5502975978
0.9450000000	0.4557403531
0.9500000000	0.3885901439
0.9550000000	0.3436412418
0.9600000000	0.3158431702
0.9650000000	0.2929075791
0.9700000000	0.2765430367
0.9750000000	0.2653923950
0.9800000000	0.2586070616
0.9850000000	0.2573702685
0.9900000000	0.2598593110
0.9950000000	0.2698792771
1.0000000000	0.2938224151
1.0050000000	0.3497122824
1.0100000000	0.4961782159
1.0150000000	0.9981511769
1.0200000000	1.9171211802
1.0250000000	0.8713985561
1.0300000000	0.4461779535
1.0350000000	0.3194423963
1.0400000000	0.2696033323
1.0450000000	0.2462207659
1.0500000000	0.2344971371
1.0550000000	0.2283439680
1.0600000000	0.2255783599
1.0650000000	0.2250547702
1.0700000000	0.2261380945
1.0750000000	0.2286044855
1.0800000000	0.2320107769
1.0850000000	0.2366482572
1.0900000000	0.2433511374
1.0950000000	0.2511661858
1.1000000000	0.2601699164
1.1050000000	0.2703784731
1.1100000000	0.2819533872
1.1150000000	0.2950486456
1.1200000000	0.3098470258
1.1250000000	0.3264997903
1.1300000000	0.3454383380
1.1350000000	0.3669534874
1.1400000000	0.3914807132
1.1450000000	0.4195737973
1.1500000000	0.4516637023
1.1550000000	0.4890922163
1.1600000000	0.5327078269
1.1650000000	0.5836218429
1.1700000000	0.6420643265
1.1750000000	0.7013333918
1.1800000000	0.7574157653
1.1850000000	1.0527114893
1.1900000000	1.3064278506
1.1950000000	1.7909292404
1.2000000000	2.4391365259
1.2050000000	2.1395140237
1.2100000000	2.0475267322
1.2150000000	2.2794711433
1.2200000000	2.7262603107
1.2250000000	3.4123912987
1.2300000000	4.4557039091
1.2350000000	6.1061160530
1.2400000000	8.8862354624
1.2450000000	14.1211805263
1.2500000000	25.4585914621
1.2550000000	55.1098196048
1.2600000000	133.1130830841
1.2650000000	134.8379239009
1.2700000000	56.0897853449
1.2750000000	25.8910792346
1.2800000000	14.3389326719
1.2850000000	9.0171677652
1.2900000000	6.1804408387
1.2950000000	4.5043938648
1.3000000000	3.4368262285
1.3050000000	2.7180363888
1.3100000000	2.2111736798
1.3150000000	1.8449401013
1.3200000000	1.5734504160
1.3250000000	1.3691441928
1.3300000000	1.2152812621
1.3350000000	1.1015895817
1.3400000000	1.0227360518
1.3450000000	0.9772577542
1.3500000000	0.9717874375
1.3550000000	1.0214254111
1.3600000000	1.1645941462
1.3650000000	1.4990687872
1.3700000000	2.2978460521
1.3750000000	4.2852741608
1.3800000000	6.9996709303
1.3850000000	4.8898075204
1.3900000000	2.4918883871
1.3950000000	1.4458847540
1.4000000000	0.9469128322
1.4050000000	0.6402412762
1.4100000000	0.3626725868
1.4150000000	-0.0514111737
1.4200000000	-0.9784871523
1.4250000000	-3.4349960379
1.4300000000	-4.6185686669
1.4350000000	2.1159445934
1.4400000000	2.7066188779
1.4450000000	1.6227330284
1.4500000000	1.0097284640
1.4550000000	0.6960491558
1.4600000000	0.5139911001
1.4650000000	0.3701106315
1.4700000000	0.2162112177
1.4750000000	0.2540798131
1.4800000000	0.3724881578
1.4850000000	0.3382316912
1.4900000000	0.2994966553
1.4950000000	0.2744425366
1.5000000000	0.2579840419
1.5050000000	0.2471017632
1.5100000000	0.2396988249
1.5150000000	0.2356596861
1.5200000000	0.2326824191
1.5250000000	0.2316087314
1.5300000000	0.2325376691
1.5350000000	0.2358942156
1.5400000000	0.2427385443
1.5450000000	0.2554250968
1.5500000000	0.2792457693
1.5550000000	0.3247488299
1.5600000000	0.3930524649
1.5650000000	0.4039984138
1.5700000000	0.3423589941
1.5750000000	0.2991042506
1.5800000000	0.2804433860
1.5850000000	0.2745700096
1.5900000000	0.2753282870
1.5950000000	0.2800448644
1.6000000000	0.2875549990
1.6050000000	0.2974576468
1.6100000000	0.3094533740
1.6150000000	0.3234975390
1.6200000000	0.3398138287
1.6250000000	0.3585952083
1.6300000000	0.3801588587
1.6350000000	0.4049137010
1.6400000000	0.4333826410
1.6450000000	0.4662335377
1.6500000000	0.5043047119
1.6550000000	0.5486585574
1.6600000000	0.6006715156
1.6650000000	0.6621202796
1.6700000000	0.7347323373
1.6750000000	0.8227470163
1.6800000000	0.9299115046
1.6850000000	1.0621208268
1.6900000000	1.2277448340
1.6950000000	1.4390659292
1.7000000000	1.7145738703
1.7050000000	2.0946442557
1.7100000000	2.6249096827
1.7150000000	3.3956610551
1.7200000000	4.5703111282
1.7250000000	6.4338453986
1.7300000000	9.2975887189
1.7350000000	12.9727184786
1.7400000000	17.6186975791
1.7450000000	25.7716096840
1.7500000000	36.3548200627
1.7550000000	36.9396350557
1.7600000000	25.9155030622
1.7650000000	16.1429366146
1.7700000000	10.3482545511
1.7750000000	7.0531863175
1.7800000000	5.1059433566
1.7850000000	3.9081498817
1.7900000000	3.1653394439
1.7950000000	2.7403180874
1.8000000000	2.5687783045
1.8050000000	2.5144788799
1.8100000000	2.2371672318
1.8150000000	1.7334794349
1.8200000000	1.3310665724
1.8250000000	1.1235835196
1.8300000000	0.9781932190
1.8350000000	0.8489824029
1.8400000000	0.7436209520
1.8450000000	0.6600101586
1.8500000000	0.5926286277
1.8550000000	0.5369637284
1.8600000000	0.4857594435
1.8650000000	0.4424703729
1.8700000000	0.3987195348
1.8750000000	0.3356495665
1.8800000000	0.1918875314
1.8850000000	-0.1231893981
1.8900000000	-0.5469851371
1.8950000000	-0.6196982965
1.9000000000	0.0663129000
1.9050000000	0.7059188318
1.9100000000	0.7805529431
1.9150000000	0.6594230144
1.9200000000	0.5407045912
1.9250000000	0.4564618695
1.9300000000	0.4054446216
1.9350000000	0.3664957005
1.9400000000	0.3405867908
1.9450000000	0.3234375014
1.9500000000	0.3114507564
1.9550000000	0.3014187669
1.9600000000	0.2927547371
1.9650000000	0.2866017100
1.9700000000	0.2833153851
1.9750000000	0.2826771846
1.9800000000	0.2845097803
1.9850000000	0.2888662678
1.9900000000	0.2960326183
1.9950000000	0.3063666370
2.0000000000	0.3195995561
2.0050000000	0.3346114786
2.0100000000	0.3453795649
2.0150000000	0.3525608430
2.0200000000	0.3612200251
2.0250000000	0.3745865716
2.0300000000	0.3936108085
2.0350000000	0.4187684086
2.0400000000	0.4509231205
2.0450000000	0.4915737050
2.0500000000	0.5428727192
2.0550000000	0.6072123658
2.0600000000	0.6857529767
2.0650000000	0.7772598416
2.0700000000	0.8831075962
2.0750000000	1.0151038283
2.0800000000	1.1927427057
2.0850000000	1.4350312577
2.0900000000	1.7530234767
2.0950000000	2.1238729218
2.1000000000	2.4544030032
2.1050000000	2.6145646875
2.1100000000	2.5385025574
2.1150000000	2.3634753667
2.1200000000	2.2397623990
2.1250000000	2.2344785821
2.1300000000	2.3675351587
2.1350000000	2.6547131306
2.1400000000	3.1276215801
2.1450000000	3.8421823427
2.1500000000	4.8767048472
2.1550000000	6.2900119561
2.1600000000	7.9681296034
2.1650000000	9.3785575553
2.1700000000	9.7118193835
2.1750000000	8.6936460279
2.1800000000	7.0186068088
2.1850000000	5.4151824072
2.1900000000	4.1615417702
2.1950000000	3.2558234977
2.2000000000	2.6203866266
2.2050000000	2.1819872243
2.2100000000	1.8776481141
2.2150000000	1.6442176382
2.2200000000	1.4350506697
2.2250000000	1.2361005630
2.2300000000	1.0559657296
2.2350000000	0.9012952266
2.2400000000	0.7702947148
2.2450000000	0.6571806375
2.2500000000	0.5561963019
2.2550000000	0.4641222487
2.2600000000	0.3720466144
2.2650000000	0.3050643840
2.2700000000	0.2686802727
2.2750000000	0.2778411257
2.2800000000	0.3306890736
2.2850000000	0.3979845678
2.2900000000	0.4472438383
2.2950000000	0.4690770133
2.3000000000	0.4715755630
2.3050000000	0.4640439727
2.3100000000	0.4541220614
2.3150000000	0.4453300311
2.3200000000	0.4390596587
2.3250000000	0.4360756455
2.3300000000	0.4369969492
2.3350000000	0.4423362736
2.3400000000	0.4525314817
2.3450000000	0.4680254953
2.3500000000	0.4892874920
2.3550000000	0.5170208038
2.3600000000	0.5507700221
2.3650000000	0.5907450372
2.3700000000	0.6368346109
2.3750000000	0.6895390191
2.3800000000	0.7507607786
2.3850000000	0.8227574309
2.3900000000	0.9060282137
2.3950000000	0.9968652168
2.4000000000	1.0857362543
2.4050000000	1.1623233379
2.4100000000	1.2047733558
2.4150000000	1.2088303011
2.4200000000	1.1848725067
2.4250000000	1.1505978790
2.4300000000	1.1217136657
2.4350000000	1.1077014007
2.4400000000	1.1123445481
2.4450000000	1.1362542600
2.4500000000	1.1795067614
2.4550000000	1.2430657871
2.4600000000	1.3310063333
2.4650000000	1.4475058076
2.4700000000	1.5972160556
2.4750000000	1.7830425541
2.4800000000	2.0035192104
2.4850000000	2.2492388314
2.4900000000	2.4986825396
2.4950000000	2.7161408337
2.5000000000	2.8569285494
2.5050000000	2.8750279287
2.5100000000	2.7520644283
2.5150000000	2.5216010383
2.5200000000	2.2372655303
2.5250000000	1.9461713799
2.5300000000	1.6770371225
2.5350000000	1.4419293305
2.5400000000	1.2426244698
2.5450000000	1.0761654920
2.5500000000	0.9382672451
2.5550000000	0.8250795504
2.5600000000	0.7304355193
2.5650000000	0.6596061512
2.5700000000	0.6087135343
2.5750000000	0.5759426584
2.5800000000	0.5576559456
2.5850000000	0.5488783884
2.5900000000	0.5449410352
2.5950000000	0.5429365643
2.6000000000	0.5419275599
2.6050000000	0.5462497301
2.6100000000	0.5530972384
2.6150000000	0.5635184631
2.6200000000	0.5780704011
2.6250000000	0.5967873715
2.6300000000	0.6191410561
2.6350000000	0.6440101534
2.6400000000	0.6696813706
2.6450000000	0.6939821287
2.6500000000	0.7146115536
2.6550000000	0.7296831829
2.6600000000	0.7383207423
2.6650000000	0.7410389483
2.6700000000	0.7396345952
2.6750000000	0.7367341536
2.6800000000	0.7348826289
2.6850000000	0.7364577906
2.6900000000	0.7431155236
2.6950000000	0.7558734468
2.7000000000	0.7752194664
2.7050000000	0.8041790485
2.7100000000	0.8414496040
2.7150000000	0.8864285334
2.7200000000	0.9378702255
2.7250000000	0.9936602538
2.7300000000	1.0506065163
2.7350000000	1.1044053984
2.7400000000	1.1499378589
2.7450000000	1.1820062896
2.7500000000	1.1964213744
2.7550000000	1.1910724308
2.7600000000	1.1664987498
2.7650000000	1.1256948318
2.7700000000	1.0732429535
2.7750000000	1.0142199424
2.7800000000	0.9532811089
2.7850000000	0.8941505130
2.7900000000	0.8389871815
2.7950000000	0.7901536944
2.8000000000	0.7481387926
2.8050000000	0.7092253756
2.8100000000	0.6785450104
2.8150000000	0.6548897681
2.8200000000	0.6369474325
2.8250000000	0.6235138659
2.8300000000	0.6135656571
2.8350000000	0.6062539248
2.8400000000	0.6008613850
2.8450000000	0.5967790561
2.8500000000	0.5935179332
2.8550000000	0.5907533877
2.8600000000	0.5883755315
2.8650000000	0.5865054472
2.8700000000	0.5854644383
2.8750000000	0.5856943978
2.8800000000	0.5876599756
2.8850000000	0.5917603032
2.8900000000	0.5982675588
2.8950000000	0.6072898832
2.9000000000	0.6187531686
2.9050000000	0.6359002182
2.9100000000	0.6547041866
2.9150000000	0.6739095755
2.9200000000	0.6919297033
2.9250000000	0.7070600886
2.9300000000	0.7177181667
2.9350000000	0.7227206648
2.9400000000	0.7215125869
2.9450000000	0.7142731879
2.9500000000	0.7018489458
2.9550000000	0.6855378118
2.9600000000	0.6668156486
2.9650000000	0.6470804304
2.9700000000	0.6274818340
2.9750000000	0.6088466941
2.9800000000	0.5916840596
2.9850000000	0.5762401643
2.9900000000	0.5625722665
2.9950000000	0.5506204360
3.0000000000	0.5402661304
