# energy (eV)    P(omega), $W$ = 300 nm, $h$ = 300 nm, $s$ = 20 nm, $d/W = 5$, $E_{\rm e}$ = 200 keV
0.2000000000	0.1188949034
0.2050000000	0.1207056010
0.2100000000	0.1223883232
0.2150000000	0.1239473412
0.2200000000	0.1253865011
0.2250000000	0.1267089778
0.2300000000	0.1279173057
0.2350000000	0.1290132498
0.2400000000	0.1299977072
0.2450000000	0.1308705500
0.2500000000	0.1316305033
0.2550000000	0.1322748243
0.2600000000	0.1327992479
0.2650000000	0.1331974343
0.2700000000	0.1334607674
0.2750000000	0.1335777104
0.2800000000	0.1335332180
0.2850000000	0.1333078731
0.2900000000	0.1328768402
0.2950000000	0.1322084751
0.3000000000	0.1312623910
0.3050000000	0.1299871187
0.3100000000	0.1283167354
0.3150000000	0.1358733013
0.3200000000	0.1448472446
0.3250000000	0.1562053348
0.3300000000	0.1714303452
0.3350000000	0.1903759777
0.3400000000	0.2151846833
0.3450000000	0.2452485984
0.3500000000	0.2845609538
0.3550000000	0.3365513579
0.3600000000	0.4043826424
0.3650000000	0.4988980954
0.3700000000	0.6233978603
0.3750000000	0.7964441319
0.3800000000	1.0465292524
0.3850000000	1.4359560409
0.3900000000	2.0506763777
0.3950000000	3.0940420383
0.4000000000	5.0816525414
0.4050000000	9.5346926421
0.4100000000	21.6761123489
0.4150000000	69.4967626313
0.4200000000	44.3089812761
0.4250000000	-83.1709094659
0.4300000000	23.0824836844
0.4350000000	14.3653175819
0.4400000000	8.7685042961
0.4450000000	5.7580623299
0.4500000000	4.0262258516
0.4550000000	2.9611485009
0.4600000000	2.2678837960
0.4650000000	1.7957215095
0.4700000000	1.4621608154
0.4750000000	1.2210039144
0.4800000000	1.0422419432
0.4850000000	0.9077274662
0.4900000000	0.8050219112
0.4950000000	0.7257788665
0.5000000000	0.6642922793
0.5050000000	0.6163800657
0.5100000000	0.5793447152
0.5150000000	0.5511983196
0.5200000000	0.5298761501
0.5250000000	0.5144365625
0.5300000000	0.5038784150
0.5350000000	0.4974663601
0.5400000000	0.4946575320
0.5450000000	0.4949986527
0.5500000000	0.4983373078
0.5550000000	0.5044151459
0.5600000000	0.5130944879
0.5650000000	0.5243095546
0.5700000000	0.5379968945
0.5750000000	0.5542500471
0.5800000000	0.5732203668
0.5850000000	0.5950046301
0.5900000000	0.6197970234
0.5950000000	0.6478462067
0.6000000000	0.6794677401
0.6050000000	0.7151272247
0.6100000000	0.7552629687
0.6150000000	0.8004786704
0.6200000000	0.8515802567
0.6250000000	0.9093395540
0.6300000000	0.9748997566
0.6350000000	1.0496852232
0.6400000000	1.1351761270
0.6450000000	1.2335126252
0.6500000000	1.3475063900
0.6550000000	1.4800826466
0.6600000000	1.6357414263
0.6650000000	1.8202505800
0.6700000000	2.0403898958
0.6750000000	2.3065034086
0.6800000000	2.6324948120
0.6850000000	3.0365708681
0.6900000000	3.5469289804
0.6950000000	4.2029966459
0.7000000000	5.0673936497
0.7050000000	6.2358244055
0.7100000000	7.8704176761
0.7150000000	10.2597409736
0.7200000000	13.9408684851
0.7250000000	20.0488821076
0.7300000000	31.2557237651
0.7350000000	55.2252424850
0.7400000000	120.9343474637
0.7450000000	400.8797523081
0.7500000000	1240.9425288202
0.7550000000	311.9378973472
0.7600000000	103.2242251354
0.7650000000	49.4196551927
0.7700000000	28.7176735721
0.7750000000	18.7281698493
0.7800000000	13.1691940809
0.7850000000	9.7728755556
0.7900000000	7.5442314025
0.7950000000	6.0077690321
0.8000000000	4.9036723655
0.8050000000	4.0816711249
0.8100000000	3.4550775553
0.8150000000	2.9585821308
0.8200000000	2.5668620694
0.8250000000	2.2515555232
0.8300000000	1.9933598406
0.8350000000	1.7811279155
0.8400000000	1.6032676017
0.8450000000	1.4540538551
0.8500000000	1.3279408722
0.8550000000	1.2191428199
0.8600000000	1.1262698699
0.8650000000	1.0469296483
0.8700000000	0.9768457667
0.8750000000	0.9172017158
0.8800000000	0.8665532126
0.8850000000	0.8211484071
0.8900000000	0.7846372487
0.8950000000	0.7514257423
0.9000000000	0.7250056081
0.9050000000	0.7066257733
0.9100000000	0.6897699586
0.9150000000	0.6793150338
0.9200000000	0.6775056778
0.9250000000	0.6760395690
0.9300000000	0.6656659413
0.9350000000	0.6357701545
0.9400000000	0.4714986715
0.9450000000	-0.2730904153
0.9500000000	-4.1982724333
0.9550000000	-24.0919421467
0.9600000000	5.6821499210
0.9650000000	9.9732292700
0.9700000000	4.4214054366
0.9750000000	2.3208391943
0.9800000000	1.4547335926
0.9850000000	1.0497618309
0.9900000000	0.8165367899
0.9950000000	0.6751569178
1.0000000000	0.5848972809
1.0050000000	0.5276483150
1.0100000000	0.4833096423
1.0150000000	0.4509309084
1.0200000000	0.4291083406
1.0250000000	0.4108324490
1.0300000000	0.3969723831
1.0350000000	0.3865167248
1.0400000000	0.3798909653
1.0450000000	0.3744335211
1.0500000000	0.3708935612
1.0550000000	0.3690554091
1.0600000000	0.3693953986
1.0650000000	0.3705859997
1.0700000000	0.3731721038
1.0750000000	0.3771650692
1.0800000000	0.3829246066
1.0850000000	0.3902284258
1.0900000000	0.4009330633
1.0950000000	0.4136293264
1.1000000000	0.4287298453
1.1050000000	0.4461630572
1.1100000000	0.4664636519
1.1150000000	0.4900928172
1.1200000000	0.5175801791
1.1250000000	0.5496918118
1.1300000000	0.5873673310
1.1350000000	0.6318058986
1.1400000000	0.6843539441
1.1450000000	0.7475492233
1.1500000000	0.8240857250
1.1550000000	0.9178879790
1.1600000000	1.0344932117
1.1650000000	1.1810671241
1.1700000000	1.3711216772
1.1750000000	1.6225160253
1.1800000000	1.9648016866
1.1850000000	2.4465730411
1.1900000000	3.1593078500
1.1950000000	4.2788757352
1.2000000000	6.1785719506
1.2050000000	9.7691970520
1.2100000000	17.6678587623
1.2150000000	39.0121583519
1.2200000000	95.7573282839
1.2250000000	85.9501202232
1.2300000000	34.2069664393
1.2350000000	15.9821591342
1.2400000000	9.0779202672
1.2450000000	5.9042972111
1.2500000000	4.2257237521
1.2550000000	3.2519281470
1.2600000000	2.6535503775
1.2650000000	2.2720215836
1.2700000000	2.0357354009
1.2750000000	1.8981487754
1.2800000000	1.8363750751
1.2850000000	1.8394583661
1.2900000000	1.9045911137
1.2950000000	2.0346432709
1.3000000000	2.2470807012
1.3050000000	2.5640035424
1.3100000000	3.0280111560
1.3150000000	3.7131663837
1.3200000000	4.7531655676
1.3250000000	6.4024326998
1.3300000000	9.2199955432
1.3350000000	14.5001879715
1.3400000000	25.7863915983
1.3450000000	53.7981165341
1.3500000000	114.0514019623
1.3550000000	106.2975421149
1.3600000000	49.0008405838
1.3650000000	24.0734509007
1.3700000000	13.8070408809
1.3750000000	8.8810858332
1.3800000000	6.1953574578
1.3850000000	4.5773176736
1.3900000000	3.5340070861
1.3950000000	2.8218189545
1.4000000000	2.3144941594
1.4050000000	1.9409336066
1.4100000000	1.6576928518
1.4150000000	1.4381646808
1.4200000000	1.2625497175
1.4250000000	1.1218936990
1.4300000000	1.0081119152
1.4350000000	0.8924314629
1.4400000000	0.5261590442
1.4450000000	-0.4223811219
1.4500000000	-2.1575929907
1.4550000000	-0.7835676994
1.4600000000	1.9687324861
1.4650000000	1.1979843427
1.4700000000	-0.5113920401
1.4750000000	-3.1245837051
1.4800000000	-1.3619611926
1.4850000000	2.4527147473
1.4900000000	1.9842686218
1.4950000000	1.2928793243
1.5000000000	0.9144403430
1.5050000000	0.7088598078
1.5100000000	0.5910020009
1.5150000000	0.5184594252
1.5200000000	0.4707424287
1.5250000000	0.4403697901
1.5300000000	0.4162390823
1.5350000000	0.3985771303
1.5400000000	0.3856414613
1.5450000000	0.3763676015
1.5500000000	0.3700573720
1.5550000000	0.3663576059
1.5600000000	0.3658613899
1.5650000000	0.3672063602
1.5700000000	0.3716321136
1.5750000000	0.3799816548
1.5800000000	0.3939656177
1.5850000000	0.4169532494
1.5900000000	0.4560505218
1.5950000000	0.5268725780
1.6000000000	0.6619595986
1.6050000000	0.8806448254
1.6100000000	0.9776586946
1.6150000000	0.7897944932
1.6200000000	0.6199356006
1.6250000000	0.5357109468
1.6300000000	0.4989099463
1.6350000000	0.4857650898
1.6400000000	0.4856337269
1.6450000000	0.4937022846
1.6500000000	0.5076982556
1.6550000000	0.5266727268
1.6600000000	0.5502584562
1.6650000000	0.5784990690
1.6700000000	0.6117157213
1.6750000000	0.6504667000
1.6800000000	0.6955442237
1.6850000000	0.7480028414
1.6900000000	0.8091954522
1.6950000000	0.8804080313
1.7000000000	0.9643542851
1.7050000000	1.0659824087
1.7100000000	1.1911572142
1.7150000000	1.3688650934
1.7200000000	1.6150976238
1.7250000000	1.9135951850
1.7300000000	2.2884839760
1.7350000000	2.6890975909
1.7400000000	3.0427796221
1.7450000000	3.4825909260
1.7500000000	4.1649296269
1.7550000000	5.1949573539
1.7600000000	6.7438150004
1.7650000000	9.1347514840
1.7700000000	12.9861582214
1.7750000000	19.4709622755
1.7800000000	30.5101400618
1.7850000000	46.7642201442
1.7900000000	58.0344668162
1.7950000000	49.3391127903
1.8000000000	32.7763337924
1.8050000000	20.6548199439
1.8100000000	13.5844494159
1.8150000000	9.4429015337
1.8200000000	6.8949312901
1.8250000000	5.2429117553
1.8300000000	4.1204795095
1.8350000000	3.3270073787
1.8400000000	2.7473688456
1.8450000000	2.3115827721
1.8500000000	1.9754843941
1.8550000000	1.7113661067
1.8600000000	1.4996346290
1.8650000000	1.3267502530
1.8700000000	1.1827171466
1.8750000000	1.0596981091
1.8800000000	0.9508018176
1.8850000000	0.8490392271
1.8900000000	0.7455283103
1.8950000000	0.6267634744
1.9000000000	0.4700156218
1.9050000000	0.2032221284
1.9100000000	-0.1841825599
1.9150000000	-0.6014263289
1.9200000000	-0.4149340601
1.9250000000	0.8038628690
1.9300000000	1.7828533066
1.9350000000	1.8623355465
1.9400000000	1.5351903529
1.9450000000	1.2046340424
1.9500000000	0.9669526253
1.9550000000	0.8074833505
1.9600000000	0.6998905238
1.9650000000	0.6286586931
1.9700000000	0.5747157293
1.9750000000	0.5351259730
1.9800000000	0.5053069537
1.9850000000	0.4820215650
1.9900000000	0.4629631005
1.9950000000	0.4462630852
2.0000000000	0.4314708153
2.0050000000	0.4239346037
2.0100000000	0.4308501767
2.0150000000	0.4473833578
2.0200000000	0.4603982811
2.0250000000	0.4692732008
2.0300000000	0.4787493931
2.0350000000	0.4908721197
2.0400000000	0.5072024615
2.0450000000	0.5287566758
2.0500000000	0.5567564831
2.0550000000	0.5924409261
2.0600000000	0.6358690718
2.0650000000	0.6829154761
2.0700000000	0.7233455041
2.0750000000	0.7490305186
2.0800000000	0.7655198984
2.0850000000	0.7852078671
2.0900000000	0.8157672728
2.0950000000	0.8595434051
2.1000000000	0.9177979033
2.1050000000	0.9891984534
2.1100000000	1.0787265997
2.1150000000	1.1898406441
2.1200000000	1.3276731586
2.1250000000	1.4996022283
2.1300000000	1.7161478622
2.1350000000	1.9923989531
2.1400000000	2.3501658038
2.1450000000	2.8213282838
2.1500000000	3.4522943173
2.1550000000	4.3086575259
2.1600000000	5.4742833696
2.1650000000	7.0200944122
2.1700000000	8.9192271423
2.1750000000	10.8145836010
2.1800000000	12.0129674073
2.1850000000	12.1478992143
2.1900000000	11.7353968509
2.1950000000	11.4615530889
2.2000000000	11.3827111051
2.2050000000	10.8352874854
2.2100000000	9.5410845739
2.2150000000	7.8971486768
2.2200000000	6.3929933559
2.2250000000	5.1882576130
2.2300000000	4.2400434211
2.2350000000	3.4869188615
2.2400000000	2.8894054189
2.2450000000	2.4230365098
2.2500000000	2.0593231641
2.2550000000	1.7723551908
2.2600000000	1.5405058406
2.2650000000	1.3457818190
2.2700000000	1.1730655188
2.2750000000	1.0117475004
2.2800000000	0.8625801313
2.2850000000	0.7442902554
2.2900000000	0.6846156629
2.2950000000	0.6931156294
2.3000000000	0.7424253572
2.3050000000	0.7906138924
2.3100000000	0.8114149797
2.3150000000	0.8061621052
2.3200000000	0.7863553360
2.3250000000	0.7637347425
2.3300000000	0.7446446879
2.3350000000	0.7312842070
2.3400000000	0.7231982521
2.3450000000	0.7180339101
2.3500000000	0.7126497349
2.3550000000	0.7050368546
2.3600000000	0.6957524485
2.3650000000	0.6872331869
2.3700000000	0.6818946713
2.3750000000	0.6809172613
2.3800000000	0.6841004370
2.3850000000	0.6902326484
2.3900000000	0.6979642704
2.3950000000	0.7061410638
2.4000000000	0.7154519610
2.4050000000	0.7284635381
2.4100000000	0.7464804890
2.4150000000	0.7711572413
2.4200000000	0.8036190853
2.4250000000	0.8448897143
2.4300000000	0.8961173547
2.4350000000	0.9587412475
2.4400000000	1.0346131689
2.4450000000	1.1261221690
2.4500000000	1.2363087919
2.4550000000	1.3690197383
2.4600000000	1.5290050630
2.4650000000	1.7220122377
2.4700000000	1.9546987318
2.4750000000	2.2338414961
2.4800000000	2.5667708222
2.4850000000	2.9567829825
2.4900000000	3.4006501427
2.4950000000	3.8823179341
2.5000000000	4.3661194709
2.5050000000	4.8132678225
2.5100000000	5.1021365316
2.5150000000	5.1653765721
2.5200000000	4.9942804099
2.5250000000	4.6423809999
2.5300000000	4.1911206885
2.5350000000	3.7119350312
2.5400000000	3.2500701562
2.5450000000	2.8278880269
2.5500000000	2.4537444829
2.5550000000	2.1287010371
2.5600000000	1.8480417968
2.5650000000	1.6111517382
2.5700000000	1.4133043862
2.5750000000	1.2517020970
2.5800000000	1.1241599029
2.5850000000	1.0279709148
2.5900000000	0.9582484270
2.5950000000	0.9079180351
2.6000000000	0.8695804035
2.6050000000	0.8422374101
2.6100000000	0.8176858530
2.6150000000	0.7956238355
2.6200000000	0.7766027101
2.6250000000	0.7611645458
2.6300000000	0.7496366648
2.6350000000	0.7421609887
2.6400000000	0.7388119613
2.6450000000	0.7396736640
2.6500000000	0.7449266451
2.6550000000	0.7546012413
2.6600000000	0.7689512528
2.6650000000	0.7882008704
2.6700000000	0.8126142757
2.6750000000	0.8425049265
2.6800000000	0.8782217055
2.6850000000	0.9201456719
2.6900000000	0.9686450833
2.6950000000	1.0240537359
2.7000000000	1.0866029112
2.7050000000	1.1638244213
2.7100000000	1.2503747080
2.7150000000	1.3456598064
2.7200000000	1.4483956976
2.7250000000	1.5564432352
2.7300000000	1.6666560574
2.7350000000	1.7747474938
2.7400000000	1.8752208567
2.7450000000	1.9622733411
2.7500000000	2.0274814875
2.7550000000	2.0650592387
2.7600000000	2.0706609560
2.7650000000	2.0431687152
2.7700000000	1.9850867115
2.7750000000	1.9020337773
2.7800000000	1.8014619971
2.7850000000	1.6912991018
2.7900000000	1.5786273370
2.7950000000	1.4691168913
2.8000000000	1.3667672435
2.8050000000	1.2626929658
2.8100000000	1.1728517436
2.8150000000	1.0970386623
2.8200000000	1.0340620557
2.8250000000	0.9823381273
2.8300000000	0.9402780962
2.8350000000	0.9065278982
2.8400000000	0.8796480694
2.8450000000	0.8597355904
2.8500000000	0.8457355421
2.8550000000	0.8372548727
2.8600000000	0.8340155174
2.8650000000	0.8357978026
2.8700000000	0.8424061884
2.8750000000	0.8536405791
2.8800000000	0.8692695103
2.8850000000	0.8890051657
2.8900000000	0.9124931924
2.8950000000	0.9393007886
2.9000000000	0.9689145725
2.9050000000	1.0078162981
2.9100000000	1.0477564362
2.9150000000	1.0871946970
2.9200000000	1.1242788143
2.9250000000	1.1568611182
2.9300000000	1.1829230895
2.9350000000	1.1997775016
2.9400000000	1.2060782725
2.9450000000	1.2011360897
2.9500000000	1.1853566370
2.9550000000	1.1601795524
2.9600000000	1.1277975990
2.9650000000	1.0907546094
2.9700000000	1.0515468331
2.9750000000	1.0123401728
2.9800000000	0.9748144118
2.9850000000	0.9401413816
2.9900000000	0.9090422119
2.9950000000	0.8818842477
3.0000000000	0.8587859338
