# energy (eV)    P(omega), $W$ = 300 nm, $h$ = 300 nm, $s$ = 20 nm, $d/W = 5$, $E_{\rm e}$ = 200 keV
0.2000000000	0.1206675951
0.2050000000	0.1224755873
0.2100000000	0.1241658516
0.2150000000	0.1257422272
0.2200000000	0.1272079932
0.2250000000	0.1285659336
0.2300000000	0.1298181774
0.2350000000	0.1309661360
0.2400000000	0.1320103478
0.2450000000	0.1329504177
0.2500000000	0.1337848007
0.2550000000	0.1345105382
0.2600000000	0.1351231884
0.2650000000	0.1356162982
0.2700000000	0.1359811251
0.2750000000	0.1362060815
0.2800000000	0.1362761241
0.2850000000	0.1361719095
0.2900000000	0.1358686618
0.2950000000	0.1353349413
0.3000000000	0.1345305882
0.3050000000	0.1334044262
0.3100000000	0.1318909376
0.3150000000	0.1393914776
0.3200000000	0.1482993479
0.3250000000	0.1595661920
0.3300000000	0.1746552353
0.3350000000	0.1934371427
0.3400000000	0.2180323602
0.3450000000	0.2478634300
0.3500000000	0.2868868391
0.3550000000	0.3385205636
0.3600000000	0.4059361799
0.3650000000	0.4999182192
0.3700000000	0.6238350643
0.3750000000	0.7962019421
0.3800000000	1.0454851456
0.3850000000	1.4339048700
0.3900000000	2.0475026869
0.3950000000	3.0897400861
0.4000000000	5.0765619282
0.4050000000	9.5308575979
0.4100000000	21.6846421343
0.4150000000	69.5891653379
0.4200000000	44.3388151702
0.4250000000	-83.4521353291
0.4300000000	23.2046687689
0.4350000000	14.4596179876
0.4400000000	8.8387779852
0.4450000000	5.8132169356
0.4500000000	4.0715154980
0.4550000000	2.9997061249
0.4600000000	2.3016562037
0.4650000000	1.8259836373
0.4700000000	1.4897907691
0.4750000000	1.2466506689
0.4800000000	1.0663829795
0.4850000000	0.9307356433
0.4900000000	0.8271910652
0.4950000000	0.7473462667
0.5000000000	0.6854575196
0.5050000000	0.6373107995
0.5100000000	0.6001924785
0.5150000000	0.5721046666
0.5200000000	0.5509596067
0.5250000000	0.5358161866
0.5300000000	0.5256646539
0.5350000000	0.5197664161
0.5400000000	0.5175769325
0.5450000000	0.5186413303
0.5500000000	0.5228153871
0.5550000000	0.5298426131
0.5600000000	0.5395917739
0.5650000000	0.5520038104
0.5700000000	0.5670248330
0.5750000000	0.5847597177
0.5800000000	0.6053789955
0.5850000000	0.6289938295
0.5900000000	0.6558199208
0.5950000000	0.6861287104
0.6000000000	0.7202659621
0.6050000000	0.7587330373
0.6100000000	0.8020081129
0.6150000000	0.8507446244
0.6200000000	0.9058142391
0.6250000000	0.9680526451
0.6300000000	1.0386951330
0.6350000000	1.1192813152
0.6400000000	1.2114130932
0.6450000000	1.3174028563
0.6500000000	1.4402909159
0.6550000000	1.5832420731
0.6600000000	1.7511206720
0.6650000000	1.9501679642
0.6700000000	2.1877215588
0.6750000000	2.4749705996
0.6800000000	2.8269624395
0.6850000000	3.2634084824
0.6900000000	3.8148383059
0.6950000000	4.5239495713
0.7000000000	5.4585677136
0.7050000000	6.7223794055
0.7100000000	8.4910685751
0.7150000000	11.0773718355
0.7200000000	15.0635063037
0.7250000000	21.6801872980
0.7300000000	33.8251076823
0.7350000000	59.8115677114
0.7400000000	131.0797373924
0.7450000000	434.8497938902
0.7500000000	1347.1521311510
0.7550000000	338.9016361340
0.7600000000	112.2351777250
0.7650000000	53.7761302754
0.7700000000	31.2739421051
0.7750000000	20.4114039464
0.7800000000	14.3642134723
0.7850000000	10.6681966209
0.7900000000	8.2419660772
0.7950000000	6.5686577862
0.8000000000	5.3657836747
0.8050000000	4.4699151943
0.8100000000	3.7867689768
0.8150000000	3.2452313505
0.8200000000	2.8178365698
0.8250000000	2.4737050166
0.8300000000	2.1918085618
0.8350000000	1.9600384665
0.8400000000	1.7657484137
0.8450000000	1.6027143869
0.8500000000	1.4649039736
0.8550000000	1.3459798594
0.8600000000	1.2444584542
0.8650000000	1.1577420470
0.8700000000	1.0811212494
0.8750000000	1.0159441429
0.8800000000	0.9606397089
0.8850000000	0.9110562821
0.8900000000	0.8712813498
0.8950000000	0.8350984141
0.9000000000	0.8064214708
0.9050000000	0.7866710969
0.9100000000	0.7685716915
0.9150000000	0.7575924973
0.9200000000	0.7562700290
0.9250000000	0.7552890682
0.9300000000	0.7442091801
0.9350000000	0.7109638843
0.9400000000	0.5257616518
0.9450000000	-0.3160284190
0.9500000000	-4.7584769302
0.9550000000	-27.2911786459
0.9600000000	6.4397452607
0.9650000000	11.3122770112
0.9700000000	5.0174084818
0.9750000000	2.6340180722
0.9800000000	1.6507777839
0.9850000000	1.1909145473
0.9900000000	0.9259519407
0.9950000000	0.7652851991
1.0000000000	0.6626990663
1.0050000000	0.5976618190
1.0100000000	0.5472419756
1.0150000000	0.5104070713
1.0200000000	0.4855966618
1.0250000000	0.4647720363
1.0300000000	0.4489519203
1.0350000000	0.4369841488
1.0400000000	0.4293755238
1.0450000000	0.4230489960
1.0500000000	0.4188757814
1.0550000000	0.4166087526
1.0600000000	0.4168063204
1.0650000000	0.4179142286
1.0700000000	0.4205661483
1.0750000000	0.4247730829
1.0800000000	0.4309508537
1.0850000000	0.4387907360
1.0900000000	0.4503555791
1.0950000000	0.4640894539
1.1000000000	0.4804531410
1.1050000000	0.4993128379
1.1100000000	0.5212642195
1.1150000000	0.5468008751
1.1200000000	0.5765079033
1.1250000000	0.6111502023
1.1300000000	0.6517522273
1.1350000000	0.6995893655
1.1400000000	0.7561139405
1.1450000000	0.8239777037
1.1500000000	0.9060637490
1.1550000000	1.0065403172
1.1600000000	1.1312880165
1.1650000000	1.2879371681
1.1700000000	1.4907820217
1.1750000000	1.7587979825
1.1800000000	2.1233548246
1.1850000000	2.6360161945
1.1900000000	3.3939617880
1.1950000000	4.5837845431
1.2000000000	6.6018927744
1.2050000000	10.4155809108
1.2100000000	18.8049236262
1.2150000000	41.4812035456
1.2200000000	101.8031340823
1.2250000000	91.4636028782
1.2300000000	36.4841288890
1.2350000000	17.1115074602
1.2400000000	9.7736363456
1.2450000000	6.4044522097
1.2500000000	4.6270630831
1.2550000000	3.6012866256
1.2600000000	2.9770863936
1.2650000000	2.5860903655
1.2700000000	2.3529366782
1.2750000000	2.2287629143
1.2800000000	2.1903087881
1.2850000000	2.2274153570
1.2900000000	2.3392622020
1.2950000000	2.5316658884
1.3000000000	2.8283828684
1.3050000000	3.2598788628
1.3100000000	3.8829547168
1.3150000000	4.7958897502
1.3200000000	6.1753649575
1.3250000000	8.3581312957
1.3300000000	12.0817128555
1.3350000000	19.0560536670
1.3400000000	33.9622574117
1.3450000000	70.9671706164
1.3500000000	150.6093118644
1.3550000000	140.4648642205
1.3600000000	64.7750970720
1.3650000000	31.8263879073
1.3700000000	18.2520823448
1.3750000000	11.7377633289
1.3800000000	8.1858034427
1.3850000000	6.0461409423
1.3900000000	4.6671022942
1.3950000000	3.7262273965
1.4000000000	3.0569653600
1.4050000000	2.5654108459
1.4100000000	2.1946897763
1.4150000000	1.9108269937
1.4200000000	1.6898554026
1.4250000000	1.5254123117
1.4300000000	1.4207691551
1.4350000000	1.3515512925
1.4400000000	0.9289873457
1.4450000000	-0.2414636567
1.4500000000	-2.2782674725
1.4550000000	-0.7613871916
1.4600000000	2.3167848248
1.4650000000	1.3422665050
1.4700000000	-0.8557670652
1.4750000000	-4.3327074014
1.4800000000	-1.9114409294
1.4850000000	3.2755256460
1.4900000000	2.6516371835
1.4950000000	1.7204102874
1.5000000000	1.2112916322
1.5050000000	0.9356782720
1.5100000000	0.7779097593
1.5150000000	0.6811789272
1.5200000000	0.6178223750
1.5250000000	0.5776104436
1.5300000000	0.5459233683
1.5350000000	0.5229069057
1.5400000000	0.5062363616
1.5450000000	0.4945256877
1.5500000000	0.4868171176
1.5550000000	0.4827119954
1.5600000000	0.4830374135
1.5650000000	0.4861279304
1.5700000000	0.4937662675
1.5750000000	0.5073560173
1.5800000000	0.5296917461
1.5850000000	0.5662759649
1.5900000000	0.6287489581
1.5950000000	0.7428432780
1.6000000000	0.9627866948
1.6050000000	1.3237552883
1.6100000000	1.4920189418
1.6150000000	1.1876837289
1.6200000000	0.9055184848
1.6250000000	0.7620866404
1.6300000000	0.6962466684
1.6350000000	0.6690947707
1.6400000000	0.6630095598
1.6450000000	0.6699306841
1.6500000000	0.6859347845
1.6550000000	0.7094091168
1.6600000000	0.7395319964
1.6650000000	0.7761913834
1.6700000000	0.8196905468
1.6750000000	0.8706560412
1.6800000000	0.9300048524
1.6850000000	0.9989611306
1.6900000000	1.0789479858
1.6950000000	1.1707913228
1.7000000000	1.2765156277
1.7050000000	1.3988401589
1.7100000000	1.5470998432
1.7150000000	1.7962859482
1.7200000000	2.1726618813
1.7250000000	2.5795361347
1.7300000000	3.0633454836
1.7350000000	3.5867850557
1.7400000000	4.0699805074
1.7450000000	4.6789409180
1.7500000000	5.6124740693
1.7550000000	7.0126905679
1.7600000000	9.1134782714
1.7650000000	12.3544665649
1.7700000000	17.5753381365
1.7750000000	26.3688085726
1.7800000000	41.3455965914
1.7850000000	63.4155215601
1.7900000000	78.7561572433
1.7950000000	67.0088704391
1.8000000000	44.5532746392
1.8050000000	28.1036821191
1.8100000000	18.5036752918
1.8150000000	12.8782722942
1.8200000000	9.4165859779
1.8250000000	7.1719676805
1.8300000000	5.6471192897
1.8350000000	4.5696577321
1.8400000000	3.7832442084
1.8450000000	3.1929219247
1.8500000000	2.7387847873
1.8550000000	2.3832728681
1.8600000000	2.0999678354
1.8650000000	1.8707108999
1.8700000000	1.6822707413
1.8750000000	1.5244985755
1.8800000000	1.3887563579
1.8850000000	1.2666228145
1.8900000000	1.1476759673
1.8950000000	1.0161282858
1.9000000000	0.8452287687
1.9050000000	0.5476793116
1.9100000000	0.1203958834
1.9150000000	-0.2908895109
1.9200000000	0.2065024316
1.9250000000	2.1952907130
1.9300000000	3.7840003832
1.9350000000	3.8195157337
1.9400000000	3.0661001005
1.9450000000	2.3237820491
1.9500000000	1.7976488619
1.9550000000	1.4496346725
1.9600000000	1.2177215884
1.9650000000	1.0631894760
1.9700000000	0.9494330492
1.9750000000	0.8660173289
1.9800000000	0.8027057914
1.9850000000	0.7521575233
1.9900000000	0.7089081458
1.9950000000	0.6683256748
2.0000000000	0.6295775013
2.0050000000	0.6065380172
2.0100000000	0.6220271431
2.0150000000	0.6624190039
2.0200000000	0.6897117131
2.0250000000	0.7015782007
2.0300000000	0.7106296654
2.0350000000	0.7227011794
2.0400000000	0.7406311793
2.0450000000	0.7656247069
2.0500000000	0.7989069346
2.0550000000	0.8416961890
2.0600000000	0.8940619845
2.0650000000	0.9518238285
2.0700000000	1.0045757648
2.0750000000	1.0441912859
2.0800000000	1.0767114828
2.0850000000	1.1152650807
2.0900000000	1.1682024785
2.0950000000	1.2384175111
2.1000000000	1.3281253810
2.1050000000	1.4359728375
2.1100000000	1.5694740337
2.1150000000	1.7340144919
2.1200000000	1.9373403404
2.1250000000	2.1904428344
2.1300000000	2.5088958887
2.1350000000	2.9149823632
2.1400000000	3.4408850529
2.1450000000	4.1336453457
2.1500000000	5.0617667578
2.1550000000	6.3221400679
2.1600000000	8.0387305531
2.1650000000	10.3165920972
2.1700000000	13.1156757846
2.1750000000	15.9067930643
2.1800000000	17.6596253221
2.1850000000	17.8238437251
2.1900000000	17.1582594525
2.1950000000	16.6860570220
2.2000000000	16.5210606110
2.2050000000	15.7447308644
2.2100000000	13.9640345088
2.2150000000	11.7235152318
2.2200000000	9.6856326266
2.2250000000	8.0343513474
2.2300000000	6.6787578317
2.2350000000	5.5442765291
2.2400000000	4.6128004948
2.2450000000	3.8772930597
2.2500000000	3.3073134513
2.2550000000	2.8661793745
2.2600000000	2.5199366141
2.2650000000	2.2379809453
2.2700000000	1.9913443008
2.2750000000	1.7555477496
2.2800000000	1.5249089942
2.2850000000	1.3275883307
2.2900000000	1.2115474530
2.2950000000	1.1982825012
2.3000000000	1.2507643293
2.3050000000	1.3060675599
2.3100000000	1.3256156949
2.3150000000	1.3106231585
2.3200000000	1.2777698220
2.3250000000	1.2441987416
2.3300000000	1.2190109052
2.3350000000	1.2048636646
2.3400000000	1.1997588736
2.3450000000	1.1978823091
2.3500000000	1.1917446848
2.3550000000	1.1765616486
2.3600000000	1.1536568358
2.3650000000	1.1288660499
2.3700000000	1.1081206720
2.3750000000	1.0947172013
2.3800000000	1.0891843157
2.3850000000	1.0901966506
2.3900000000	1.0960614505
2.3950000000	1.1051567453
2.4000000000	1.1182904688
2.4050000000	1.1388917965
2.4100000000	1.1684189134
2.4150000000	1.2088845043
2.4200000000	1.2616761169
2.4250000000	1.3282814224
2.4300000000	1.4105258052
2.4350000000	1.5107494190
2.4400000000	1.6319640785
2.4450000000	1.7780317722
2.4500000000	1.9538472758
2.4550000000	2.1655862564
2.4600000000	2.4208430179
2.4650000000	2.7287722491
2.4700000000	3.0999092416
2.4750000000	3.5448765376
2.4800000000	4.0748851249
2.4850000000	4.6945921229
2.4900000000	5.3981931055
2.4950000000	6.1600232590
2.5000000000	6.9246713128
2.5050000000	7.6333725785
2.5100000000	8.0980592578
2.5150000000	8.2132363084
2.5200000000	7.9612715859
2.5250000000	7.4203105090
2.5300000000	6.7145202617
2.5350000000	5.9565429445
2.5400000000	5.2207142657
2.5450000000	4.5458235705
2.5500000000	3.9474897632
2.5550000000	3.4283949668
2.5600000000	2.9811344448
2.5650000000	2.6040802710
2.5700000000	2.2892270294
2.5750000000	2.0317376077
2.5800000000	1.8279140272
2.5850000000	1.6733926124
2.5900000000	1.5605431310
2.5950000000	1.4784141490
2.6000000000	1.4155581660
2.6050000000	1.3707076724
2.6100000000	1.3309431787
2.6150000000	1.2957312617
2.6200000000	1.2658985347
2.6250000000	1.2422923047
2.6300000000	1.2254558945
2.6350000000	1.2156495467
2.6400000000	1.2130105258
2.6450000000	1.2176781308
2.6500000000	1.2299386036
2.6550000000	1.2498559970
2.6600000000	1.2778675429
2.6650000000	1.3143890991
2.6700000000	1.3599106713
2.6750000000	1.4150050659
2.6800000000	1.4802846300
2.6850000000	1.5563764965
2.6900000000	1.6438353799
2.6950000000	1.7430859277
2.7000000000	1.8542845833
2.7050000000	1.9904427903
2.7100000000	2.1412094579
2.7150000000	2.3047452373
2.7200000000	2.4779591103
2.7250000000	2.6564551120
2.7300000000	2.8345423385
2.7350000000	3.0052545272
2.7400000000	3.1603042243
2.7450000000	3.2914212100
2.7500000000	3.3863249870
2.7550000000	3.4368865300
2.7600000000	3.4369668361
2.7650000000	3.3852138355
2.7700000000	3.2857500281
2.7750000000	3.1474769319
2.7800000000	2.9821428950
2.7850000000	2.8022435909
2.7900000000	2.6189736453
2.7950000000	2.4413058788
2.8000000000	2.2755891787
2.8050000000	2.1072642939
2.8100000000	1.9623648875
2.8150000000	1.8405664920
2.8200000000	1.7399662603
2.8250000000	1.6580344850
2.8300000000	1.5922196808
2.8350000000	1.5403498510
2.8400000000	1.5001147641
2.8450000000	1.4716547111
2.8500000000	1.4532726876
2.8550000000	1.4443268592
2.8600000000	1.4443440730
2.8650000000	1.4529230180
2.8700000000	1.4696722541
2.8750000000	1.4941447402
2.8800000000	1.5257948211
2.8850000000	1.5639307087
2.8900000000	1.6077264555
2.8950000000	1.6562038515
2.9000000000	1.7082861483
2.9050000000	1.7741487120
2.9100000000	1.8399743416
2.9150000000	1.9034126182
2.9200000000	1.9617647421
2.9250000000	2.0119166382
2.9300000000	2.0509672206
2.9350000000	2.0748483730
2.9400000000	2.0816211287
2.9450000000	2.0703382252
2.9500000000	2.0417736072
2.9550000000	1.9983564956
2.9600000000	1.9437001561
2.9650000000	1.8819647221
2.9700000000	1.8172189570
2.9750000000	1.7529714242
2.9800000000	1.6919351778
2.9850000000	1.6359851846
2.9900000000	1.5862766233
2.9950000000	1.5433698666
3.0000000000	1.5074272999
