# energy (eV)    P(omega), $W$ = 300 nm, $h$ = 300 nm, $s$ = 20 nm, $d/W = 5$, $E_{\rm e}$ = 200 keV
0.2000000000	0.1107479665
0.2050000000	0.1124344658
0.2100000000	0.1140017222
0.2150000000	0.1154537174
0.2200000000	0.1167940357
0.2250000000	0.1180256365
0.2300000000	0.1191508831
0.2350000000	0.1201714209
0.2400000000	0.1210880873
0.2450000000	0.1219007650
0.2500000000	0.1226082674
0.2550000000	0.1232080415
0.2600000000	0.1236961153
0.2650000000	0.1240665845
0.2700000000	0.1243114249
0.2750000000	0.1244198905
0.2800000000	0.1243779682
0.2850000000	0.1241675722
0.2900000000	0.1237655697
0.2950000000	0.1231424855
0.3000000000	0.1222607012
0.3050000000	0.1210722754
0.3100000000	0.1195158041
0.3150000000	0.1265544463
0.3200000000	0.1349133252
0.3250000000	0.1454929816
0.3300000000	0.1596745970
0.3350000000	0.1773218426
0.3400000000	0.2004303578
0.3450000000	0.2284338474
0.3500000000	0.2650518896
0.3550000000	0.3134790034
0.3600000000	0.3766611370
0.3650000000	0.4646983568
0.3700000000	0.5806643251
0.3750000000	0.7418487582
0.3800000000	0.9747906383
0.3850000000	1.3375215625
0.3900000000	1.9101002068
0.3950000000	2.8819360954
0.4000000000	4.7332778669
0.4050000000	8.8810114307
0.4100000000	20.1899684635
0.4150000000	64.7317289082
0.4200000000	41.2709304509
0.4250000000	-77.4677014116
0.4300000000	21.4995473536
0.4350000000	13.3801229897
0.4400000000	8.1671086830
0.4450000000	5.3631139132
0.4500000000	3.7500455595
0.4550000000	2.7580126883
0.4600000000	2.1122943959
0.4650000000	1.6725153901
0.4700000000	1.3618325019
0.4750000000	1.1372160129
0.4800000000	0.9707150589
0.4850000000	0.8454267447
0.4900000000	0.7497655579
0.4950000000	0.6759575064
0.5000000000	0.6186878776
0.5050000000	0.5740614158
0.5100000000	0.5395656109
0.5150000000	0.5133488803
0.5200000000	0.4934881316
0.5250000000	0.4791062832
0.5300000000	0.4692708593
0.5350000000	0.4632969420
0.5400000000	0.4606788926
0.5450000000	0.4609945153
0.5500000000	0.4641018258
0.5550000000	0.4697601779
0.5600000000	0.4778413210
0.5650000000	0.4882839596
0.5700000000	0.5010289740
0.5750000000	0.5161634503
0.5800000000	0.5338283172
0.5850000000	0.5541136702
0.5900000000	0.5772003283
0.5950000000	0.6033198294
0.6000000000	0.6327660189
0.6050000000	0.6659724673
0.6100000000	0.7033473221
0.6150000000	0.7454527461
0.6200000000	0.7930392244
0.6250000000	0.8468254860
0.6300000000	0.9078760755
0.6350000000	0.9775173714
0.6400000000	1.0571277155
0.6450000000	1.1487000389
0.6500000000	1.2548525933
0.6550000000	1.3783093590
0.6600000000	1.5232607979
0.6650000000	1.6950779707
0.6700000000	1.9000742344
0.6750000000	2.1478820117
0.6800000000	2.4514485060
0.6850000000	2.8277279061
0.6900000000	3.3029777359
0.6950000000	3.9139129890
0.7000000000	4.7188453759
0.7050000000	5.8068950293
0.7100000000	7.3290364952
0.7150000000	9.5539841721
0.7200000000	12.9818617315
0.7250000000	18.6696574724
0.7300000000	29.1054822026
0.7350000000	51.4259036341
0.7400000000	112.6141696564
0.7450000000	373.2987862355
0.7500000000	1155.5619064108
0.7550000000	290.4750195560
0.7600000000	96.1216893684
0.7650000000	46.0191505755
0.7700000000	26.7415929729
0.7750000000	17.4394385133
0.7800000000	12.2629655493
0.7850000000	9.1003445962
0.7900000000	7.0250535526
0.7950000000	5.5943166341
0.8000000000	4.5661949264
0.8050000000	3.8007578884
0.8100000000	3.2172825120
0.8150000000	2.7549532924
0.8200000000	2.3901896615
0.8250000000	2.0965813642
0.8300000000	1.8561539696
0.8350000000	1.6585273950
0.8400000000	1.4929071718
0.8450000000	1.3539621893
0.8500000000	1.2365282516
0.8550000000	1.1352177139
0.8600000000	1.0487363284
0.8650000000	0.9748563375
0.8700000000	0.9095957055
0.8750000000	0.8540563780
0.8800000000	0.8068934599
0.8850000000	0.7646133858
0.8900000000	0.7306147424
0.8950000000	0.6996886893
0.9000000000	0.6750864754
0.9050000000	0.6579709864
0.9100000000	0.6422746523
0.9150000000	0.6325384715
0.9200000000	0.6308525019
0.9250000000	0.6294861915
0.9300000000	0.6198259565
0.9350000000	0.5919884051
0.9400000000	0.4390313584
0.9450000000	-0.2542684704
0.9500000000	-3.9090640587
0.9550000000	-22.4323241289
0.9600000000	5.2907235951
0.9650000000	9.2861828099
0.9700000000	4.1168156827
0.9750000000	2.1609569012
0.9800000000	1.3545178504
0.9850000000	0.9774449959
0.9900000000	0.7602872062
0.9950000000	0.6286472503
1.0000000000	0.5446057476
1.0050000000	0.4913006736
1.0100000000	0.4500165376
1.0150000000	0.4198683888
1.0200000000	0.3995491205
1.0250000000	0.3825322364
1.0300000000	0.3696269688
1.0350000000	0.3598915790
1.0400000000	0.3537222159
1.0450000000	0.3486407223
1.0500000000	0.3453446278
1.0550000000	0.3436331148
1.0600000000	0.3439496768
1.0650000000	0.3450582966
1.0700000000	0.3474663038
1.0750000000	0.3511842691
1.0800000000	0.3565471140
1.0850000000	0.3633479185
1.0900000000	0.3733153423
1.0950000000	0.3851372332
1.1000000000	0.3991977923
1.1050000000	0.4154304275
1.1100000000	0.4343329935
1.1150000000	0.4563349178
1.1200000000	0.4819293399
1.1250000000	0.5118296285
1.1300000000	0.5469106838
1.1350000000	0.5882890917
1.1400000000	0.6372185559
1.1450000000	0.6960621414
1.1500000000	0.7673283149
1.1550000000	0.8546713829
1.1600000000	0.9632473021
1.1650000000	1.0997283436
1.1700000000	1.2766961585
1.1750000000	1.5107801554
1.1800000000	1.8294970445
1.1850000000	2.2780951879
1.1900000000	2.9417533635
1.1950000000	3.9842314227
1.2000000000	5.7531202651
1.2050000000	9.0965041888
1.2100000000	16.4512796424
1.2150000000	36.3258334831
1.2200000000	89.1635093370
1.2250000000	80.0314601317
1.2300000000	31.8513210589
1.2350000000	14.8814897065
1.2400000000	8.4526865543
1.2450000000	5.4976028229
1.2500000000	3.9346153913
1.2550000000	3.0278715965
1.2600000000	2.4706915940
1.2650000000	2.1154257205
1.2700000000	1.8953979576
1.2750000000	1.7672699064
1.2800000000	1.7097301479
1.2850000000	1.7125760729
1.2900000000	1.7731918302
1.2950000000	1.8942477690
1.3000000000	2.0920029274
1.3050000000	2.3870303803
1.3100000000	2.8189872776
1.3150000000	3.4568214435
1.3200000000	4.4249963737
1.3250000000	5.9603657542
1.3300000000	8.5833525626
1.3350000000	13.4989066385
1.3400000000	24.0057108636
1.3450000000	50.0830040568
1.3500000000	106.1752893653
1.3550000000	98.9568243666
1.3600000000	45.6169139764
1.3650000000	22.4109720950
1.3700000000	12.8535477443
1.3750000000	8.2677742277
1.3800000000	5.7675199046
1.3850000000	4.2612205975
1.3900000000	3.2899600064
1.3950000000	2.6269548172
1.4000000000	2.1546650764
1.4050000000	1.8069017340
1.4100000000	1.5432204208
1.4150000000	1.3388510668
1.4200000000	1.1753611613
1.4250000000	1.0444136056
1.4300000000	0.9384786729
1.4350000000	0.8307661572
1.4400000000	0.4897577076
1.4450000000	-0.3933456159
1.4500000000	-2.0088763507
1.4550000000	-0.7295863864
1.4600000000	1.8329341352
1.4650000000	1.1153863570
1.4700000000	-0.4759764894
1.4750000000	-2.9086942505
1.4800000000	-1.2678408378
1.4850000000	2.2833263919
1.4900000000	1.8472327507
1.4950000000	1.2035986947
1.5000000000	0.8512990625
1.5050000000	0.6599183023
1.5100000000	0.5502014137
1.5150000000	0.4826699779
1.5200000000	0.4382496426
1.5250000000	0.4099760191
1.5300000000	0.3875134764
1.5350000000	0.3710733108
1.5400000000	0.3590335058
1.5450000000	0.3504032558
1.5500000000	0.3445328282
1.5550000000	0.3410937582
1.5600000000	0.3406386539
1.5650000000	0.3418999797
1.5700000000	0.3460329455
1.5750000000	0.3538244106
1.5800000000	0.3668706146
1.5850000000	0.3883153266
1.5900000000	0.4247888227
1.5950000000	0.4908609081
1.6000000000	0.6168934992
1.6050000000	0.8209257698
1.6100000000	0.9114322788
1.6150000000	0.7361283896
1.6200000000	0.5776195006
1.6250000000	0.4990084073
1.6300000000	0.4646427923
1.6350000000	0.4523460006
1.6400000000	0.4521874217
1.6450000000	0.4596752077
1.6500000000	0.4726884381
1.6550000000	0.4903408939
1.6600000000	0.5122890540
1.6650000000	0.5385725457
1.6700000000	0.5694897171
1.6750000000	0.6055598602
1.6800000000	0.6475201825
1.6850000000	0.6963520909
1.6900000000	0.7533147691
1.6950000000	0.8196048893
1.7000000000	0.8977478438
1.7050000000	0.9923480840
1.7100000000	1.1088647064
1.7150000000	1.2742944459
1.7200000000	1.5035305835
1.7250000000	1.7814127467
1.7300000000	2.1304022832
1.7350000000	2.5033379523
1.7400000000	2.8325828249
1.7450000000	3.2420061968
1.7500000000	3.8772019219
1.7550000000	4.8360659072
1.7600000000	6.2779147448
1.7650000000	8.5036639977
1.7700000000	12.0889803554
1.7750000000	18.1257529133
1.7800000000	28.4022355712
1.7850000000	43.5333137679
1.7900000000	54.0248736754
1.7950000000	45.9302545758
1.8000000000	30.5117884986
1.8050000000	19.2277519005
1.8100000000	12.6458772694
1.8150000000	8.7904728795
1.8200000000	6.4185452643
1.8250000000	4.8806665316
1.8300000000	3.8357854949
1.8350000000	3.0971363792
1.8400000000	2.5575469087
1.8450000000	2.1518709698
1.8500000000	1.8389952736
1.8550000000	1.5931265507
1.8600000000	1.3960253254
1.8650000000	1.2350874016
1.8700000000	1.1010076555
1.8750000000	0.9864904824
1.8800000000	0.8851208556
1.8850000000	0.7903928596
1.8900000000	0.6940385194
1.8950000000	0.5834859727
1.9000000000	0.4375775287
1.9050000000	0.1892322049
1.9100000000	-0.1713829665
1.9150000000	-0.5597634141
1.9200000000	-0.3861078468
1.9250000000	0.7485363024
1.9300000000	1.6599276133
1.9350000000	1.7339005858
1.9400000000	1.4292981195
1.9450000000	1.1215243902
1.9500000000	0.9002262835
1.9550000000	0.7517503102
1.9600000000	0.6515752188
1.9650000000	0.5852540994
1.9700000000	0.5350306281
1.9750000000	0.4981706842
1.9800000000	0.4704076595
1.9850000000	0.4487275511
1.9900000000	0.4309825976
1.9950000000	0.4154330268
2.0000000000	0.4016592160
2.0050000000	0.3946410731
2.0100000000	0.4010795305
2.0150000000	0.4164732696
2.0200000000	0.4285905251
2.0250000000	0.4368522072
2.0300000000	0.4456730515
2.0350000000	0.4569575802
2.0400000000	0.4721591912
2.0450000000	0.4922239901
2.0500000000	0.5182893382
2.0550000000	0.5515087086
2.0600000000	0.5919370499
2.0650000000	0.6357336162
2.0700000000	0.6733701686
2.0750000000	0.6972791029
2.0800000000	0.7126267048
2.0850000000	0.7309516166
2.0900000000	0.7593969640
2.0950000000	0.8001460348
2.1000000000	0.8543731923
2.1050000000	0.9208380358
2.1100000000	1.0041777992
2.1150000000	1.1076117031
2.1200000000	1.2359175311
2.1250000000	1.3959634041
2.1300000000	1.5975422278
2.1350000000	1.8546999758
2.1400000000	2.1877395606
2.1450000000	2.6263374294
2.1500000000	3.2136940044
2.1550000000	4.0108693692
2.1600000000	5.0959324558
2.1650000000	6.5349036729
2.1700000000	8.3027751863
2.1750000000	10.0671280352
2.1800000000	11.1826736722
2.1850000000	11.3082609476
2.1900000000	10.9242441324
2.1950000000	10.6692995134
2.2000000000	10.5958830677
2.2050000000	10.0862906065
2.2100000000	8.8815581068
2.2150000000	7.3512797286
2.2200000000	5.9511216989
2.2250000000	4.8296793392
2.2300000000	3.9470152512
2.2350000000	3.2459460326
2.2400000000	2.6897278323
2.2450000000	2.2555895172
2.2500000000	1.9170130162
2.2550000000	1.6498794113
2.2600000000	1.4340565494
2.2650000000	1.2527942665
2.2700000000	1.0920188293
2.2750000000	0.9418526717
2.2800000000	0.8029950103
2.2850000000	0.6928783453
2.2900000000	0.6373243064
2.2950000000	0.6452325323
2.3000000000	0.6911302663
2.3050000000	0.7359849258
2.3100000000	0.7553461021
2.3150000000	0.7504551020
2.3200000000	0.7320170329
2.3250000000	0.7109603836
2.3300000000	0.6931908921
2.3350000000	0.6807554598
2.3400000000	0.6732302162
2.3450000000	0.6684244025
2.3500000000	0.6634131294
2.3550000000	0.6563259913
2.3600000000	0.6476817371
2.3650000000	0.6397490225
2.3700000000	0.6347769096
2.3750000000	0.6338644463
2.3800000000	0.6368251378
2.3850000000	0.6425312822
2.3900000000	0.6497266063
2.3950000000	0.6573366819
2.4000000000	0.6660028041
2.4050000000	0.6781140493
2.4100000000	0.6948849109
2.4150000000	0.7178553804
2.4200000000	0.7480728819
2.4250000000	0.7864903095
2.4300000000	0.8341765006
2.4350000000	0.8924711982
2.4400000000	0.9630981674
2.4450000000	1.0482813055
2.4500000000	1.1508509702
2.4550000000	1.2743879460
2.4600000000	1.4233139227
2.4650000000	1.6029790272
2.4700000000	1.8195805491
2.4750000000	2.0794268574
2.4800000000	2.3893414384
2.4850000000	2.7523926226
2.4900000000	3.1655755932
2.4950000000	3.6139456999
2.5000000000	4.0643019017
2.5050000000	4.4805390140
2.5100000000	4.7494391271
2.5150000000	4.8083091757
2.5200000000	4.6490429429
2.5250000000	4.3214716350
2.5300000000	3.9014068187
2.5350000000	3.4553458002
2.5400000000	3.0254074378
2.5450000000	2.6324085260
2.5500000000	2.2841276751
2.5550000000	1.9815531646
2.5600000000	1.7202950704
2.5650000000	1.4997807310
2.5700000000	1.3156102530
2.5750000000	1.1651792655
2.5800000000	1.0464537748
2.5850000000	0.9569139815
2.5900000000	0.8920109995
2.5950000000	0.8451595331
2.6000000000	0.8094718320
2.6050000000	0.7840188433
2.6100000000	0.7611644701
2.6150000000	0.7406276562
2.6200000000	0.7229215993
2.6250000000	0.7085508550
2.6300000000	0.6978200830
2.6350000000	0.6908613755
2.6400000000	0.6877440283
2.6450000000	0.6885463256
2.6500000000	0.6934363610
2.6550000000	0.7024424149
2.6600000000	0.7158007685
2.6650000000	0.7337201477
2.6700000000	0.7564464924
2.6750000000	0.7842716053
2.6800000000	0.8175202577
2.6850000000	0.8565471571
2.6900000000	0.9016950780
2.6950000000	0.9532747080
2.7000000000	1.0115012767
2.7050000000	1.0833860429
2.7100000000	1.1639545148
2.7150000000	1.2526535952
2.7200000000	1.3482878189
2.7250000000	1.4488657034
2.7300000000	1.5514583233
2.7350000000	1.6520753242
2.7400000000	1.7456001489
2.7450000000	1.8266314427
2.7500000000	1.8873283785
2.7550000000	1.9223052329
2.7600000000	1.9275170505
2.7650000000	1.9019233394
2.7700000000	1.8478551909
2.7750000000	1.7705429819
2.7800000000	1.6769235162
2.7850000000	1.5743763601
2.7900000000	1.4694940387
2.7950000000	1.3675546491
2.8000000000	1.2722811282
2.8050000000	1.1754023499
2.8100000000	1.0917727016
2.8150000000	1.0212014170
2.8200000000	0.9625792182
2.8250000000	0.9144318037
2.8300000000	0.8752802310
2.8350000000	0.8438640482
2.8400000000	0.8188433116
2.8450000000	0.8003082802
2.8500000000	0.7872769727
2.8550000000	0.7793835057
2.8600000000	0.7763690352
2.8650000000	0.7780290677
2.8700000000	0.7841815660
2.8750000000	0.7946402468
2.8800000000	0.8091896058
2.8850000000	0.8275616860
2.8900000000	0.8494265757
2.8950000000	0.8743813366
2.9000000000	0.9019480319
2.9050000000	0.9381601381
2.9100000000	0.9753384598
2.9150000000	1.0120492399
2.9200000000	1.0465683567
2.9250000000	1.0768967325
2.9300000000	1.1011555086
2.9350000000	1.1168433428
2.9400000000	1.1227073005
2.9450000000	1.1181057876
2.9500000000	1.1034164681
2.9550000000	1.0799794728
2.9600000000	1.0498359526
2.9650000000	1.0153538495
2.9700000000	0.9788568018
2.9750000000	0.9423609397
2.9800000000	0.9074298779
2.9850000000	0.8751544041
2.9900000000	0.8462057732
2.9950000000	0.8209259106
3.0000000000	0.7994250615
