# energy (eV)    P(omega), $W$ = 400 nm, $h$ = 300 nm, $s$ = 20 nm, $d/W = 5$, $E_{\rm e}$ = 200 keV
0.2000000000	0.2801456569
0.2050000000	0.2827684619
0.2100000000	0.2845511741
0.2150000000	0.2854643979
0.2200000000	0.2854657001
0.2250000000	0.2844967244
0.2300000000	0.2824794706
0.2350000000	0.2793120868
0.2400000000	0.2748624176
0.2450000000	0.2689602467
0.2500000000	0.2613869204
0.2550000000	0.2518611252
0.2600000000	0.2400197408
0.2650000000	0.2520530031
0.2700000000	0.2827902226
0.2750000000	0.3267202819
0.2800000000	0.3878340314
0.2850000000	0.4778158593
0.2900000000	0.5890571576
0.2950000000	0.7483136233
0.3000000000	0.9620260652
0.3050000000	1.2892180671
0.3100000000	1.7442165358
0.3150000000	2.6241701019
0.3200000000	3.9963611491
0.3250000000	4.9306897262
0.3300000000	6.2217323590
0.3350000000	8.0499084348
0.3400000000	10.9175757782
0.3450000000	15.8339157780
0.3500000000	25.6306951840
0.3550000000	48.2894446388
0.3600000000	118.5103590143
0.3650000000	0.7529294971
0.3700000000	54.6814158710
0.3750000000	71.8290983871
0.3800000000	33.4036813513
0.3850000000	18.7764506664
0.3900000000	12.0162141684
0.3950000000	8.4475864907
0.4000000000	6.3823146210
0.4050000000	5.0366557648
0.4100000000	4.1605651816
0.4150000000	3.5822370108
0.4200000000	3.2156401842
0.4250000000	2.9274731785
0.4300000000	2.5891654813
0.4350000000	2.3214123545
0.4400000000	2.1095487088
0.4450000000	1.9409333731
0.4500000000	1.8075666620
0.4550000000	1.7015334345
0.4600000000	1.6184595524
0.4650000000	1.5537600854
0.4700000000	1.5043916027
0.4750000000	1.4682127935
0.4800000000	1.4433584540
0.4850000000	1.4282014614
0.4900000000	1.4217621500
0.4950000000	1.4232845286
0.5000000000	1.4321193694
0.5050000000	1.4479584499
0.5100000000	1.4705463845
0.5150000000	1.4997203141
0.5200000000	1.5355117017
0.5250000000	1.5779396437
0.5300000000	1.6276363188
0.5350000000	1.6848556081
0.5400000000	1.7500873693
0.5450000000	1.8239868607
0.5500000000	1.9074843721
0.5550000000	2.0015988431
0.5600000000	2.1075734602
0.5650000000	2.2270133937
0.5700000000	2.3621426495
0.5750000000	2.5145814156
0.5800000000	2.6874141661
0.5850000000	2.8848638571
0.5900000000	3.1097204092
0.5950000000	3.3679711396
0.6000000000	3.6675170856
0.6050000000	4.0142003291
0.6100000000	4.4216077156
0.6150000000	4.9008990803
0.6200000000	5.4713378061
0.6250000000	6.1605762186
0.6300000000	6.9966679428
0.6350000000	8.0325807543
0.6400000000	9.3265105644
0.6450000000	10.9843717000
0.6500000000	13.1411167861
0.6550000000	16.0255584218
0.6600000000	20.0239624794
0.6650000000	25.7459703771
0.6700000000	34.4057965284
0.6750000000	48.3215065258
0.6800000000	72.9062976103
0.6850000000	122.2081725730
0.6900000000	244.6479161719
0.6950000000	685.9827689588
0.7000000000	3323.2772656372
0.7050000000	1613.8380799917
0.7100000000	414.0832509634
0.7150000000	175.8872859561
0.7200000000	95.9422725646
0.7250000000	60.1981908037
0.7300000000	41.2389309882
0.7350000000	30.0374202915
0.7400000000	22.8683894465
0.7450000000	18.0050417902
0.7500000000	14.5617592812
0.7550000000	12.0334326633
0.7600000000	10.1286920163
0.7650000000	8.6523567625
0.7700000000	7.4875116327
0.7750000000	6.5527746524
0.7800000000	5.7934966642
0.7850000000	5.1685374401
0.7900000000	4.6451976947
0.7950000000	4.2082194273
0.8000000000	3.8367729995
0.8050000000	3.5186303930
0.8100000000	3.2477948954
0.8150000000	3.0104830370
0.8200000000	2.8038988365
0.8250000000	2.6303787441
0.8300000000	2.4784399009
0.8350000000	2.3462695679
0.8400000000	2.2406298950
0.8450000000	2.1483070854
0.8500000000	2.0698037890
0.8550000000	2.0192450110
0.8600000000	1.9783091947
0.8650000000	1.9483438533
0.8700000000	1.9551480744
0.8750000000	1.9559190983
0.8800000000	1.9431932443
0.8850000000	1.8575674277
0.8900000000	1.4447171649
0.8950000000	-0.6152948521
0.9000000000	-11.6428803771
0.9050000000	-76.5339566219
0.9100000000	14.5450193162
0.9150000000	34.4394034517
0.9200000000	14.2836263853
0.9250000000	7.4268177028
0.9300000000	4.5334252136
0.9350000000	3.1525983825
0.9400000000	2.4087677216
0.9450000000	1.9972305758
0.9500000000	1.7061664025
0.9550000000	1.5125870117
0.9600000000	1.3944160038
0.9650000000	1.2987649120
0.9700000000	1.2333002775
0.9750000000	1.1927642850
0.9800000000	1.1745960995
0.9850000000	1.1857548744
0.9900000000	1.2222306804
0.9950000000	1.3077754369
1.0000000000	1.4871567213
1.0050000000	1.8841418673
1.0100000000	2.9086579740
1.0150000000	6.3809542474
1.0200000000	12.6481197052
1.0250000000	5.4069564637
1.0300000000	2.4939795669
1.0350000000	1.6296496536
1.0400000000	1.2892412677
1.0450000000	1.1274429574
1.0500000000	1.0427679286
1.0550000000	0.9949930159
1.0600000000	0.9686643154
1.0650000000	0.9559835575
1.0700000000	0.9526120882
1.0750000000	0.9567189155
1.0800000000	0.9657887519
1.0850000000	0.9806758447
1.0900000000	1.0045547593
1.0950000000	1.0333697304
1.1000000000	1.0673849700
1.1050000000	1.1064303318
1.1100000000	1.1511849654
1.1150000000	1.2021923959
1.1200000000	1.2601675446
1.1250000000	1.3257874350
1.1300000000	1.4006215612
1.1350000000	1.4859833287
1.1400000000	1.5835602233
1.1450000000	1.6957099271
1.1500000000	1.8244730470
1.1550000000	1.9753587681
1.1600000000	2.1526866758
1.1650000000	2.3634549479
1.1700000000	2.6157138356
1.1750000000	2.9131825696
1.1800000000	3.2742409866
1.1850000000	4.1166456541
1.1900000000	5.1953014027
1.1950000000	7.3979304746
1.2000000000	10.2738286853
1.2050000000	8.7990998409
1.2100000000	8.2212599741
1.2150000000	9.0525426957
1.2200000000	10.7720127738
1.2250000000	13.4471208782
1.2300000000	17.5286889939
1.2350000000	23.9911303521
1.2400000000	34.8773064607
1.2450000000	55.3694660670
1.2500000000	99.7268844997
1.2550000000	215.6654418049
1.2600000000	520.3814676096
1.2650000000	526.5326409084
1.2700000000	218.7551801224
1.2750000000	100.8368078512
1.2800000000	55.7561515086
1.2850000000	34.9981351176
1.2900000000	23.9356948621
1.2950000000	17.3991817979
1.3000000000	13.2334758466
1.3050000000	10.4250757849
1.3100000000	8.4397287679
1.3150000000	6.9986799251
1.3200000000	5.9220212916
1.3250000000	5.1005440829
1.3300000000	4.4666002904
1.3350000000	3.9762825021
1.3400000000	3.6024430756
1.3450000000	3.3284652128
1.3500000000	3.1602822503
1.3550000000	3.1176924655
1.3600000000	3.2654285689
1.3650000000	3.7782811934
1.3700000000	5.1525704246
1.3750000000	8.7121109886
1.3800000000	13.6204864566
1.3850000000	9.7093066938
1.3900000000	5.2566171145
1.3950000000	3.2662704564
1.4000000000	2.2537462405
1.4050000000	1.5380023871
1.4100000000	0.7382371524
1.4150000000	-0.6786642469
1.4200000000	-4.0987065559
1.4250000000	-13.3553053685
1.4300000000	-17.7787295825
1.4350000000	7.8134822950
1.4400000000	10.0709796297
1.4450000000	5.9848689647
1.4500000000	3.6854438566
1.4550000000	2.5243032730
1.4600000000	1.8797999811
1.4650000000	1.4414256931
1.4700000000	1.0725157181
1.4750000000	1.0527830916
1.4800000000	1.1941651184
1.4850000000	1.0947510630
1.4900000000	0.9987521661
1.4950000000	0.9336054982
1.5000000000	0.8888237681
1.5050000000	0.8591882199
1.5100000000	0.8395722793
1.5150000000	0.8312078104
1.5200000000	0.8265619923
1.5250000000	0.8297194401
1.5300000000	0.8421712509
1.5350000000	0.8673585975
1.5400000000	0.9125659076
1.5450000000	0.9935139826
1.5500000000	1.1452590412
1.5550000000	1.4377834633
1.5600000000	1.8795518121
1.5650000000	1.9448461199
1.5700000000	1.5267531205
1.5750000000	1.2245211608
1.5800000000	1.0810718192
1.5850000000	1.0189136585
1.5900000000	0.9972673494
1.5950000000	0.9981679332
1.6000000000	1.0135039171
1.6050000000	1.0398893524
1.6100000000	1.0750534128
1.6150000000	1.1181607953
1.6200000000	1.1696225391
1.6250000000	1.2297811344
1.6300000000	1.2995001146
1.6350000000	1.3800057999
1.6400000000	1.4729086029
1.6450000000	1.5803109109
1.6500000000	1.7048725333
1.6550000000	1.8499752235
1.6600000000	2.0200010186
1.6650000000	2.2205972417
1.6700000000	2.4569977763
1.6750000000	2.7430194745
1.6800000000	3.0901871538
1.6850000000	3.5168475089
1.6900000000	4.0488269700
1.6950000000	4.7236521996
1.7000000000	5.5971037153
1.7050000000	6.7910591073
1.7100000000	8.4369958816
1.7150000000	10.7932605425
1.7200000000	14.3193140698
1.7250000000	19.8206716075
1.7300000000	28.3207877548
1.7350000000	40.2171096812
1.7400000000	57.2954555718
1.7450000000	86.9334974655
1.7500000000	124.4354060928
1.7550000000	126.8223490621
1.7600000000	88.8295449169
1.7650000000	55.1314629713
1.7700000000	35.1669383995
1.7750000000	23.8134180022
1.7800000000	17.0819999651
1.7850000000	12.8929551621
1.7900000000	10.2042456808
1.7950000000	8.4969141176
1.8000000000	7.5032596997
1.8050000000	6.8842101097
1.8100000000	6.0048792616
1.8150000000	4.8218236200
1.8200000000	3.8793833787
1.8250000000	3.3234842419
1.8300000000	2.9127163310
1.8350000000	2.5582046306
1.8400000000	2.2664772929
1.8450000000	2.0288833650
1.8500000000	1.8322148275
1.8550000000	1.6656464218
1.8600000000	1.5072777522
1.8650000000	1.3703512080
1.8700000000	1.2269978247
1.8750000000	1.0145626526
1.8800000000	0.5308445467
1.8850000000	-0.5210364367
1.8900000000	-1.9297449451
1.8950000000	-2.1562475281
1.9000000000	0.1570379940
1.9050000000	2.3028202431
1.9100000000	2.5526916860
1.9150000000	2.1487421158
1.9200000000	1.7542485228
1.9250000000	1.4761763527
1.9300000000	1.3105709792
1.9350000000	1.1873866348
1.9400000000	1.1107649919
1.9450000000	1.0659305641
1.9500000000	1.0352903078
1.9550000000	0.9991453301
1.9600000000	0.9576792132
1.9650000000	0.9244648240
1.9700000000	0.9048421600
1.9750000000	0.8980955829
1.9800000000	0.9031845764
1.9850000000	0.9204720053
1.9900000000	0.9518571994
1.9950000000	0.9996909790
2.0000000000	1.0618930224
2.0050000000	1.1247823864
2.0100000000	1.1507944791
2.0150000000	1.1412119586
2.0200000000	1.1293947950
2.0250000000	1.1358681804
2.0300000000	1.1642959655
2.0350000000	1.2137000783
2.0400000000	1.2840500340
2.0450000000	1.3774061990
2.0500000000	1.4976862346
2.0550000000	1.6490539028
2.0600000000	1.8317116930
2.0650000000	2.0387943734
2.0700000000	2.2692564880
2.0750000000	2.5482122415
2.0800000000	2.9189863152
2.0850000000	3.4217341028
2.0900000000	4.0802213070
2.0950000000	4.8528547068
2.1000000000	5.5660357846
2.1050000000	5.9773870724
2.1100000000	5.9700845870
2.1150000000	5.8123078494
2.1200000000	5.8002615770
2.1250000000	6.0783586901
2.1300000000	6.7101804810
2.1350000000	7.7639769712
2.1400000000	9.3558192176
2.1450000000	11.6702005682
2.1500000000	14.9495776850
2.1550000000	19.3638852756
2.1600000000	24.5540984425
2.1650000000	28.8908888460
2.1700000000	29.8947840326
2.1750000000	26.7325234840
2.1800000000	21.5572226412
2.1850000000	16.6176377230
2.1900000000	12.7687168037
2.1950000000	10.0022374285
2.2000000000	8.0779218998
2.2050000000	6.7690557936
2.2100000000	5.8738798157
2.2150000000	5.1826558072
2.2200000000	4.5377596694
2.2250000000	3.8994304138
2.2300000000	3.3101852687
2.2350000000	2.8024680991
2.2400000000	2.3746407557
2.2450000000	2.0084689417
2.2500000000	1.6844485009
2.2550000000	1.3904418512
2.2600000000	1.0968833422
2.2650000000	0.8791753682
2.2700000000	0.7555423303
2.2750000000	0.7741246716
2.2800000000	0.9295668747
2.2850000000	1.1301684544
2.2900000000	1.2744607187
2.2950000000	1.3331030852
2.3000000000	1.3312244886
2.3050000000	1.2976249467
2.3100000000	1.2563686811
2.3150000000	1.2187581776
2.3200000000	1.1891886297
2.3250000000	1.1694233515
2.3300000000	1.1603009007
2.3350000000	1.1622900732
2.3400000000	1.1757779189
2.3450000000	1.2012781601
2.3500000000	1.2394574808
2.3550000000	1.2917610400
2.3600000000	1.3566256741
2.3650000000	1.4346881284
2.3700000000	1.5256726938
2.3750000000	1.6305427012
2.3800000000	1.7529906921
2.3850000000	1.8974962742
2.3900000000	2.0653234192
2.3950000000	2.2499082490
2.4000000000	2.4338399904
2.4050000000	2.5999438329
2.4100000000	2.7063961411
2.4150000000	2.7452651124
2.4200000000	2.7360139828
2.4250000000	2.7123579548
2.4300000000	2.7049457738
2.4350000000	2.7331132220
2.4400000000	2.8055603603
2.4450000000	2.9252475589
2.4500000000	3.0948288659
2.4550000000	3.3195857578
2.4600000000	3.6119669627
2.4650000000	3.9843258657
2.4700000000	4.4490929803
2.4750000000	5.0130205440
2.4800000000	5.6701003018
2.4850000000	6.3917070853
2.4900000000	7.1152760874
2.4950000000	7.7388295383
2.5000000000	8.1360018974
2.5050000000	8.1770378364
2.5100000000	7.8125555490
2.5150000000	7.1411400394
2.5200000000	6.3175843996
2.5250000000	5.4769815649
2.5300000000	4.7011586078
2.5350000000	4.0241089224
2.5400000000	3.4503949358
2.5450000000	2.9711015611
2.5500000000	2.5735862106
2.5550000000	2.2465020600
2.5600000000	1.9719930991
2.5650000000	1.7646565569
2.5700000000	1.6131693411
2.5750000000	1.5121091572
2.5800000000	1.4509920902
2.5850000000	1.4157001078
2.5900000000	1.3931028773
2.5950000000	1.3750777875
2.6000000000	1.3589387349
2.6050000000	1.3546852172
2.6100000000	1.3556015586
2.6150000000	1.3641020056
2.6200000000	1.3814636982
2.6250000000	1.4078872733
2.6300000000	1.4425221095
2.6350000000	1.4834754135
2.6400000000	1.5278570330
2.6450000000	1.5720240878
2.6500000000	1.6121439591
2.6550000000	1.6450995209
2.6600000000	1.6694923053
2.6650000000	1.6863098291
2.6700000000	1.6987657073
2.6750000000	1.7115603083
2.6800000000	1.7292463166
2.6850000000	1.7561882715
2.6900000000	1.7955146057
2.6950000000	1.8492538014
2.7000000000	1.9184697588
2.7050000000	2.0132172891
2.7100000000	2.1278983128
2.7150000000	2.2610778952
2.7200000000	2.4095601389
2.7250000000	2.5677518607
2.7300000000	2.7271074366
2.7350000000	2.8760528571
2.7400000000	3.0008183601
2.7450000000	3.0874658664
2.7500000000	3.1248462530
2.7550000000	3.1074907370
2.7600000000	3.0371424613
2.7650000000	2.9221649402
2.7700000000	2.7751707370
2.7750000000	2.6100290447
2.7800000000	2.4394030375
2.7850000000	2.2733649329
2.7900000000	2.1177415727
2.7950000000	1.9788656797
2.8000000000	1.8580572365
2.8050000000	1.7443961536
2.8100000000	1.6526615140
2.8150000000	1.5797866762
2.8200000000	1.5224714742
2.8250000000	1.4777341929
2.8300000000	1.4430884370
2.8350000000	1.4165311420
2.8400000000	1.3964211880
2.8450000000	1.3814037826
2.8500000000	1.3704010096
2.8550000000	1.3626765632
2.8600000000	1.3579046016
2.8650000000	1.3561951338
2.8700000000	1.3580241874
2.8750000000	1.3640932054
2.8800000000	1.3751456301
2.8850000000	1.3918021930
2.8900000000	1.4144310978
2.8950000000	1.4430720207
2.9000000000	1.4773642506
2.9050000000	1.5263372219
2.9100000000	1.5783759992
2.9150000000	1.6302479473
2.9200000000	1.6778875655
2.9250000000	1.7169562550
2.9300000000	1.7434624566
2.9350000000	1.7544718106
2.9400000000	1.7487033324
2.9450000000	1.7267802789
2.9500000000	1.6910570255
2.9550000000	1.6450513043
2.9600000000	1.5927240333
2.9650000000	1.5378204132
2.9700000000	1.4834257516
2.9750000000	1.4317725692
2.9800000000	1.3842565462
2.9850000000	1.3415835871
2.9900000000	1.3039576643
2.9950000000	1.2712712415
3.0000000000	1.2432480849
