# energy (eV)    P(omega), $W$ = 300 nm, $h$ = 300 nm, $s$ = 20 nm, $d/W = 5$, $E_{\rm e}$ = 200 keV
0.2000000000	0.0658571331
0.2050000000	0.0668031658
0.2100000000	0.0676924270
0.2150000000	0.0685266918
0.2200000000	0.0693074903
0.2250000000	0.0700360877
0.2300000000	0.0707134131
0.2350000000	0.0713400471
0.2400000000	0.0719161552
0.2450000000	0.0724413462
0.2500000000	0.0729147515
0.2550000000	0.0733347020
0.2600000000	0.0736987591
0.2650000000	0.0740035235
0.2700000000	0.0742443356
0.2750000000	0.0744150953
0.2800000000	0.0745078961
0.2850000000	0.0745126284
0.2900000000	0.0744163040
0.2950000000	0.0742025457
0.3000000000	0.0738502635
0.3050000000	0.0733328140
0.3100000000	0.0726159921
0.3150000000	0.0765279982
0.3200000000	0.0811747203
0.3250000000	0.0870487095
0.3300000000	0.0949090876
0.3350000000	0.1046964444
0.3400000000	0.1175144775
0.3450000000	0.1330752778
0.3500000000	0.1534400370
0.3550000000	0.1803998666
0.3600000000	0.2156275798
0.3650000000	0.2647619664
0.3700000000	0.3296128308
0.3750000000	0.4198916071
0.3800000000	0.5505543589
0.3850000000	0.7542770054
0.3900000000	1.0763583335
0.3950000000	1.6238538994
0.4000000000	2.6682773245
0.4050000000	5.0114145903
0.4100000000	11.4095544660
0.4150000000	36.6466178690
0.4200000000	23.3264955769
0.4250000000	-44.0332986809
0.4300000000	12.2706871414
0.4350000000	7.6564097894
0.4400000000	4.6874650167
0.4450000000	3.0881956857
0.4500000000	2.1669320938
0.4550000000	1.5996496466
0.4600000000	1.2299708860
0.4650000000	0.9779262502
0.4700000000	0.7997040564
0.4750000000	0.6707682474
0.4800000000	0.5751527502
0.4850000000	0.5032038462
0.4900000000	0.4482960199
0.4950000000	0.4059796038
0.5000000000	0.3732140127
0.5050000000	0.3477657282
0.5100000000	0.3281994747
0.5150000000	0.3134591480
0.5200000000	0.3024343014
0.5250000000	0.2946303606
0.5300000000	0.2895120784
0.5350000000	0.2866890964
0.5400000000	0.2858741084
0.5450000000	0.2868272544
0.5500000000	0.2894770926
0.5550000000	0.2936898268
0.5600000000	0.2994002724
0.5650000000	0.3065809030
0.5700000000	0.3152084252
0.5750000000	0.3253445761
0.5800000000	0.3370897095
0.5850000000	0.3505097664
0.5900000000	0.3657302046
0.5950000000	0.3829066042
0.6000000000	0.4022368972
0.6050000000	0.4240048046
0.6100000000	0.4484836357
0.6150000000	0.4760443163
0.6200000000	0.5071819481
0.6250000000	0.5423705711
0.6300000000	0.5823108351
0.6350000000	0.6278760624
0.6400000000	0.6799753175
0.6450000000	0.7399201277
0.6500000000	0.8094354863
0.6550000000	0.8903174539
0.6600000000	0.9853254210
0.6650000000	1.0980028015
0.6700000000	1.2325153808
0.6750000000	1.3952130889
0.6800000000	1.5946454861
0.6850000000	1.8420042280
0.6900000000	2.1546373808
0.6950000000	2.5567996383
0.7000000000	3.0870422993
0.7050000000	3.8042984233
0.7100000000	4.8084540434
0.7150000000	6.2773401850
0.7200000000	8.5420954367
0.7250000000	12.3028338770
0.7300000000	19.2083235059
0.7350000000	33.9897485255
0.7400000000	74.5444069880
0.7450000000	247.4802554172
0.7500000000	767.2627242788
0.7550000000	193.1666704091
0.7600000000	64.0211297482
0.7650000000	30.6989902999
0.7700000000	17.8674460063
0.7750000000	11.6708465305
0.7800000000	8.2198816900
0.7850000000	6.1098910304
0.7900000000	4.7242980580
0.7950000000	3.7683416653
0.8000000000	3.0809045918
0.8050000000	2.5687440431
0.8100000000	2.1780596459
0.8150000000	1.8682360723
0.8200000000	1.6236383131
0.8250000000	1.4266357546
0.8300000000	1.2652058362
0.8350000000	1.1324515451
0.8400000000	1.0211386723
0.8450000000	0.9277124587
0.8500000000	0.8487338513
0.8550000000	0.7805595557
0.8600000000	0.7223603866
0.8650000000	0.6726601304
0.8700000000	0.6287326264
0.8750000000	0.5913855457
0.8800000000	0.5597243879
0.8850000000	0.5313354254
0.8900000000	0.5086230354
0.8950000000	0.4879593003
0.9000000000	0.4716484908
0.9050000000	0.4605399347
0.9100000000	0.4503661271
0.9150000000	0.4443475213
0.9200000000	0.4439906107
0.9250000000	0.4438029371
0.9300000000	0.4375972875
0.9350000000	0.4181664464
0.9400000000	0.3084781885
0.9450000000	-0.1913567808
0.9500000000	-2.8318240861
0.9550000000	-16.2342839075
0.9600000000	3.8345240011
0.9650000000	6.7395996246
0.9700000000	2.9912856156
0.9750000000	1.5710635146
0.9800000000	0.9848440571
0.9850000000	0.7105915797
0.9900000000	0.5524929121
0.9950000000	0.4565935735
1.0000000000	0.3953501772
1.0050000000	0.3565400327
1.0100000000	0.3264187712
1.0150000000	0.3044003940
1.0200000000	0.2895764271
1.0250000000	0.2771014027
1.0300000000	0.2676032698
1.0350000000	0.2603922194
1.0400000000	0.2557862147
1.0450000000	0.2519136007
1.0500000000	0.2493074634
1.0550000000	0.2478185577
1.0600000000	0.2477911731
1.0650000000	0.2482673080
1.0700000000	0.2496337753
1.0750000000	0.2518951083
1.0800000000	0.2553048474
1.0850000000	0.2596396829
1.0900000000	0.2661009963
1.0950000000	0.2737848732
1.1000000000	0.2829610551
1.1050000000	0.2935117052
1.1100000000	0.3057814438
1.1150000000	0.3200421887
1.1200000000	0.3366275946
1.1250000000	0.3559184568
1.1300000000	0.3784902749
1.1350000000	0.4050380399
1.1400000000	0.4363662042
1.1450000000	0.4738846241
1.1500000000	0.5191750252
1.1550000000	0.5745011966
1.1600000000	0.6430564221
1.1650000000	0.7289963998
1.1700000000	0.8400435466
1.1750000000	0.9865041617
1.1800000000	1.1853917471
1.1850000000	1.4646557150
1.1900000000	1.8770496059
1.1950000000	2.5236841115
1.2000000000	3.6195906612
1.2050000000	5.6894990397
1.2100000000	10.2418092599
1.2150000000	22.5482113145
1.2200000000	55.3015383770
1.2250000000	49.7339457881
1.2300000000	19.8974480068
1.2350000000	9.3814018322
1.2400000000	5.4002248093
1.2450000000	3.5757316250
1.2500000000	2.6171972501
1.2550000000	2.0684672660
1.2600000000	1.7396348546
1.2650000000	1.5394894368
1.2700000000	1.4277280593
1.2750000000	1.3783490260
1.2800000000	1.3795950807
1.2850000000	1.4271562751
1.2900000000	1.5223264177
1.2950000000	1.6705283912
1.3000000000	1.8887947587
1.3050000000	2.1992985756
1.3100000000	2.6421443172
1.3150000000	3.2864282694
1.3200000000	4.2558585694
1.3250000000	5.7866777268
1.3300000000	8.3945164323
1.3350000000	13.2765888811
1.3400000000	23.7102420330
1.3450000000	49.6176855055
1.3500000000	105.4054346166
1.3550000000	98.3695730138
1.3600000000	45.3802055539
1.3650000000	22.3002450905
1.3700000000	12.7889075730
1.3750000000	8.2236481954
1.3800000000	5.7343289574
1.3850000000	4.2350382086
1.3900000000	3.2692362356
1.3950000000	2.6107274536
1.4000000000	2.1431109515
1.4050000000	1.8006965787
1.4100000000	1.5440928904
1.4150000000	1.3504696454
1.4200000000	1.2048691409
1.4250000000	1.1073577231
1.4300000000	1.0716708419
1.4350000000	1.0915895045
1.4400000000	0.8408165447
1.4450000000	0.0726620163
1.4500000000	-1.1743871926
1.4550000000	-0.3292231535
1.4600000000	1.4222829862
1.4650000000	0.7699770095
1.4700000000	-0.7273007089
1.4750000000	-3.1827887423
1.4800000000	-1.4165555636
1.4850000000	2.3281732680
1.4900000000	1.8872274541
1.4950000000	1.2215460392
1.5000000000	0.8582783054
1.5050000000	0.6626719155
1.5100000000	0.5511822594
1.5150000000	0.4834748409
1.5200000000	0.4397371913
1.5250000000	0.4125618170
1.5300000000	0.3918031871
1.5350000000	0.3774946548
1.5400000000	0.3680698959
1.5450000000	0.3626885391
1.5500000000	0.3608080429
1.5550000000	0.3624422771
1.5600000000	0.3685577951
1.5650000000	0.3786586364
1.5700000000	0.3950132111
1.5750000000	0.4203886440
1.5800000000	0.4599805775
1.5850000000	0.5239026162
1.5900000000	0.6334625837
1.5950000000	0.8358131039
1.6000000000	1.2305545639
1.6050000000	1.8832459054
1.6100000000	2.1855257920
1.6150000000	1.6188614766
1.6200000000	1.0872655009
1.6250000000	0.8066556072
1.6300000000	0.6657603739
1.6350000000	0.5932216795
1.6400000000	0.5564534597
1.6450000000	0.5403103807
1.6500000000	0.5372081100
1.6550000000	0.5435937325
1.6600000000	0.5573467720
1.6650000000	0.5774988721
1.6700000000	0.6036817925
1.6750000000	0.6358975718
1.6800000000	0.6744340797
1.6850000000	0.7197379262
1.6900000000	0.7722038607
1.6950000000	0.8310859127
1.7000000000	0.8953946746
1.7050000000	0.9612957290
1.7100000000	1.0364914116
1.7150000000	1.2234045775
1.7200000000	1.5513600414
1.7250000000	1.8518249933
1.7300000000	2.1742682048
1.7350000000	2.5285694457
1.7400000000	2.8762322863
1.7450000000	3.3227883012
1.7500000000	3.9980888512
1.7550000000	5.0032010029
1.7600000000	6.5070335855
1.7650000000	8.8252037046
1.7700000000	12.5593690118
1.7750000000	18.8504674701
1.7800000000	29.5703774848
1.7850000000	45.3797459149
1.7900000000	56.3948770138
1.7950000000	48.0213523629
1.8000000000	31.9595699086
1.8050000000	20.1832138770
1.8100000000	13.3072856213
1.8150000000	9.2770329737
1.8200000000	6.7967605515
1.8250000000	5.1887920504
1.8300000000	4.0970376239
1.8350000000	3.3264325195
1.8400000000	2.7650111957
1.8450000000	2.3448531815
1.8500000000	2.0231536318
1.8550000000	1.7731285177
1.8600000000	1.5760936372
1.8650000000	1.4193509434
1.8700000000	1.2938694033
1.8750000000	1.1930189696
1.8800000000	1.1115407514
1.8850000000	1.0447881279
1.8900000000	0.9874070656
1.8950000000	0.9314081796
1.9000000000	0.8629952547
1.9050000000	0.7334768884
1.9100000000	0.5552315640
1.9150000000	0.4608839781
1.9200000000	1.1267607124
1.9250000000	2.9669529527
1.9300000000	4.4263468737
1.9350000000	4.3582330026
1.9400000000	3.4278489406
1.9450000000	2.5258188224
1.9500000000	1.8924918489
1.9550000000	1.4775173302
1.9600000000	1.2032897918
1.9650000000	1.0197445939
1.9700000000	0.8872401569
1.9750000000	0.7901093999
1.9800000000	0.7159539274
1.9850000000	0.6557783959
1.9900000000	0.6026995809
1.9950000000	0.5507101115
2.0000000000	0.4989342258
2.0050000000	0.4658560708
2.0100000000	0.4848079727
2.0150000000	0.5370160399
2.0200000000	0.5692074218
2.0250000000	0.5777592808
2.0300000000	0.5796853659
2.0350000000	0.5831887507
2.0400000000	0.5913172997
2.0450000000	0.6048479358
2.0500000000	0.6242845732
2.0550000000	0.6500847820
2.0600000000	0.6822489078
2.0650000000	0.7188291409
2.0700000000	0.7549949854
2.0750000000	0.7871265396
2.0800000000	0.8184183278
2.0850000000	0.8554766203
2.0900000000	0.9027299056
2.0950000000	0.9620432903
2.1000000000	1.0354234007
2.1050000000	1.1222059479
2.1100000000	1.2284901103
2.1150000000	1.3587345292
2.1200000000	1.5191919446
2.1250000000	1.7186327781
2.1300000000	1.9694198177
2.1350000000	2.2892033135
2.1400000000	2.7034696437
2.1450000000	3.2494800760
2.1500000000	3.9815256392
2.1550000000	4.9764429527
2.1600000000	6.3325708359
2.1650000000	8.1331901243
2.1700000000	10.3449856995
2.1750000000	12.5439736666
2.1800000000	13.9026745396
2.1850000000	13.9732823588
2.1900000000	13.3555322225
2.1950000000	12.8748232681
2.2000000000	12.6616557343
2.2050000000	12.0694750703
2.2100000000	10.8122187673
2.2150000000	9.2664135837
2.2200000000	7.8787228783
2.2250000000	6.7318578374
2.2300000000	5.7220171045
2.2350000000	4.8090042052
2.2400000000	4.0247799786
2.2450000000	3.3973031315
2.2500000000	2.9162879880
2.2550000000	2.5549434164
2.2600000000	2.2843881576
2.2650000000	2.0756809019
2.2700000000	1.8975358321
2.2750000000	1.7191295601
2.2800000000	1.5270564384
2.2850000000	1.3442879467
2.2900000000	1.2179888802
2.2950000000	1.1748566009
2.3000000000	1.1902877025
2.3050000000	1.2138439176
2.3100000000	1.2158273854
2.3150000000	1.1964793274
2.3200000000	1.1686553585
2.3250000000	1.1456338193
2.3300000000	1.1342088697
2.3350000000	1.1355476209
2.3400000000	1.1458445020
2.3450000000	1.1564866347
2.3500000000	1.1566287204
2.3550000000	1.1393515445
2.3600000000	1.1066132888
2.3650000000	1.0669707243
2.3700000000	1.0292439146
2.3750000000	0.9987006078
2.3800000000	0.9770519035
2.3850000000	0.9638135958
2.3900000000	0.9578818415
2.3950000000	0.9579780418
2.4000000000	0.9644504777
2.4050000000	0.9794306372
2.4100000000	1.0036329368
2.4150000000	1.0380463441
2.4200000000	1.0832652533
2.4250000000	1.1403299592
2.4300000000	1.2107576578
2.4350000000	1.2965836038
2.4400000000	1.4004341184
2.4450000000	1.5256625798
2.4500000000	1.6764997803
2.4550000000	1.8582634460
2.4600000000	2.0774870804
2.4650000000	2.3420095904
2.4700000000	2.6608213741
2.4750000000	3.0429280072
2.4800000000	3.4976301592
2.4850000000	4.0286096102
2.4900000000	4.6306765086
2.4950000000	5.2822853931
2.5000000000	5.9378712616
2.5050000000	6.5511444018
2.5100000000	6.9654556347
2.5150000000	7.0904541708
2.5200000000	6.9046078769
2.5250000000	6.4652851792
2.5300000000	5.8724319732
2.5350000000	5.2224431314
2.5400000000	4.5834204528
2.5450000000	3.9938422480
2.5500000000	3.4708192278
2.5550000000	3.0182465772
2.5600000000	2.6299017625
2.5650000000	2.3034022379
2.5700000000	2.0310609556
2.5750000000	1.8080657422
2.5800000000	1.6308220941
2.5850000000	1.4954226453
2.5900000000	1.3954409474
2.5950000000	1.3218420603
2.6000000000	1.2652186808
2.6050000000	1.2249773710
2.6100000000	1.1901337449
2.6150000000	1.1601354774
2.6200000000	1.1355752109
2.6250000000	1.1171095300
2.6300000000	1.1051768792
2.6350000000	1.1000009748
2.6400000000	1.1017117520
2.6450000000	1.1104301150
2.6500000000	1.1263927178
2.6550000000	1.1496658514
2.6600000000	1.1806066689
2.6650000000	1.2195759670
2.6700000000	1.2670169625
2.6750000000	1.3234667551
2.6800000000	1.3895206359
2.6850000000	1.4657875572
2.6900000000	1.5527663174
2.6950000000	1.6507461976
2.7000000000	1.7596279633
2.7050000000	1.8917951718
2.7100000000	2.0360372972
2.7150000000	2.1895454873
2.7200000000	2.3482344745
2.7250000000	2.5069721691
2.7300000000	2.6599677942
2.7350000000	2.8011056645
2.7400000000	2.9240255631
2.7450000000	3.0230818979
2.7500000000	3.0895172592
2.7550000000	3.1180301523
2.7600000000	3.1045978620
2.7650000000	3.0487526227
2.7700000000	2.9542370005
2.7750000000	2.8285494087
2.7800000000	2.6814635112
2.7850000000	2.5233478322
2.7900000000	2.3635054683
2.7950000000	2.2093966486
2.8000000000	2.0662964837
2.8050000000	1.9215127572
2.8100000000	1.7975969698
2.8150000000	1.6942167481
2.8200000000	1.6097079474
2.8250000000	1.5418772352
2.8300000000	1.4885151960
2.8350000000	1.4477309735
2.8400000000	1.4175340630
2.8450000000	1.3979937564
2.8500000000	1.3876634711
2.8550000000	1.3859920157
2.8600000000	1.3925678035
2.8650000000	1.4070200490
2.8700000000	1.4289339819
2.8750000000	1.4577833737
2.8800000000	1.4928783414
2.8850000000	1.5333216829
2.8900000000	1.5780349036
2.8950000000	1.6257982446
2.9000000000	1.6753289913
2.9050000000	1.7348494133
2.9100000000	1.7919481416
2.9150000000	1.8448291472
2.9200000000	1.8916075035
2.9250000000	1.9301444996
2.9300000000	1.9584708201
2.9350000000	1.9735238778
2.9400000000	1.9739818376
2.9450000000	1.9592816318
2.9500000000	1.9302714179
2.9550000000	1.8891560451
2.9600000000	1.8391179671
2.9650000000	1.7837631683
2.9700000000	1.7265786065
2.9750000000	1.6705442513
2.9800000000	1.6179434609
2.9850000000	1.5703341061
2.9900000000	1.5286531940
2.9950000000	1.4933405748
3.0000000000	1.4644887946
