# energy (eV)    P(omega), $W$ = 300 nm, $h$ = 300 nm, $s$ = 20 nm, $d/W = 5$, $E_{\rm e}$ = 200 keV
0.2000000000	0.5357503313
0.2050000000	0.5434758863
0.2100000000	0.5507360964
0.2150000000	0.5575454561
0.2200000000	0.5639165379
0.2250000000	0.5698597218
0.2300000000	0.5753826922
0.2350000000	0.5804901621
0.2400000000	0.5851835630
0.2450000000	0.5894598010
0.2500000000	0.5933117442
0.2550000000	0.5967258136
0.2600000000	0.5996821738
0.2650000000	0.6021529625
0.2700000000	0.6041002680
0.2750000000	0.6054742934
0.2800000000	0.6062104381
0.2850000000	0.6062261800
0.2900000000	0.6054155190
0.2950000000	0.6036446315
0.3000000000	0.6007414174
0.3050000000	0.5964882214
0.3100000000	0.5906058182
0.3150000000	0.6225512066
0.3200000000	0.6604958956
0.3250000000	0.7084633130
0.3300000000	0.7726534372
0.3350000000	0.8525791232
0.3400000000	0.9572519189
0.3450000000	1.0843173254
0.3500000000	1.2506056619
0.3550000000	1.4707398491
0.3600000000	1.7583708706
0.3650000000	2.1595384818
0.3700000000	2.6889958753
0.3750000000	3.4260215986
0.3800000000	4.4926935060
0.3850000000	6.1557363896
0.3900000000	8.7848615697
0.3950000000	13.2538432957
0.4000000000	21.7787230807
0.4050000000	40.9033673513
0.4100000000	93.1228248306
0.4150000000	299.0913089214
0.4200000000	190.3928843501
0.4250000000	-359.3428126378
0.4300000000	100.1242413980
0.4350000000	62.4688831776
0.4400000000	38.2417471479
0.4450000000	25.1919051870
0.4500000000	17.6747825270
0.4550000000	13.0461438252
0.4600000000	10.0299164600
0.4650000000	7.9735314126
0.4700000000	6.5194830323
0.4750000000	5.4675626974
0.4800000000	4.6874953907
0.4850000000	4.1005091156
0.4900000000	3.6525447140
0.4950000000	3.3072967453
0.5000000000	3.0399563653
0.5050000000	2.8323002564
0.5100000000	2.6726180896
0.5150000000	2.5522913644
0.5200000000	2.4622627090
0.5250000000	2.3984938379
0.5300000000	2.3566195500
0.5350000000	2.3334534193
0.5400000000	2.3266504944
0.5450000000	2.3342540490
0.5500000000	2.3556786386
0.5550000000	2.3898319376
0.5600000000	2.4361794271
0.5650000000	2.4944958132
0.5700000000	2.5645878009
0.5750000000	2.6469568640
0.5800000000	2.7424168146
0.5850000000	2.8515028146
0.5900000000	2.9752332774
0.5950000000	3.1148723567
0.6000000000	3.2720286248
0.6050000000	3.4490076720
0.6100000000	3.6480314011
0.6150000000	3.8721152404
0.6200000000	4.1252826758
0.6250000000	4.4113879764
0.6300000000	4.7361255083
0.6350000000	5.1065964414
0.6400000000	5.5301896965
0.6450000000	6.0175659519
0.6500000000	6.5827502446
0.6550000000	7.2403384596
0.6600000000	8.0127645766
0.6650000000	8.9288307547
0.6700000000	10.0224025025
0.6750000000	11.3450902993
0.6800000000	12.9663937303
0.6850000000	14.9772803415
0.6900000000	17.5187693922
0.6950000000	20.7880000051
0.7000000000	25.0983303151
0.7050000000	30.9287810149
0.7100000000	39.0912086973
0.7150000000	51.0310295344
0.7200000000	69.4397165899
0.7250000000	100.0075212788
0.7300000000	156.1350827347
0.7350000000	276.2754241849
0.7400000000	605.8879042562
0.7450000000	2011.4066656729
0.7500000000	6235.6993248516
0.7550000000	1569.8367366150
0.7600000000	520.2672196287
0.7650000000	249.4638336106
0.7700000000	145.1863280760
0.7750000000	94.8298143277
0.7800000000	66.7862675733
0.7850000000	49.6401902053
0.7900000000	38.3809013286
0.7950000000	30.6129880735
0.8000000000	25.0271146382
0.8050000000	20.8655600583
0.8100000000	17.6911206597
0.8150000000	15.1737518340
0.8200000000	13.1863930430
0.8250000000	11.5857717676
0.8300000000	10.2741993787
0.8350000000	9.1956171965
0.8400000000	8.2912512046
0.8450000000	7.5322149034
0.8500000000	6.8905609825
0.8550000000	6.3366914954
0.8600000000	5.8638666114
0.8650000000	5.4600803648
0.8700000000	5.1032015210
0.8750000000	4.7997731932
0.8800000000	4.5425256894
0.8850000000	4.3118658885
0.8900000000	4.1272972673
0.8950000000	3.9593782117
0.9000000000	3.8267987578
0.9050000000	3.7364413349
0.9100000000	3.6536851923
0.9150000000	3.6046508177
0.9200000000	3.6015505695
0.9250000000	3.5998411879
0.9300000000	3.5493563786
0.9350000000	3.3916900698
0.9400000000	2.5023305503
0.9450000000	-1.5497878763
0.9500000000	-22.9546336367
0.9550000000	-131.5967270671
0.9600000000	31.0804287878
0.9650000000	54.6261467166
0.9700000000	24.2438989961
0.9750000000	12.7326733372
0.9800000000	7.9813953151
0.9850000000	5.7586272195
0.9900000000	4.4773067855
0.9950000000	3.7001021603
1.0000000000	3.2037690951
1.0050000000	2.8892333138
1.0100000000	2.6451341469
1.0150000000	2.4667073298
1.0200000000	2.3465782677
1.0250000000	2.2455014850
1.0300000000	2.1685564206
1.0350000000	2.1101532956
1.0400000000	2.0728611775
1.0450000000	2.0415296757
1.0500000000	2.0204728034
1.0550000000	2.0084813295
1.0600000000	2.0083405319
1.0650000000	2.0123015246
1.0700000000	2.0234957907
1.0750000000	2.0419607522
1.0800000000	2.0697481225
1.0850000000	2.1050693812
1.0900000000	2.1576756948
1.0950000000	2.2202307928
1.1000000000	2.2949226013
1.1050000000	2.3808174348
1.1100000000	2.4807146146
1.1150000000	2.5968306981
1.1200000000	2.7318788026
1.1250000000	2.8889864075
1.1300000000	3.0728379970
1.1350000000	3.2891033378
1.1400000000	3.5443377601
1.1450000000	3.8500628448
1.1500000000	4.2191758649
1.1550000000	4.6701491937
1.1600000000	5.2290403692
1.1650000000	5.9297569686
1.1700000000	6.8353249232
1.1750000000	8.0298579957
1.1800000000	9.6521977370
1.1850000000	11.9304442057
1.1900000000	15.2950910626
1.1950000000	20.5713578128
1.2000000000	29.5140917119
1.2050000000	46.4055809991
1.2100000000	83.5556868654
1.2150000000	183.9845752530
1.2200000000	451.2678474083
1.2250000000	405.8111807486
1.2300000000	162.3220302391
1.2350000000	76.5036389797
1.2400000000	44.0128434235
1.2450000000	29.1207293092
1.2500000000	21.2943525475
1.2550000000	16.8112112356
1.2600000000	14.1214442808
1.2650000000	12.4805923209
1.2700000000	11.5593792959
1.2750000000	11.1452883612
1.2800000000	11.1418322509
1.2850000000	11.5130939837
1.2900000000	12.2685797058
1.2950000000	13.4511303122
1.3000000000	15.1972258506
1.3050000000	17.6843455557
1.3100000000	21.2340922942
1.3150000000	26.4006795162
1.3200000000	34.1766080809
1.3250000000	46.4569963052
1.3300000000	67.3790365041
1.3350000000	106.5479691774
1.3400000000	190.2575330890
1.3450000000	398.1110938083
1.3500000000	845.6777825794
1.3550000000	789.1975429178
1.3600000000	364.0666390105
1.3650000000	178.9036782218
1.3700000000	102.5987343651
1.3750000000	65.9741165673
1.3800000000	46.0037165463
1.3850000000	33.9755951694
1.3900000000	26.2271454099
1.3950000000	20.9438118793
1.4000000000	17.1916171324
1.4050000000	14.4434999502
1.4100000000	12.3831928511
1.4150000000	10.8270305105
1.4200000000	9.6540167264
1.4250000000	8.8622777187
1.4300000000	8.5559132491
1.4350000000	8.6793219472
1.4400000000	6.6444533995
1.4450000000	0.4577171191
1.4500000000	-9.6362143648
1.4550000000	-2.7458000890
1.4600000000	11.5101945108
1.4650000000	6.2620831457
1.4700000000	-5.7709098715
1.4750000000	-25.4593742569
1.4800000000	-11.3261040090
1.4850000000	18.6583916805
1.4900000000	15.1229678777
1.4950000000	9.7894278301
1.5000000000	6.8784709852
1.5050000000	5.3103992799
1.5100000000	4.4163193421
1.5150000000	3.8729135589
1.5200000000	3.5214568981
1.5250000000	3.3026436308
1.5300000000	3.1350147723
1.5350000000	3.0188613338
1.5400000000	2.9415638216
1.5450000000	2.8962813492
1.5500000000	2.8785540676
1.5550000000	2.8882754845
1.5600000000	2.9329044509
1.5650000000	3.0079623429
1.5700000000	3.1308737144
1.5750000000	3.3224934303
1.5800000000	3.6220642542
1.5850000000	4.1060096785
1.5900000000	4.9353779555
1.5950000000	6.4665659213
1.6000000000	9.4523970905
1.6050000000	14.3885449669
1.6100000000	16.6764839674
1.6150000000	12.3971341641
1.6200000000	8.3834863041
1.6250000000	6.2675424139
1.6300000000	5.2083101068
1.6350000000	4.6665138974
1.6400000000	4.3959274526
1.6450000000	4.2821823870
1.6500000000	4.2680547019
1.6550000000	4.3268751734
1.6600000000	4.4427780693
1.6650000000	4.6086637083
1.6700000000	4.8220085721
1.6750000000	5.0831478222
1.6800000000	5.3946534632
1.6850000000	5.7603843509
1.6900000000	6.1839137726
1.6950000000	6.6601247202
1.7000000000	7.1826548979
1.7050000000	7.7244990695
1.7100000000	8.3468535199
1.7150000000	9.8395283945
1.7200000000	12.4301731488
1.7250000000	14.8308877368
1.7300000000	17.4281576120
1.7350000000	20.2789741236
1.7400000000	23.0641281988
1.7450000000	26.6366275678
1.7500000000	32.0439284988
1.7550000000	40.0962790246
1.7600000000	52.1463142898
1.7650000000	70.7226410691
1.7700000000	100.6459340214
1.7750000000	151.0581101280
1.7800000000	236.9570856788
1.7850000000	363.6319524586
1.7900000000	451.8796391610
1.7950000000	384.7649769930
1.8000000000	256.0556989059
1.8050000000	161.6922986068
1.8100000000	106.5972618183
1.8150000000	74.3043917253
1.8200000000	54.4308535799
1.8250000000	41.5465227108
1.8300000000	32.7980987926
1.8350000000	26.6225482767
1.8400000000	22.1227076331
1.8450000000	18.7542924913
1.8500000000	16.1742537571
1.8550000000	14.1678897562
1.8600000000	12.5853488673
1.8650000000	11.3246836307
1.8700000000	10.3132524950
1.8750000000	9.4975359477
1.8800000000	8.8348014722
1.8850000000	8.2869617851
1.8900000000	7.8097981440
1.8950000000	7.3372071107
1.9000000000	6.7552769751
1.9050000000	5.6651813976
1.9100000000	4.1569583599
1.9150000000	3.2757433429
1.9200000000	8.4183819912
1.9250000000	22.9055809286
1.9300000000	34.4001930617
1.9350000000	33.9129088683
1.9400000000	26.7011381418
1.9450000000	19.7037940428
1.9500000000	14.7886412929
1.9550000000	11.5666182233
1.9600000000	9.4365401175
1.9650000000	8.0111602925
1.9700000000	6.9811659348
1.9750000000	6.2261382214
1.9800000000	5.6498793415
1.9850000000	5.1826418056
1.9900000000	4.7711276906
1.9950000000	4.3688865352
2.0000000000	3.9690746669
2.0050000000	3.7144240031
2.0100000000	3.8613210382
2.0150000000	4.2649828350
2.0200000000	4.5149245030
2.0250000000	4.5833507432
2.0300000000	4.6015670112
2.0350000000	4.6327660992
2.0400000000	4.7007066469
2.0450000000	4.8116524665
2.0500000000	4.9698385810
2.0550000000	5.1791582002
2.0600000000	5.4396501645
2.0650000000	5.7351947811
2.0700000000	6.0257665747
2.0750000000	6.2812558758
2.0800000000	6.5278266646
2.0850000000	6.8198235301
2.0900000000	7.1935085805
2.0950000000	7.6639219314
2.1000000000	8.2469152073
2.1050000000	8.9370299001
2.1100000000	9.7827271419
2.1150000000	10.8193907901
2.1200000000	12.0967430926
2.1250000000	13.6845477934
2.1300000000	15.6811717261
2.1350000000	18.2270901509
2.1400000000	21.5251144921
2.1450000000	25.8717737521
2.1500000000	31.6990984441
2.1550000000	39.6184965477
2.1600000000	50.4124925633
2.1650000000	64.7438366569
2.1700000000	82.3485218086
2.1750000000	99.8556574700
2.1800000000	110.6871481439
2.1850000000	111.2863924512
2.1900000000	106.4264239656
2.1950000000	102.6668286151
2.2000000000	101.0223161627
2.2050000000	96.2994922422
2.2100000000	86.2066986099
2.2150000000	73.7727051040
2.2200000000	62.5980427717
2.2250000000	53.3771264226
2.2300000000	45.3019132230
2.2350000000	38.0417601007
2.2400000000	31.8248546417
2.2450000000	26.8547226302
2.2500000000	23.0415955468
2.2550000000	20.1708946538
2.2600000000	18.0138256818
2.2650000000	16.3427464287
2.2700000000	14.9135778687
2.2750000000	13.4877877148
2.2800000000	11.9639996910
2.2850000000	10.5246153170
2.2900000000	9.5395073944
2.2950000000	9.2153686369
2.3000000000	9.3535348764
2.3050000000	9.5528323440
2.3100000000	9.5763136598
2.3150000000	9.4262715829
2.3200000000	9.2052065532
2.3250000000	9.0189748215
2.3300000000	8.9218860400
2.3350000000	8.9238288724
2.3400000000	8.9959578214
2.3450000000	9.0723421237
2.3500000000	9.0698887411
2.3550000000	8.9355768226
2.3600000000	8.6843818304
2.3650000000	8.3818101958
2.3700000000	8.0953367892
2.3750000000	7.8651476604
2.3800000000	7.7040425739
2.3850000000	7.6078351105
2.3900000000	7.5676435593
2.3950000000	7.5733156321
2.4000000000	7.6277978555
2.4050000000	7.7484252719
2.4100000000	7.9411160852
2.4150000000	8.2141111816
2.4200000000	8.5724739813
2.4250000000	9.0245929464
2.4300000000	9.5825053903
2.4350000000	10.2623241380
2.4400000000	11.0848307431
2.4450000000	12.0765560149
2.4500000000	13.2709904115
2.4550000000	14.7102339146
2.4600000000	16.4460222787
2.4650000000	18.5404274993
2.4700000000	21.0646531836
2.4750000000	24.0900461248
2.4800000000	27.6903676816
2.4850000000	31.8948493323
2.4900000000	36.6623756638
2.4950000000	41.8219428029
2.5000000000	47.0116087837
2.5050000000	51.8624312804
2.5100000000	55.1318900534
2.5150000000	56.1050384695
2.5200000000	54.6153197357
2.5250000000	51.1225704811
2.5300000000	46.4217766764
2.5350000000	41.2762262921
2.5400000000	36.2222659063
2.5450000000	31.5614424489
2.5500000000	27.4269634725
2.5550000000	23.8486967355
2.5600000000	20.7772891436
2.5650000000	18.1944631747
2.5700000000	16.0398570265
2.5750000000	14.2757733048
2.5800000000	12.8740206884
2.5850000000	11.8037679123
2.5900000000	11.0140806620
2.5950000000	10.4332233358
2.6000000000	9.9864807501
2.6050000000	9.6688544725
2.6100000000	9.3933403692
2.6150000000	9.1556076662
2.6200000000	8.9604360803
2.6250000000	8.8130670937
2.6300000000	8.7169888615
2.6350000000	8.6739854636
2.6400000000	8.6850826848
2.6450000000	8.7512393673
2.6500000000	8.8743391850
2.6550000000	9.0549133516
2.6600000000	9.2958178382
2.6650000000	9.5999364025
2.6700000000	9.9707766791
2.6750000000	10.4125917733
2.6800000000	10.9300476757
2.6850000000	11.5279114191
2.6900000000	12.2100958201
2.6950000000	12.9789204534
2.7000000000	13.8337111257
2.7050000000	14.8718441503
2.7100000000	16.0058632576
2.7150000000	17.2142235139
2.7200000000	18.4654144563
2.7250000000	19.7195864229
2.7300000000	20.9314053277
2.7350000000	22.0525203303
2.7400000000	23.0321263739
2.7450000000	23.8246607675
2.7500000000	24.3597296194
2.7550000000	24.5943627987
2.7600000000	24.4959640108
2.7650000000	24.0604198500
2.7700000000	23.3172408053
2.7750000000	22.3258876919
2.7800000000	21.1639512158
2.7850000000	19.9137566180
2.7900000000	18.6491638049
2.7950000000	17.4294109859
2.8000000000	16.2963837927
2.8050000000	15.1496405830
2.8100000000	14.1677371980
2.8150000000	13.3480744108
2.8200000000	12.6775028324
2.8250000000	12.1386772620
2.8300000000	11.7141092481
2.8350000000	11.3888470354
2.8400000000	11.1471347250
2.8450000000	10.9895483919
2.8500000000	10.9046273555
2.8550000000	10.8880008825
2.8600000000	10.9363959312
2.8650000000	11.0468934501
2.8700000000	11.2162423297
2.8750000000	11.4403478906
2.8800000000	11.7138790394
2.8850000000	12.0298978734
2.8900000000	12.3800844419
2.8950000000	12.7549925509
2.9000000000	13.1446747023
2.9050000000	13.6145776671
2.9100000000	14.0666851659
2.9150000000	14.4866374362
2.9200000000	14.8592496766
2.9250000000	15.1672613216
2.9300000000	15.3947692326
2.9350000000	15.5172612887
2.9400000000	15.5240593322
2.9450000000	15.4105684661
2.9500000000	15.1833915815
2.9550000000	14.8599359920
2.9600000000	14.4653622146
2.9650000000	14.0282184680
2.9700000000	13.5761374492
2.9750000000	13.1327479567
2.9800000000	12.7161673845
2.9850000000	12.3387754804
2.9900000000	12.0080170078
2.9950000000	11.7274148490
3.0000000000	11.4977185658
