# energy (eV)    P(omega), $W$ = 300 nm, $h$ = 300 nm, $s$ = 20 nm, $d/W = 5$, $E_{\rm e}$ = 200 keV
0.2000000000	0.0790429373
0.2050000000	0.0801784181
0.2100000000	0.0812457426
0.2150000000	0.0822470419
0.2200000000	0.0831841536
0.2250000000	0.0840585967
0.2300000000	0.0848714874
0.2350000000	0.0856235229
0.2400000000	0.0863149026
0.2450000000	0.0869451573
0.2500000000	0.0875132449
0.2550000000	0.0880171625
0.2600000000	0.0884539836
0.2650000000	0.0888196281
0.2700000000	0.0891085036
0.2750000000	0.0893132886
0.2800000000	0.0894244931
0.2850000000	0.0894299832
0.2900000000	0.0893141694
0.2950000000	0.0890573946
0.3000000000	0.0886343451
0.3050000000	0.0880130414
0.3100000000	0.0871524281
0.3150000000	0.0918479271
0.3200000000	0.0974252903
0.3250000000	0.1044757289
0.3300000000	0.1139104140
0.3350000000	0.1256580136
0.3400000000	0.1410432811
0.3450000000	0.1597206067
0.3500000000	0.1841640071
0.3550000000	0.2165232969
0.3600000000	0.2588062684
0.3650000000	0.3177810151
0.3700000000	0.3956196644
0.3750000000	0.5039785153
0.3800000000	0.6608087417
0.3850000000	0.9053300047
0.3900000000	1.2919124021
0.3950000000	1.9490500617
0.4000000000	3.2026288801
0.4050000000	6.0149963927
0.4100000000	13.6943968493
0.4150000000	43.9852598248
0.4200000000	27.9977608092
0.4250000000	-52.8509004432
0.4300000000	14.7278087805
0.4350000000	9.1895267340
0.4400000000	5.6260627149
0.4450000000	3.7065493887
0.4500000000	2.6008100816
0.4550000000	1.9199348081
0.4600000000	1.4762320503
0.4650000000	1.1737186950
0.4700000000	0.9598100076
0.4750000000	0.8050567311
0.4800000000	0.6902957184
0.4850000000	0.6039401687
0.4900000000	0.5380378731
0.4950000000	0.4872481664
0.5000000000	0.4479216189
0.5050000000	0.4173774790
0.5100000000	0.3938930699
0.5150000000	0.3762008100
0.5200000000	0.3629679103
0.5250000000	0.3536007540
0.5300000000	0.3474569198
0.5350000000	0.3440678813
0.5400000000	0.3430888000
0.5450000000	0.3442317843
0.5500000000	0.3474110745
0.5550000000	0.3524660785
0.5600000000	0.3593185480
0.5650000000	0.3679354347
0.5700000000	0.3782887683
0.5750000000	0.3904526311
0.5800000000	0.4045474472
0.5850000000	0.4206523419
0.5900000000	0.4389178670
0.5950000000	0.4595307249
0.6000000000	0.4827284430
0.6050000000	0.5088515065
0.6100000000	0.5382279014
0.6150000000	0.5713027629
0.6200000000	0.6086702453
0.6250000000	0.6508992294
0.6300000000	0.6988305411
0.6350000000	0.7535122287
0.6400000000	0.8160352294
0.6450000000	0.8879734660
0.6500000000	0.9713970477
0.6550000000	1.0684613679
0.6600000000	1.1824778877
0.6650000000	1.3176989295
0.6700000000	1.4791237229
0.6750000000	1.6743726015
0.6800000000	1.9137056025
0.6850000000	2.2105534454
0.6900000000	2.5857349453
0.6950000000	3.0683572965
0.7000000000	3.7046845466
0.7050000000	4.5654401341
0.7100000000	5.7704936231
0.7150000000	7.5332534961
0.7200000000	10.2511068294
0.7250000000	14.7642340098
0.7300000000	23.0512585559
0.7350000000	40.7898917157
0.7400000000	89.4579797707
0.7450000000	296.9914832816
0.7500000000	920.7610867204
0.7550000000	231.8112283898
0.7600000000	76.8289724519
0.7650000000	36.8404730708
0.7700000000	21.4418868108
0.7750000000	14.0056184883
0.7800000000	9.8642691505
0.7850000000	7.3321648761
0.7900000000	5.6693785622
0.7950000000	4.5221800511
0.8000000000	3.6972195092
0.8050000000	3.0826003744
0.8100000000	2.6137591837
0.8150000000	2.2419553659
0.8200000000	1.9484259632
0.8250000000	1.7120132726
0.8300000000	1.5182896047
0.8350000000	1.3589781273
0.8400000000	1.2253974424
0.8450000000	1.1132816307
0.8500000000	1.0185036407
0.8550000000	0.9366913641
0.8600000000	0.8668497063
0.8650000000	0.8072071103
0.8700000000	0.7544921118
0.8750000000	0.7096738849
0.8800000000	0.6716789802
0.8850000000	0.6376108721
0.8900000000	0.6103548118
0.8950000000	0.5855572484
0.9000000000	0.5659833009
0.9050000000	0.5526521387
0.9100000000	0.5404427355
0.9150000000	0.5332196249
0.9200000000	0.5327905725
0.9250000000	0.5325646518
0.9300000000	0.5251172951
0.9350000000	0.5018000372
0.9400000000	0.3701754916
0.9450000000	-0.2296177821
0.9500000000	-3.3981275272
0.9550000000	-19.4808020587
0.9600000000	4.6013446388
0.9650000000	8.0873626003
0.9700000000	3.5894702318
0.9750000000	1.8852374586
0.9800000000	1.1817885865
0.9850000000	0.8526925060
0.9900000000	0.6629782076
0.9950000000	0.5479015355
1.0000000000	0.4744110901
1.0050000000	0.4278399150
1.0100000000	0.3916952245
1.0150000000	0.3652737875
1.0200000000	0.3474854220
1.0250000000	0.3325157713
1.0300000000	0.3211183247
1.0350000000	0.3124653332
1.0400000000	0.3069383194
1.0450000000	0.3022914024
1.0500000000	0.2991642498
1.0550000000	0.2973777732
1.0600000000	0.2973450938
1.0650000000	0.2979166813
1.0700000000	0.2995566875
1.0750000000	0.3022705528
1.0800000000	0.3063625111
1.0850000000	0.3115646552
1.0900000000	0.3193186551
1.0950000000	0.3285397954
1.1000000000	0.3395517655
1.1050000000	0.3522132187
1.1100000000	0.3669377026
1.1150000000	0.3840515423
1.1200000000	0.4039551328
1.1250000000	0.4271055247
1.1300000000	0.4541933484
1.1350000000	0.4860526626
1.1400000000	0.5236488703
1.1450000000	0.5686739992
1.1500000000	0.6230262601
1.1550000000	0.6894224396
1.1600000000	0.7716948167
1.1650000000	0.8748306484
1.1700000000	1.0080977098
1.1750000000	1.1838646508
1.1800000000	1.4225494937
1.1850000000	1.7576945531
1.1900000000	2.2526096354
1.1950000000	3.0286385251
1.2000000000	4.3438418129
1.2050000000	6.8279509559
1.2100000000	12.2912054524
1.2150000000	27.0601851802
1.2200000000	66.3675907763
1.2250000000	59.6858018678
1.2300000000	23.8788660097
1.2350000000	11.2585129776
1.2400000000	6.4806831312
1.2450000000	4.2910952774
1.2500000000	3.1407452852
1.2550000000	2.4822003976
1.2600000000	2.0875525067
1.2650000000	1.8473391635
1.2700000000	1.7131917011
1.2750000000	1.6539046036
1.2800000000	1.6553666292
1.2850000000	1.7124035635
1.2900000000	1.8265654807
1.2950000000	2.0043569844
1.3000000000	2.2662126148
1.3050000000	2.6387338005
1.3100000000	3.1700360130
1.3150000000	3.9430180755
1.3200000000	5.1061003919
1.3250000000	6.9427174883
1.3300000000	10.0715046712
1.3350000000	15.9288352476
1.3400000000	28.4467485330
1.3450000000	59.5295396424
1.3500000000	126.4615804973
1.3550000000	118.0201386082
1.3600000000	54.4454561614
1.3650000000	26.7549885582
1.3700000000	15.3436471997
1.3750000000	9.8664233415
1.3800000000	6.8798333957
1.3850000000	5.0810415009
1.3900000000	3.9223086260
1.3950000000	3.1322541548
1.4000000000	2.5712244056
1.4050000000	2.1604067452
1.4100000000	1.8525403539
1.4150000000	1.6202334304
1.4200000000	1.4455385122
1.4250000000	1.3285308290
1.4300000000	1.2856785274
1.4350000000	1.3095094779
1.4400000000	1.0085936107
1.4450000000	0.0869281687
1.4500000000	-1.4094320068
1.4550000000	-0.3952038509
1.4600000000	1.7066208889
1.4650000000	0.9239749767
1.4700000000	-0.8724491422
1.4750000000	-3.8184318480
1.4800000000	-1.6994444642
1.4850000000	2.7932248205
1.4900000000	2.2641985357
1.4950000000	1.4655529044
1.5000000000	1.0297249950
1.5050000000	0.7950467582
1.5100000000	0.6612870539
1.5150000000	0.5800546660
1.5200000000	0.5275797986
1.5250000000	0.4949754831
1.5300000000	0.4700694334
1.5350000000	0.4529017681
1.5400000000	0.4415932605
1.5450000000	0.4351356055
1.5500000000	0.4328778539
1.5550000000	0.4348365040
1.5600000000	0.4421710276
1.5650000000	0.4542860766
1.5700000000	0.4739027582
1.5750000000	0.5043401657
1.5800000000	0.5518303804
1.5850000000	0.6285045012
1.5900000000	0.7599208974
1.5950000000	1.0026382616
1.6000000000	1.4761250891
1.6050000000	2.2590165055
1.6100000000	2.6215921628
1.6150000000	1.9418871932
1.6200000000	1.3042498989
1.6250000000	0.9676670369
1.6300000000	0.7986697334
1.6350000000	0.7116651439
1.6400000000	0.6675669479
1.6450000000	0.6482086893
1.6500000000	0.6444932150
1.6550000000	0.6521589415
1.6600000000	0.6686625362
1.6650000000	0.6928426163
1.6700000000	0.7242576562
1.6750000000	0.7629103143
1.6800000000	0.8091461660
1.6850000000	0.8635012711
1.6900000000	0.9264496373
1.6950000000	0.9970972150
1.7000000000	1.0742586237
1.7050000000	1.1533375312
1.7100000000	1.2435736893
1.7150000000	1.4678131600
1.7200000000	1.8612320331
1.7250000000	2.2217062861
1.7300000000	2.6085730779
1.7350000000	3.0336576060
1.7400000000	3.4507588471
1.7450000000	3.9864983736
1.7500000000	4.7966742197
1.7550000000	6.0025406303
1.7600000000	7.8067421801
1.7650000000	10.5879351280
1.7700000000	15.0679488015
1.7750000000	22.6156060811
1.7800000000	35.4766625695
1.7850000000	54.4437097513
1.7900000000	67.6589170051
1.7950000000	57.6128656565
1.8000000000	38.3429639675
1.8050000000	24.2144546901
1.8100000000	15.9651648744
1.8150000000	11.1299323305
1.8200000000	8.1542647157
1.8250000000	6.2251299282
1.8300000000	4.9153145159
1.8350000000	3.9907924838
1.8400000000	3.3172348947
1.8450000000	2.8131551406
1.8500000000	2.4271987061
1.8550000000	2.1272317774
1.8600000000	1.8908381074
1.8650000000	1.7027831863
1.8700000000	1.5522318522
1.8750000000	1.4312293400
1.8800000000	1.3334657001
1.8850000000	1.2533652214
1.8900000000	1.1845029538
1.8950000000	1.1172913535
1.9000000000	1.0351747398
1.9050000000	0.8797264079
1.9100000000	0.6657866631
1.9150000000	0.5524491408
1.9200000000	1.3510975464
1.9250000000	3.5585321566
1.9300000000	5.3091789589
1.9350000000	5.2275282203
1.9400000000	4.1116011544
1.9450000000	3.0296765451
1.9500000000	2.2700408092
1.9550000000	1.7723033805
1.9600000000	1.4433826427
1.9650000000	1.2232307050
1.9700000000	1.0642980827
1.9750000000	0.9477944484
1.9800000000	0.8588487374
1.9850000000	0.7866716627
1.9900000000	0.7230073552
1.9950000000	0.6606505267
2.0000000000	0.5985507039
2.0050000000	0.5588777370
2.0100000000	0.5816092590
2.0150000000	0.6442281751
2.0200000000	0.6828401578
2.0250000000	0.6931001708
2.0300000000	0.6954143943
2.0350000000	0.6996214374
2.0400000000	0.7093772133
2.0450000000	0.7256139454
2.0500000000	0.7489365219
2.0550000000	0.7798942704
2.0600000000	0.8184876276
2.0650000000	0.8623787142
2.0700000000	0.9057696735
2.0750000000	0.9443154431
2.0800000000	0.9818497008
2.0850000000	1.0263009351
2.0900000000	1.0829836535
2.0950000000	1.1541357032
2.1000000000	1.2421641114
2.1050000000	1.3462715929
2.1100000000	1.4737749255
2.1150000000	1.6300227606
2.1200000000	1.8225161114
2.1250000000	2.0617763714
2.1300000000	2.3626345572
2.1350000000	2.7462648401
2.1400000000	3.2432420049
2.1450000000	3.8982666318
2.1500000000	4.7764690761
2.1550000000	5.9700265039
2.1600000000	7.5969112115
2.1650000000	9.7570310261
2.1700000000	12.4104200464
2.1750000000	15.0484473828
2.1800000000	16.6784314754
2.1850000000	16.7631684729
2.1900000000	16.0221334313
2.1950000000	15.4455096305
2.2000000000	15.1898273900
2.2050000000	14.4793965573
2.2100000000	12.9710268984
2.2150000000	11.1164529721
2.2200000000	9.4515637812
2.2250000000	8.0756239279
2.2300000000	6.8641289418
2.2350000000	5.7688446083
2.2400000000	4.8280825047
2.2450000000	4.0753613288
2.2500000000	3.4983329149
2.2550000000	3.0648559135
2.2600000000	2.7402842731
2.2650000000	2.4899015579
2.2700000000	2.2761809111
2.2750000000	2.0621520095
2.2800000000	1.8317382057
2.2850000000	1.6124968781
2.2900000000	1.4610037447
2.2950000000	1.4092804331
2.3000000000	1.4278086210
2.3050000000	1.4560805452
2.3100000000	1.4584687547
2.3150000000	1.4352631667
2.3200000000	1.4018862896
2.3250000000	1.3742676848
2.3300000000	1.3605582130
2.3350000000	1.3621585214
2.3400000000	1.3745044273
2.3450000000	1.3872655725
2.3500000000	1.3874339246
2.3550000000	1.3667104724
2.3600000000	1.3274438955
2.3650000000	1.2798973114
2.3700000000	1.2346495990
2.3750000000	1.1980188353
2.3800000000	1.1720570393
2.3850000000	1.1561829691
2.3900000000	1.1490722093
2.3950000000	1.1491908442
2.4000000000	1.1569568539
2.4050000000	1.1749276001
2.4100000000	1.2039604636
2.4150000000	1.2452422008
2.4200000000	1.2994861382
2.4250000000	1.3679403183
2.4300000000	1.4524247608
2.4350000000	1.5553809288
2.4400000000	1.6799593140
2.4450000000	1.8301825703
2.4500000000	2.0111259083
2.4550000000	2.2291684209
2.4600000000	2.4921476471
2.4650000000	2.8094671036
2.4700000000	3.1919116468
2.4750000000	3.6502844212
2.4800000000	4.1957427083
2.4850000000	4.8327034633
2.4900000000	5.5549412865
2.4950000000	6.3366102869
2.5000000000	7.1230499600
2.5050000000	7.8587292861
2.5100000000	8.3557294817
2.5150000000	8.5056655352
2.5200000000	8.2827104753
2.5250000000	7.7556881645
2.5300000000	7.0444967819
2.5350000000	6.2647716595
2.5400000000	5.4982053837
2.5450000000	4.7909539663
2.5500000000	4.1635415650
2.5550000000	3.6206400723
2.5600000000	3.1547849010
2.5650000000	2.7631184437
2.5700000000	2.4364197369
2.5750000000	2.1689164156
2.5800000000	1.9562967260
2.5850000000	1.7938734643
2.5900000000	1.6739374121
2.5950000000	1.5856500997
2.6000000000	1.5177263491
2.6050000000	1.4694540464
2.6100000000	1.4276563021
2.6150000000	1.3916705777
2.6200000000	1.3622078699
2.6250000000	1.3400558296
2.6300000000	1.3257404090
2.6350000000	1.3195299756
2.6400000000	1.3215803733
2.6450000000	1.3320366492
2.6500000000	1.3511826755
2.6550000000	1.3790979579
2.6600000000	1.4162109167
2.6650000000	1.4629543225
2.6700000000	1.5198598075
2.6750000000	1.5875716407
2.6800000000	1.6668038840
2.6850000000	1.7582870136
2.6900000000	1.8626194066
2.6950000000	1.9801481590
2.7000000000	2.1107543719
2.7050000000	2.2692926153
2.7100000000	2.4423160831
2.7150000000	2.6264559206
2.7200000000	2.8168122104
2.7250000000	3.0072292353
2.7300000000	3.1907608828
2.7350000000	3.3600708979
2.7400000000	3.5075292435
2.7450000000	3.6263627759
2.7500000000	3.7060653013
2.7550000000	3.7402763617
2.7600000000	3.7241697318
2.7650000000	3.6571839530
2.7700000000	3.5438084809
2.7750000000	3.3930384177
2.7800000000	3.2165983135
2.7850000000	3.0269263329
2.7900000000	2.8351825149
2.7950000000	2.6503161876
2.8000000000	2.4786553945
2.8050000000	2.3049748285
2.8100000000	2.1563268515
2.8150000000	2.0323127395
2.8200000000	1.9309362101
2.8250000000	1.8495661579
2.8300000000	1.7855521887
2.8350000000	1.7366260684
2.8400000000	1.7003999998
2.8450000000	1.6769571309
2.8500000000	1.6645621537
2.8550000000	1.6625538744
2.8600000000	1.6704385715
2.8650000000	1.6877714825
2.8700000000	1.7140551021
2.8750000000	1.7486582601
2.8800000000	1.7907534932
2.8850000000	1.8392646802
2.8900000000	1.8928982651
2.8950000000	1.9501912256
2.9000000000	2.0096050075
2.9050000000	2.0810031861
2.9100000000	2.1494975407
2.9150000000	2.2129334694
2.9200000000	2.2690496425
2.9250000000	2.3152802158
2.9300000000	2.3492625663
2.9350000000	2.3673226424
2.9400000000	2.3678746134
2.9450000000	2.3502429126
2.9500000000	2.3154448768
2.9550000000	2.2661253505
2.9600000000	2.2061019248
2.9650000000	2.1397002601
2.9700000000	2.0711032622
2.9750000000	2.0038856722
2.9800000000	1.9407865904
2.9850000000	1.8836748379
2.9900000000	1.8336744572
2.9950000000	1.7913131161
3.0000000000	1.7567018533
