# energy (eV)    P(omega), $W$ = 300 nm, $h$ = 300 nm, $s$ = 20 nm, $d/W = 5$, $E_{\rm e}$ = 200 keV
0.2000000000	0.1353570736
0.2050000000	0.1374183862
0.2100000000	0.1393339923
0.2150000000	0.1411087561
0.2200000000	0.1427470573
0.2250000000	0.1442525106
0.2300000000	0.1456280032
0.2350000000	0.1468755438
0.2400000000	0.1479961553
0.2450000000	0.1489896929
0.2500000000	0.1498547052
0.2550000000	0.1505880708
0.2600000000	0.1511849344
0.2650000000	0.1516380785
0.2700000000	0.1519376960
0.2750000000	0.1520706519
0.2800000000	0.1520198193
0.2850000000	0.1517630927
0.2900000000	0.1512721991
0.2950000000	0.1505111137
0.3000000000	0.1494338591
0.3050000000	0.1479818406
0.3100000000	0.1460800098
0.3150000000	0.1546826586
0.3200000000	0.1648989010
0.3250000000	0.1778293525
0.3300000000	0.1951620661
0.3350000000	0.2167304714
0.3400000000	0.2449736170
0.3450000000	0.2791994631
0.3500000000	0.3239540494
0.3550000000	0.3831417624
0.3600000000	0.4603632364
0.3650000000	0.5679628325
0.3700000000	0.7096974676
0.3750000000	0.9066989020
0.3800000000	1.1914036342
0.3850000000	1.6347390333
0.3900000000	2.3345549933
0.3950000000	3.5223527165
0.4000000000	5.7851046872
0.4050000000	10.8545679553
0.4100000000	24.6766843515
0.4150000000	79.1169486330
0.4200000000	50.4424806850
0.4250000000	-94.6837531235
0.4300000000	26.2776190180
0.4350000000	16.3537823756
0.4400000000	9.9822397066
0.4450000000	6.5550848800
0.4500000000	4.5835245723
0.4550000000	3.3710180435
0.4600000000	2.5817913589
0.4650000000	2.0442724198
0.4700000000	1.6645404618
0.4750000000	1.3900028647
0.4800000000	1.1864968869
0.4850000000	1.0333630984
0.4900000000	0.9164411693
0.4950000000	0.8262293594
0.5000000000	0.7562318065
0.5050000000	0.7016875187
0.5100000000	0.6595256085
0.5150000000	0.6274829917
0.5200000000	0.6032091526
0.5250000000	0.5856320953
0.5300000000	0.5736121086
0.5350000000	0.5663120465
0.5400000000	0.5631139044
0.5450000000	0.5635016630
0.5500000000	0.5673017992
0.5550000000	0.5742201975
0.5600000000	0.5841001237
0.5650000000	0.5968666807
0.5700000000	0.6124476298
0.5750000000	0.6309494513
0.5800000000	0.6525444317
0.5850000000	0.6773427367
0.5900000000	0.7055654171
0.5950000000	0.7374955364
0.6000000000	0.7734923093
0.6050000000	0.8140857660
0.6100000000	0.8597748571
0.6150000000	0.9112468040
0.6200000000	0.9694190538
0.6250000000	1.0351702200
0.6300000000	1.1098016726
0.6350000000	1.1949348528
0.6400000000	1.2922547358
0.6450000000	1.4041975971
0.6500000000	1.5339641503
0.6550000000	1.6848843638
0.6600000000	1.8620809026
0.6650000000	2.0721197008
0.6700000000	2.3227185844
0.6750000000	2.6256528802
0.6800000000	2.9967500389
0.6850000000	3.4567359238
0.6900000000	4.0377095120
0.6950000000	4.7845535686
0.7000000000	5.7685521638
0.7050000000	7.0986517281
0.7100000000	8.9594136536
0.7150000000	11.6793325760
0.7200000000	15.8697937806
0.7250000000	22.8229322068
0.7300000000	35.5803880230
0.7350000000	62.8664000021
0.7400000000	137.6671974556
0.7450000000	456.3465566082
0.7500000000	1412.6422109438
0.7550000000	355.0982312549
0.7600000000	117.5064935700
0.7650000000	56.2574206337
0.7700000000	32.6910772366
0.7750000000	21.3194105314
0.7800000000	14.9912875930
0.7850000000	11.1250505393
0.7900000000	8.5880490698
0.7950000000	6.8390005239
0.8000000000	5.5821404212
0.8050000000	4.6464067428
0.8100000000	3.9331174952
0.8150000000	3.3679269532
0.8200000000	2.9220085426
0.8250000000	2.5630762365
0.8300000000	2.2691567180
0.8350000000	2.0275604928
0.8400000000	1.8250915609
0.8450000000	1.6552327248
0.8500000000	1.5116708682
0.8550000000	1.3878196392
0.8600000000	1.2820968966
0.8650000000	1.1917792580
0.8700000000	1.1119986652
0.8750000000	1.0441023409
0.8800000000	0.9864461763
0.8850000000	0.9347592258
0.8900000000	0.8931964250
0.8950000000	0.8553898135
0.9000000000	0.8253141984
0.9050000000	0.8043913175
0.9100000000	0.7852033140
0.9150000000	0.7733017969
0.9200000000	0.7712419997
0.9250000000	0.7695729384
0.9300000000	0.7577639521
0.9350000000	0.7237318091
0.9400000000	0.5367324527
0.9450000000	-0.3108740400
0.9500000000	-4.7791222171
0.9550000000	-27.4251648413
0.9600000000	6.4683006070
0.9650000000	11.3530668400
0.9700000000	5.0331250319
0.9750000000	2.6419367868
0.9800000000	1.6560019190
0.9850000000	1.1950006348
0.9900000000	0.9295079205
0.9950000000	0.7685675230
1.0000000000	0.6658200476
1.0050000000	0.6006504021
1.0100000000	0.5501772334
1.0150000000	0.5133187050
1.0200000000	0.4884768286
1.0250000000	0.4676723120
1.0300000000	0.4518945646
1.0350000000	0.4399922300
1.0400000000	0.4324496778
1.0450000000	0.4262370600
1.0500000000	0.4222072084
1.0550000000	0.4201146084
1.0600000000	0.4205014861
1.0650000000	0.4218566490
1.0700000000	0.4248003652
1.0750000000	0.4293455649
1.0800000000	0.4359017306
1.0850000000	0.4442157968
1.0900000000	0.4564011404
1.0950000000	0.4708536132
1.1000000000	0.4880429327
1.1050000000	0.5078876098
1.1100000000	0.5309963059
1.1150000000	0.5578940025
1.1200000000	0.5891835827
1.1250000000	0.6257370754
1.1300000000	0.6686240672
1.1350000000	0.7192095876
1.1400000000	0.7790263081
1.1450000000	0.8509629980
1.1500000000	0.9380862693
1.1550000000	1.0448634924
1.1600000000	1.1775977918
1.1650000000	1.3444460158
1.1700000000	1.5607890667
1.1750000000	1.8469563313
1.1800000000	2.2365867918
1.1850000000	2.7849963508
1.1900000000	3.5963156912
1.1950000000	4.8707401205
1.2000000000	7.0331981076
1.2050000000	11.1204693076
1.2100000000	20.1116514952
1.2150000000	44.4082288855
1.2200000000	109.0022040346
1.2250000000	97.8384759573
1.2300000000	38.9383796828
1.2350000000	18.1927814855
1.2400000000	10.3335754763
1.2450000000	6.7209915315
1.2500000000	4.8102476342
1.2550000000	3.7017643680
1.2600000000	3.0206260213
1.2650000000	2.5863311571
1.2700000000	2.3173693601
1.2750000000	2.1607601342
1.2800000000	2.0904517137
1.2850000000	2.0939731693
1.2900000000	2.1681293989
1.2950000000	2.3161883810
1.3000000000	2.5580334289
1.3050000000	2.9188238252
1.3100000000	3.4470551071
1.3150000000	4.2270406444
1.3200000000	5.4109808440
1.3250000000	7.2885130459
1.3300000000	10.4960356660
1.3350000000	16.5070223795
1.3400000000	29.3552693029
1.3450000000	61.2439020973
1.3500000000	129.8364402239
1.3550000000	121.0094572319
1.3600000000	55.7827198700
1.3650000000	27.4052978368
1.3700000000	15.7179813087
1.3750000000	10.1102568851
1.3800000000	7.0528143000
1.3850000000	5.2108323423
1.3900000000	4.0231243423
1.3950000000	3.2123674546
1.4000000000	2.6348280856
1.4050000000	2.2095668263
1.4100000000	1.8871266648
1.4150000000	1.6372184720
1.4200000000	1.4373038588
1.4250000000	1.2771922458
1.4300000000	1.1476875209
1.4350000000	1.0160415174
1.4400000000	0.5991032660
1.4450000000	-0.4806908310
1.4500000000	-2.4559557349
1.4550000000	-0.8918924258
1.4600000000	2.2410903017
1.4650000000	1.3636863516
1.4700000000	-0.5822464865
1.4750000000	-3.5571215637
1.4800000000	-1.5505067031
1.4850000000	2.7921945964
1.4900000000	2.2589121000
1.4950000000	1.4718249582
1.5000000000	1.0410051424
1.5050000000	0.8069701552
1.5100000000	0.6727998242
1.5150000000	0.5902170256
1.5200000000	0.5358960415
1.5250000000	0.5013200815
1.5300000000	0.4738501587
1.5350000000	0.4537444453
1.5400000000	0.4390193165
1.5450000000	0.4284630311
1.5500000000	0.4212808058
1.5550000000	0.4170707230
1.5600000000	0.4165080899
1.5650000000	0.4180422538
1.5700000000	0.4230847559
1.5750000000	0.4325959516
1.5800000000	0.4485244574
1.5850000000	0.4747082093
1.5900000000	0.5192416306
1.5950000000	0.5999120376
1.6000000000	0.7537864601
1.6050000000	1.0028890244
1.6100000000	1.1133984317
1.6150000000	0.8993990888
1.6200000000	0.7059051343
1.6250000000	0.6099556866
1.6300000000	0.5680256836
1.6350000000	0.5530414455
1.6400000000	0.5528797116
1.6450000000	0.5620571164
1.6500000000	0.5779848006
1.6550000000	0.5995816215
1.6600000000	0.6264289215
1.6650000000	0.6585760229
1.6700000000	0.6963883148
1.6750000000	0.7405011747
1.6800000000	0.7918163222
1.6850000000	0.8515340796
1.6900000000	0.9211943255
1.6950000000	1.0022603899
1.7000000000	1.0978204800
1.7050000000	1.2135050059
1.7100000000	1.3559912385
1.7150000000	1.5583007859
1.7200000000	1.8386425660
1.7250000000	2.1784587073
1.7300000000	2.6052230227
1.7350000000	3.0612753965
1.7400000000	3.4639135270
1.7450000000	3.9646076581
1.7500000000	4.7413957946
1.7550000000	5.9139951036
1.7600000000	7.6772355416
1.7650000000	10.3991086432
1.7700000000	14.7835999396
1.7750000000	22.1659857144
1.7800000000	34.7331338329
1.7850000000	53.2370038633
1.7900000000	66.0672253406
1.7950000000	56.1683396749
1.8000000000	37.3130571870
1.8050000000	23.5137621510
1.8100000000	15.4647545392
1.8150000000	10.7499583344
1.8200000000	7.8493130897
1.8250000000	5.9686307038
1.8300000000	4.6908382709
1.8350000000	3.7875389137
1.8400000000	3.1276710890
1.8450000000	2.6315672510
1.8500000000	2.2489497429
1.8550000000	1.9482758918
1.8600000000	1.7072405396
1.8650000000	1.5104300206
1.8700000000	1.3464651559
1.8750000000	1.2064242632
1.8800000000	1.0824626076
1.8850000000	0.9666244193
1.8900000000	0.8487992633
1.8950000000	0.7136137512
1.9000000000	0.5351952695
1.9050000000	0.2315132392
1.9100000000	-0.2094535001
1.9150000000	-0.6843554236
1.9200000000	-0.4719040405
1.9250000000	0.9157880399
1.9300000000	2.0304364984
1.9350000000	2.1208757800
1.9400000000	1.7482643667
1.9450000000	1.3717794319
1.9500000000	1.1010784166
1.9550000000	0.9194581064
1.9600000000	0.7969218776
1.9650000000	0.7157961746
1.9700000000	0.6543626773
1.9750000000	0.6092755225
1.9800000000	0.5753155831
1.9850000000	0.5487959350
1.9900000000	0.5270892255
1.9950000000	0.5080671108
2.0000000000	0.4912163776
2.0050000000	0.4826294479
2.0100000000	0.4905056441
2.0150000000	0.5093375612
2.0200000000	0.5241594174
2.0250000000	0.5342625500
2.0300000000	0.5450480602
2.0350000000	0.5588460922
2.0400000000	0.5774342050
2.0450000000	0.6019692293
2.0500000000	0.6338417291
2.0550000000	0.6744619755
2.0600000000	0.7238972014
2.0650000000	0.7774517441
2.0700000000	0.8234763598
2.0750000000	0.8527189716
2.0800000000	0.8714962157
2.0850000000	0.8939157190
2.0900000000	0.9287111678
2.0950000000	0.9785522831
2.1000000000	1.0448756082
2.1050000000	1.1261646741
2.1100000000	1.2280909303
2.1150000000	1.3545917279
2.1200000000	1.5115104596
2.1250000000	1.7072469394
2.1300000000	1.9537779869
2.1350000000	2.2682818709
2.1400000000	2.6755890961
2.1450000000	3.2119940450
2.1500000000	3.9303309729
2.1550000000	4.9052765595
2.1600000000	6.2323096072
2.1650000000	7.9921736872
2.1700000000	10.1542851577
2.1750000000	12.3120958289
2.1800000000	13.6764150513
2.1850000000	13.8300104189
2.1900000000	13.3603535140
2.1950000000	13.0485495186
2.2000000000	12.9587614137
2.2050000000	12.3355520319
2.2100000000	10.8622107386
2.2150000000	8.9907404698
2.2200000000	7.2784047384
2.2250000000	5.9069180250
2.2300000000	4.8274258151
2.2350000000	3.9699988589
2.2400000000	3.2897155332
2.2450000000	2.7587382764
2.2500000000	2.3446398377
2.2550000000	2.0179230770
2.2600000000	1.7539653286
2.2650000000	1.5322792603
2.2700000000	1.3356501725
2.2750000000	1.1519945538
2.2800000000	0.9821651539
2.2850000000	0.8474822643
2.2900000000	0.7795284897
2.2950000000	0.7891908834
2.3000000000	0.8453171803
2.3050000000	0.9001694969
2.3100000000	0.9238444939
2.3150000000	0.9178598773
2.3200000000	0.8953079860
2.3250000000	0.8695544539
2.3300000000	0.8478220195
2.3350000000	0.8326139142
2.3400000000	0.8234113933
2.3450000000	0.8175345568
2.3500000000	0.8114055176
2.3550000000	0.8027363079
2.3600000000	0.7921614988
2.3650000000	0.7824562752
2.3700000000	0.7763718938
2.3750000000	0.7752529448
2.3800000000	0.7788715741
2.3850000000	0.7858487467
2.3900000000	0.7946481511
2.3950000000	0.8039557912
2.4000000000	0.8145558879
2.4050000000	0.8293702243
2.4100000000	0.8498838769
2.4150000000	0.8779801271
2.4200000000	0.9149399378
2.4250000000	0.9619287603
2.4300000000	1.0202538947
2.4350000000	1.0915539955
2.4400000000	1.1779374286
2.4450000000	1.2821242507
2.4500000000	1.4075762792
2.4550000000	1.5586731663
2.4600000000	1.7408230380
2.4650000000	1.9605696153
2.4700000000	2.2254926965
2.4750000000	2.5433079028
2.4800000000	2.9223607670
2.4850000000	3.3664038058
2.4900000000	3.8717615513
2.4950000000	4.4201552026
2.5000000000	4.9709774459
2.5050000000	5.4800694470
2.5100000000	5.8089582541
2.5150000000	5.8809657555
2.5200000000	5.6861763693
2.5250000000	5.2855356053
2.5300000000	4.7717655869
2.5350000000	4.2261977467
2.5400000000	3.7003474950
2.5450000000	3.2196764150
2.5500000000	2.7936991118
2.5550000000	2.4236245645
2.5600000000	2.1040837026
2.5650000000	1.8343758901
2.5700000000	1.6091196186
2.5750000000	1.4251294582
2.5800000000	1.2799176309
2.5850000000	1.1704022328
2.5900000000	1.0910196450
2.5950000000	1.0337155753
2.6000000000	0.9900657949
2.6050000000	0.9589340639
2.6100000000	0.9309808268
2.6150000000	0.9058623272
2.6200000000	0.8842062729
2.6250000000	0.8666298239
2.6300000000	0.8535056685
2.6350000000	0.8449953923
2.6400000000	0.8411837837
2.6450000000	0.8421665643
2.6500000000	0.8481493061
2.6550000000	0.8591665640
2.6600000000	0.8755073215
2.6650000000	0.8974268825
2.6700000000	0.9252260701
2.6750000000	0.9592618105
2.6800000000	0.9999313552
2.6850000000	1.0476685609
2.6900000000	1.1028926687
2.6950000000	1.1659836572
2.7000000000	1.2372047188
2.7050000000	1.3251316668
2.7100000000	1.4236796481
2.7150000000	1.5321719151
2.7200000000	1.6491460100
2.7250000000	1.7721658493
2.7300000000	1.8976488832
2.7350000000	2.0207144646
2.7400000000	2.1351046602
2.7450000000	2.2342132471
2.7500000000	2.3084504586
2.7550000000	2.3512291670
2.7600000000	2.3576021747
2.7650000000	2.3262969219
2.7700000000	2.2601645716
2.7750000000	2.1656023367
2.7800000000	2.0510946370
2.7850000000	1.9256674950
2.7900000000	1.7973841915
2.7950000000	1.6727004766
2.8000000000	1.5561698990
2.8050000000	1.4376758024
2.8100000000	1.3353869936
2.8150000000	1.2490701755
2.8200000000	1.1773685994
2.8250000000	1.1184790498
2.8300000000	1.0705926273
2.8350000000	1.0321676756
2.8400000000	1.0015653082
2.8450000000	0.9788959244
2.8500000000	0.9629584661
2.8550000000	0.9533054072
2.8600000000	0.9496201422
2.8650000000	0.9516525414
2.8700000000	0.9591799051
2.8750000000	0.9719743640
2.8800000000	0.9897722742
2.8850000000	1.0122458265
2.8900000000	1.0389914281
2.8950000000	1.0695161581
2.9000000000	1.1032353825
2.9050000000	1.1475287501
2.9100000000	1.1930034791
2.9150000000	1.2379059317
2.9200000000	1.2801273620
2.9250000000	1.3172227366
2.9300000000	1.3468940559
2.9350000000	1.3660819196
2.9400000000	1.3732538725
2.9450000000	1.3676251824
2.9500000000	1.3496578074
2.9550000000	1.3209909038
2.9600000000	1.2841210885
2.9650000000	1.2419446762
2.9700000000	1.1973037959
2.9750000000	1.1526644547
2.9800000000	1.1099391716
2.9850000000	1.0704621414
2.9900000000	1.0350543890
2.9950000000	1.0041341487
3.0000000000	0.9778362636
