# energy (eV)    P(omega), $W$ = 400 nm, $h$ = 300 nm, $s$ = 20 nm, $d/W = 5$, $E_{\rm e}$ = 200 keV
0.2000000000	0.3010356117
0.2050000000	0.3037843891
0.2100000000	0.3057162381
0.2150000000	0.3067985343
0.2200000000	0.3069858093
0.2250000000	0.3062162635
0.2300000000	0.3044083703
0.2350000000	0.3014560934
0.2400000000	0.2972229056
0.2450000000	0.2915329423
0.2500000000	0.2841612619
0.2550000000	0.2748184715
0.2600000000	0.2631315037
0.2650000000	0.2753552490
0.2700000000	0.3064150190
0.2750000000	0.3508567966
0.2800000000	0.4127705730
0.2850000000	0.5040400413
0.2900000000	0.6171133306
0.2950000000	0.7791993210
0.3000000000	0.9970647476
0.3050000000	1.3309758625
0.3100000000	1.7960540874
0.3150000000	2.6959291123
0.3200000000	4.1012234443
0.3250000000	5.0630205700
0.3300000000	6.3934012438
0.3350000000	8.2792667231
0.3400000000	11.2395520539
0.3450000000	16.3182028970
0.3500000000	26.4450060936
0.3550000000	49.8860102185
0.3600000000	122.5906255761
0.3650000000	0.5699326535
0.3700000000	56.7992490734
0.3750000000	74.6847877144
0.3800000000	34.7959499173
0.3850000000	19.5980416737
0.3900000000	12.5684611638
0.3950000000	8.8552894184
0.4000000000	6.7054295969
0.4050000000	5.3039199925
0.4100000000	4.3915025882
0.4150000000	3.7896777136
0.4200000000	3.4092370150
0.4250000000	3.1104306222
0.4300000000	2.7575002220
0.4350000000	2.4781758053
0.4400000000	2.2572544513
0.4450000000	2.0815844493
0.4500000000	1.9428771256
0.4550000000	1.8328661414
0.4600000000	1.7470242566
0.4650000000	1.6805625487
0.4700000000	1.6303130552
0.4750000000	1.5940561895
0.4800000000	1.5698569334
0.4850000000	1.5560170943
0.4900000000	1.5515332594
0.4950000000	1.5556324271
0.5000000000	1.5676527650
0.5050000000	1.5872992199
0.5100000000	1.6143289867
0.5150000000	1.6485967155
0.5200000000	1.6901720068
0.5250000000	1.7391109124
0.5300000000	1.7961323278
0.5350000000	1.8615535388
0.5400000000	1.9359494904
0.5450000000	2.0200747373
0.5500000000	2.1149960176
0.5550000000	2.2218818721
0.5600000000	2.3421535121
0.5650000000	2.4776391603
0.5700000000	2.6308623763
0.5750000000	2.8036942992
0.5800000000	2.9996346255
0.5850000000	3.2234675460
0.5900000000	3.4784165927
0.5950000000	3.7712706691
0.6000000000	4.1110003742
0.6050000000	4.5043213760
0.6100000000	4.9666464899
0.6150000000	5.5107480385
0.6200000000	6.1585583299
0.6250000000	6.9415447957
0.6300000000	7.8917878936
0.6350000000	9.0695904494
0.6400000000	10.5414614487
0.6450000000	12.4281167026
0.6500000000	14.8837308042
0.6550000000	18.1694759554
0.6600000000	22.7263413531
0.6650000000	29.2509818919
0.6700000000	39.1304837153
0.6750000000	55.0146109528
0.6800000000	83.0917097104
0.6850000000	139.4280339105
0.6900000000	279.4150543063
0.6950000000	784.2999888784
0.7000000000	3803.6295626568
0.7050000000	1849.0843540236
0.7100000000	474.9539135723
0.7150000000	201.9611769108
0.7200000000	110.2847554364
0.7250000000	69.2729469603
0.7300000000	47.5077861565
0.7350000000	34.6417953575
0.7400000000	26.4031878859
0.7450000000	20.8113547780
0.7500000000	16.8503452791
0.7550000000	13.9404092800
0.7600000000	11.7471947055
0.7650000000	10.0464450649
0.7700000000	8.7039214038
0.7750000000	7.6261522208
0.7800000000	6.7503438656
0.7850000000	6.0292241068
0.7900000000	5.4251081331
0.7950000000	4.9205666393
0.8000000000	4.4915759525
0.8050000000	4.1240460226
0.8100000000	3.8111652518
0.8150000000	3.5369412399
0.8200000000	3.2981989520
0.8250000000	3.0978372549
0.8300000000	2.9224468137
0.8350000000	2.7699608258
0.8400000000	2.6484928887
0.8450000000	2.5424900783
0.8500000000	2.4525886469
0.8550000000	2.3956769532
0.8600000000	2.3500483236
0.8650000000	2.3173162177
0.8700000000	2.3283775874
0.8750000000	2.3321005839
0.8800000000	2.3193369845
0.8850000000	2.2183507763
0.8900000000	1.7216533380
0.8950000000	-0.7667056665
0.9000000000	-14.1082775785
0.9050000000	-92.7014184382
0.9100000000	17.6485020254
0.9150000000	41.8063730431
0.9200000000	17.3529680546
0.9250000000	9.0266677977
0.9300000000	5.5096152754
0.9350000000	3.8293602804
0.9400000000	2.9229627626
0.9450000000	2.4205421683
0.9500000000	2.0637762663
0.9550000000	1.8249724817
0.9600000000	1.6772831350
0.9650000000	1.5554635941
0.9700000000	1.4685803646
0.9750000000	1.4094276282
0.9800000000	1.3735159422
0.9850000000	1.3671431447
0.9900000000	1.3806994487
0.9950000000	1.4344789521
1.0000000000	1.5626173966
1.0050000000	1.8613200973
1.0100000000	2.6435044322
1.0150000000	5.3217030894
1.0200000000	10.2148269736
1.0250000000	4.6333853957
1.0300000000	2.3674965424
1.0350000000	1.6927192429
1.0400000000	1.4275039073
1.0450000000	1.3030962898
1.0500000000	1.2406966480
1.0550000000	1.2078947857
1.0600000000	1.1930788263
1.0650000000	1.1901578921
1.0700000000	1.1957545219
1.0750000000	1.2086822364
1.0800000000	1.2265767873
1.0850000000	1.2509828504
1.0900000000	1.2863082022
1.0950000000	1.3275101082
1.1000000000	1.3749988232
1.1050000000	1.4288437532
1.1100000000	1.4899072325
1.1150000000	1.5589997420
1.1200000000	1.6370885668
1.1250000000	1.7249826627
1.1300000000	1.8249455943
1.1350000000	1.9385287819
1.1400000000	2.0680317277
1.1450000000	2.2163953256
1.1500000000	2.3859321056
1.1550000000	2.5837508193
1.1600000000	2.8144516556
1.1650000000	3.0842425004
1.1700000000	3.3953516705
1.1750000000	3.7167562062
1.1800000000	4.0328850289
1.1850000000	5.5461726617
1.1900000000	6.8920160339
1.1950000000	9.4804995491
1.2000000000	12.9345742697
1.2050000000	11.3231487525
1.2100000000	10.8151084868
1.2150000000	12.0297907435
1.2200000000	14.3821345680
1.2250000000	17.9982867101
1.2300000000	23.4984147439
1.2350000000	32.1997099743
1.2400000000	46.8571413244
1.2450000000	74.4565032417
1.2500000000	134.2267877872
1.2550000000	290.5401342438
1.2600000000	701.7265589314
1.2650000000	710.7636848339
1.2700000000	295.6367775611
1.2750000000	136.4520137863
1.2800000000	75.5602851301
1.2850000000	47.5098981222
1.2900000000	32.5579592076
1.2950000000	23.7236217373
1.3000000000	18.0962017247
1.3050000000	14.3067857046
1.3100000000	11.6339923065
1.3150000000	9.7019457323
1.3200000000	8.2686665612
1.3250000000	7.1886812719
1.3300000000	6.3734535332
1.3350000000	5.7683765438
1.3400000000	5.3445646151
1.3450000000	5.0929615503
1.3500000000	5.0460912695
1.3550000000	5.2787582712
1.3600000000	5.9830613413
1.3650000000	7.6490846060
1.3700000000	11.6461997853
1.3750000000	21.6086918835
1.3800000000	35.2213169941
1.3850000000	24.6291111562
1.3900000000	12.5894827603
1.3950000000	7.3316682119
1.4000000000	4.8157426941
1.4050000000	3.2578795825
1.4100000000	1.8290473633
1.4150000000	-0.3302526369
1.4200000000	-5.1954072994
1.4250000000	-18.1111553306
1.4300000000	-24.3300805776
1.4350000000	11.1057282866
1.4400000000	14.2156967639
1.4450000000	8.5165028211
1.4500000000	5.2946248031
1.4550000000	3.6478862633
1.4600000000	2.6958440669
1.4650000000	1.9524720935
1.4700000000	1.1700846015
1.4750000000	1.3485308065
1.4800000000	1.9323371614
1.4850000000	1.7559594976
1.4900000000	1.5586093598
1.4950000000	1.4305581171
1.5000000000	1.3461702977
1.5050000000	1.2903471295
1.5100000000	1.2524131833
1.5150000000	1.2319684135
1.5200000000	1.2170407345
1.5250000000	1.2121570271
1.5300000000	1.2179514993
1.5350000000	1.2368426711
1.5400000000	1.2747222927
1.5450000000	1.3446288403
1.5500000000	1.4758403329
1.5550000000	1.7267184848
1.5600000000	2.1035379503
1.5650000000	2.1633468353
1.5700000000	1.8213674690
1.5750000000	1.5805411675
1.5800000000	1.4753724035
1.5850000000	1.4406099790
1.5900000000	1.4421975273
1.5950000000	1.4653208029
1.6000000000	1.5034978134
1.6050000000	1.5544381351
1.6100000000	1.6164572226
1.6150000000	1.6892541184
1.6200000000	1.7739626415
1.6250000000	1.8715572696
1.6300000000	1.9836704360
1.6350000000	2.1124184818
1.6400000000	2.2605116163
1.6450000000	2.4314154374
1.6500000000	2.6294820283
1.6550000000	2.8602257723
1.6600000000	3.1307942194
1.6650000000	3.4504099879
1.6700000000	3.8280086189
1.6750000000	4.2856370129
1.6800000000	4.8426991071
1.6850000000	5.5297435806
1.6900000000	6.3901234231
1.6950000000	7.4874049382
1.7000000000	8.9171833769
1.7050000000	10.8882465360
1.7100000000	13.6357620572
1.7150000000	17.6248403425
1.7200000000	23.6962417866
1.7250000000	33.3167642857
1.7300000000	48.1066994899
1.7350000000	67.2106998500
1.7400000000	91.6166545418
1.7450000000	134.4042549743
1.7500000000	189.8263410413
1.7550000000	192.9309451427
1.7600000000	135.3368373928
1.7650000000	84.2776212860
1.7700000000	54.0033460266
1.7750000000	36.7876876869
1.7800000000	26.6106888651
1.7850000000	20.3437772005
1.7900000000	16.4447554103
1.7950000000	14.1905099111
1.8000000000	13.2387193754
1.8050000000	12.8954334648
1.8100000000	11.4566254413
1.8150000000	8.9003218845
1.8200000000	6.8586036187
1.8250000000	5.7968201854
1.8300000000	5.0498248736
1.8350000000	4.3871534005
1.8400000000	3.8463735875
1.8450000000	3.4164024813
1.8500000000	3.0692040868
1.8550000000	2.7818587735
1.8600000000	2.5168911467
1.8650000000	2.2925774625
1.8700000000	2.0653186931
1.8750000000	1.7368650040
1.8800000000	0.9874209774
1.8850000000	-0.6550801139
1.8900000000	-2.8639451062
1.8950000000	-3.2413536927
1.9000000000	0.3374978121
1.9050000000	3.6729507474
1.9100000000	4.0619820766
1.9150000000	3.4304498862
1.9200000000	2.8116437291
1.9250000000	2.3726855063
1.9300000000	2.1070577131
1.9350000000	1.9044848368
1.9400000000	1.7700924446
1.9450000000	1.6815234172
1.9500000000	1.6196323909
1.9550000000	1.5670865439
1.9600000000	1.5210079783
1.9650000000	1.4880446195
1.9700000000	1.4703432112
1.9750000000	1.4667794094
1.9800000000	1.4764307524
1.9850000000	1.4996434997
1.9900000000	1.5380550784
1.9950000000	1.5936926680
2.0000000000	1.6650067659
2.0050000000	1.7448846902
2.0100000000	1.7997056358
2.0150000000	1.8328043248
2.0200000000	1.8726973585
2.0250000000	1.9374583700
2.0300000000	2.0320953827
2.0350000000	2.1587544651
2.0400000000	2.3215611296
2.0450000000	2.5279439715
2.0500000000	2.7886924445
2.0550000000	3.1157546764
2.0600000000	3.5146649047
2.0650000000	3.9785995564
2.0700000000	4.5139598279
2.0750000000	5.1803943752
2.0800000000	6.0766393989
2.0850000000	7.2986718101
2.0900000000	8.9023584956
2.0950000000	10.7732496031
2.1000000000	12.4440985023
2.1050000000	13.2627371359
2.1100000000	12.8997512380
2.1150000000	12.0451651837
2.1200000000	11.4548287416
2.1250000000	11.4679475810
2.1300000000	12.1880263871
2.1350000000	13.6995517387
2.1400000000	16.1689111002
2.1450000000	19.8876087067
2.1500000000	25.2616613835
2.1550000000	32.5943687602
2.1600000000	41.2940856642
2.1650000000	48.6028704344
2.1700000000	50.3276357469
2.1750000000	45.0483470885
2.1800000000	36.3661402349
2.1850000000	28.0569569666
2.1900000000	21.5622210175
2.1950000000	16.8720681637
2.2000000000	13.5840551950
2.2050000000	11.3185028861
2.2100000000	9.7478326609
2.2150000000	8.5423784276
2.2200000000	7.4581950292
2.2250000000	6.4230315188
2.2300000000	5.4839627231
2.2350000000	4.6773407506
2.2400000000	3.9944776572
2.2450000000	3.4053339266
2.2500000000	2.8797935133
2.2550000000	2.4008198242
2.2600000000	1.9218771291
2.2650000000	1.5727773639
2.2700000000	1.3822624098
2.2750000000	1.4281725171
2.2800000000	1.7009499173
2.2850000000	2.0487421539
2.2900000000	2.3028844701
2.2950000000	2.4146054857
2.3000000000	2.4258941194
2.3050000000	2.3850333268
2.3100000000	2.3318200746
2.3150000000	2.2846669103
2.3200000000	2.2508359756
2.3250000000	2.2341504762
2.3300000000	2.2375738265
2.3350000000	2.2635340273
2.3400000000	2.3141322575
2.3450000000	2.3915368149
2.3500000000	2.4980753595
2.3550000000	2.6373017868
2.3600000000	2.8068419046
2.3650000000	3.0077963162
2.3700000000	3.2396091420
2.3750000000	3.5048025274
2.3800000000	3.8129338051
2.3850000000	4.1753522661
2.3900000000	4.5945990946
2.3950000000	5.0521296416
2.4000000000	5.5002030798
2.4050000000	5.8873943020
2.4100000000	6.1039999866
2.4150000000	6.1287082620
2.4200000000	6.0135681062
2.4250000000	5.8474181964
2.4300000000	5.7091869740
2.4350000000	5.6466533220
2.4400000000	5.6790431456
2.4450000000	5.8097268047
2.4500000000	6.0394632493
2.4550000000	6.3735973341
2.4600000000	6.8332173395
2.4650000000	7.4399040204
2.4700000000	8.2174904036
2.4750000000	9.1807241987
2.4800000000	10.3217743152
2.4850000000	11.5918908527
2.4900000000	12.8799695304
2.4950000000	14.0018759727
2.5000000000	14.7273785286
2.5050000000	14.8194066466
2.5100000000	14.1836313707
2.5150000000	12.9935048429
2.5200000000	11.5257773213
2.5250000000	10.0234774160
2.5300000000	8.6346625657
2.5350000000	7.4215116863
2.5400000000	6.3931112670
2.5450000000	5.5341435142
2.5500000000	4.8224649469
2.5550000000	4.2381717408
2.5600000000	3.7494284868
2.5650000000	3.3833554327
2.5700000000	3.1199234555
2.5750000000	2.9497432331
2.5800000000	2.8540478914
2.5850000000	2.8072037890
2.5900000000	2.7851709688
2.5950000000	2.7729893486
2.6000000000	2.7658246385
2.6050000000	2.7856893403
2.6100000000	2.8182868064
2.6150000000	2.8689245888
2.6200000000	2.9404200673
2.6250000000	3.0329617234
2.6300000000	3.1439235177
2.6350000000	3.2677232228
2.6400000000	3.3958287821
2.6450000000	3.5174259707
2.6500000000	3.6210640649
2.6550000000	3.6973560025
2.6600000000	3.7419459677
2.6650000000	3.7574132231
2.6700000000	3.7527332609
2.6750000000	3.7410295755
2.6800000000	3.7350203676
2.6850000000	3.7466063813
2.6900000000	3.7840911134
2.6950000000	3.8525928078
2.7000000000	3.9545810082
2.7050000000	4.1058849642
2.7100000000	4.2994972480
2.7150000000	4.5323542422
2.7200000000	4.7980850289
2.7250000000	5.0858490373
2.7300000000	5.3792613327
2.7350000000	5.6562221550
2.7400000000	5.8904400283
2.7450000000	6.0552406504
2.7500000000	6.1291224123
2.7550000000	6.1012597082
2.7600000000	5.9744773424
2.7650000000	5.7641898011
2.7700000000	5.4939645307
2.7750000000	5.1899046407
2.7800000000	4.8759453889
2.7850000000	4.5712153818
2.7900000000	4.2868086554
2.7950000000	4.0348580148
2.8000000000	3.8178780985
2.8050000000	3.6166360099
2.8100000000	3.4576472236
2.8150000000	3.3347408521
2.8200000000	3.2412167407
2.8250000000	3.1709310814
2.8300000000	3.1186683573
2.8350000000	3.0801104486
2.8400000000	3.0516150173
2.8450000000	3.0300950577
2.8500000000	3.0130714101
2.8550000000	2.9988964555
2.8600000000	2.9869983890
2.8650000000	2.9779653376
2.8700000000	2.9733879006
2.8750000000	2.9754611841
2.8800000000	2.9864954097
2.8850000000	3.0084708163
2.8900000000	3.0427314629
2.8950000000	3.0897935223
2.9000000000	3.1492527320
2.9050000000	3.2378159606
2.9100000000	3.3346739690
2.9150000000	3.4334012450
2.9200000000	3.5258752661
2.9250000000	3.6033785858
2.9300000000	3.6578202285
2.9350000000	3.6831592008
2.9400000000	3.6765759536
2.9450000000	3.6390140489
2.9500000000	3.5748329491
2.9550000000	3.4907076995
2.9600000000	3.3942189978
2.9650000000	3.2925492027
2.9700000000	3.1916051552
2.9750000000	3.0956370763
2.9800000000	3.0072660010
2.9850000000	2.9277630006
2.9900000000	2.8574301054
2.9950000000	2.7959667993
3.0000000000	2.7427714832
