# energy (eV)    P(omega), $W$ = 400 nm, $h$ = 300 nm, $s$ = 20 nm, $d/W = 5$, $E_{\rm e}$ = 200 keV
0.2000000000	0.0555180768
0.2050000000	0.0560230882
0.2100000000	0.0563786170
0.2150000000	0.0565786759
0.2200000000	0.0566148918
0.2250000000	0.0564758896
0.2300000000	0.0561467008
0.2350000000	0.0556078363
0.2400000000	0.0548342310
0.2450000000	0.0537935820
0.2500000000	0.0524445885
0.2550000000	0.0507341092
0.2600000000	0.0485936629
0.2650000000	0.0508361853
0.2700000000	0.0565326583
0.2750000000	0.0646841233
0.2800000000	0.0760413983
0.2850000000	0.0927849615
0.2900000000	0.1135313453
0.2950000000	0.1432729685
0.3000000000	0.1832540869
0.3050000000	0.2445354780
0.3100000000	0.3298983001
0.3150000000	0.4950714019
0.3200000000	0.7530389718
0.3250000000	0.9296527954
0.3300000000	1.1739662695
0.3350000000	1.5203150355
0.3400000000	2.0640119887
0.3450000000	2.9968204347
0.3500000000	4.8569192696
0.3550000000	9.1628107255
0.3600000000	22.5186792737
0.3650000000	0.1018067652
0.3700000000	10.4365396222
0.3750000000	13.7236180147
0.3800000000	6.3947130847
0.3850000000	3.6021881083
0.3900000000	2.3104771010
0.3950000000	1.6281393719
0.4000000000	1.2330666153
0.4050000000	0.9755071186
0.4100000000	0.8078302013
0.4150000000	0.6972378668
0.4200000000	0.6273409681
0.4250000000	0.5724457584
0.4300000000	0.5075799665
0.4350000000	0.4562425159
0.4400000000	0.4156402956
0.4450000000	0.3833566797
0.4500000000	0.3578688510
0.4550000000	0.3376576152
0.4600000000	0.3218910606
0.4650000000	0.3096893100
0.4700000000	0.3004698688
0.4750000000	0.2938251819
0.4800000000	0.2893995982
0.4850000000	0.2868812715
0.4900000000	0.2860857807
0.4950000000	0.2868712402
0.5000000000	0.2891164119
0.5050000000	0.2927672525
0.5100000000	0.2977794881
0.5150000000	0.3041268003
0.5200000000	0.3118223358
0.5250000000	0.3208768712
0.5300000000	0.3314233397
0.5350000000	0.3435208264
0.5400000000	0.3572757420
0.5450000000	0.3728276374
0.5500000000	0.3903739538
0.5550000000	0.4101306634
0.5600000000	0.4323606378
0.5650000000	0.4574019088
0.5700000000	0.4857211113
0.5750000000	0.5176640936
0.5800000000	0.5538779855
0.5850000000	0.5952469821
0.5900000000	0.6423674685
0.5950000000	0.6964944243
0.6000000000	0.7592858364
0.6050000000	0.8319843074
0.6100000000	0.9174383925
0.6150000000	1.0180102461
0.6200000000	1.1377548394
0.6250000000	1.2824896920
0.6300000000	1.4581476203
0.6350000000	1.6758770105
0.6400000000	1.9479774030
0.6450000000	2.2967681804
0.6500000000	2.7507599051
0.6550000000	3.3582467048
0.6600000000	4.2007722805
0.6650000000	5.4071682249
0.6700000000	7.2339371252
0.6750000000	10.1711016554
0.6800000000	15.3630860821
0.6850000000	25.7811237693
0.6900000000	51.6693517769
0.6950000000	145.0431901361
0.7000000000	703.4698462340
0.7050000000	342.0083188952
0.7100000000	87.8545856281
0.7150000000	37.3606458000
0.7200000000	20.4030906179
0.7250000000	12.8167669206
0.7300000000	8.7905171178
0.7350000000	6.4104033238
0.7400000000	4.8862666583
0.7450000000	3.8517440985
0.7500000000	3.1189085580
0.7550000000	2.5805161844
0.7600000000	2.1747182102
0.7650000000	1.8600280130
0.7700000000	1.6116126015
0.7750000000	1.4121817021
0.7800000000	1.2501175633
0.7850000000	1.1166744703
0.7900000000	1.0048802442
0.7950000000	0.9115115898
0.8000000000	0.8321231186
0.8050000000	0.7641075955
0.8100000000	0.7062060001
0.8150000000	0.6554577255
0.8200000000	0.6112759542
0.8250000000	0.5741996744
0.8300000000	0.5417456450
0.8350000000	0.5135315609
0.8400000000	0.4910630859
0.8450000000	0.4714580994
0.8500000000	0.4548350790
0.8550000000	0.4443274230
0.8600000000	0.4359104513
0.8650000000	0.4298835843
0.8700000000	0.4319801210
0.8750000000	0.4327137233
0.8800000000	0.4303837359
0.8850000000	0.4116702924
0.8900000000	0.3194732631
0.8950000000	-0.1425697113
0.9000000000	-2.6201624188
0.9050000000	-17.2164571921
0.9100000000	3.2783525713
0.9150000000	7.7657846235
0.9200000000	3.2237263969
0.9250000000	1.6770775581
0.9300000000	1.0237308231
0.9350000000	0.7115839570
0.9400000000	0.5431946100
0.9450000000	0.4498578752
0.9500000000	0.3835744183
0.9550000000	0.3392057042
0.9600000000	0.3117664460
0.9650000000	0.2891269077
0.9700000000	0.2729736046
0.9750000000	0.2619669077
0.9800000000	0.2552691802
0.9850000000	0.2540483852
0.9900000000	0.2565053522
0.9950000000	0.2663960698
1.0000000000	0.2900303127
1.0050000000	0.3451990917
1.0100000000	0.4897753041
1.0150000000	0.9852717064
1.0200000000	1.8923849447
1.0250000000	0.8601544715
1.0300000000	0.4404201666
1.0350000000	0.3153197805
1.0400000000	0.2661237478
1.0450000000	0.2430428618
1.0500000000	0.2314704829
1.0550000000	0.2253966910
1.0600000000	0.2226667503
1.0650000000	0.2221498979
1.0700000000	0.2232192237
1.0750000000	0.2256537677
1.0800000000	0.2290160828
1.0850000000	0.2335936966
1.0900000000	0.2402100519
1.0950000000	0.2479242208
1.1000000000	0.2568117295
1.1050000000	0.2668885131
1.1100000000	0.2783140179
1.1150000000	0.2912402431
1.1200000000	0.3058476068
1.1250000000	0.3222854190
1.1300000000	0.3409795101
1.1350000000	0.3622169449
1.1400000000	0.3864275768
1.1450000000	0.4141580398
1.1500000000	0.4458337335
1.1550000000	0.4827791265
1.1600000000	0.5258317541
1.1650000000	0.5760885799
1.1700000000	0.6337766940
1.1750000000	0.6922807050
1.1800000000	0.7476391162
1.1850000000	1.0391233068
1.1900000000	1.2895647735
1.1950000000	1.7678123453
1.2000000000	2.4076527467
1.2050000000	2.1118976403
1.2100000000	2.0210976469
1.2150000000	2.2500481337
1.2200000000	2.6910702058
1.2250000000	3.3683447154
1.2300000000	4.3981904026
1.2350000000	6.0272992741
1.2400000000	8.7715333176
1.2450000000	13.9389064877
1.2500000000	25.1299757935
1.2550000000	54.3984702128
1.2600000000	131.3948788094
1.2650000000	133.0974553316
1.2700000000	55.3657863236
1.2750000000	25.5568807894
1.2800000000	14.1538476965
1.2850000000	8.9007753834
1.2900000000	6.1006645327
1.2950000000	4.4462517415
1.3000000000	3.3924641219
1.3050000000	2.6829523238
1.3100000000	2.1826321304
1.3150000000	1.8211258462
1.3200000000	1.5531405140
1.3250000000	1.3514714490
1.3300000000	1.1995945616
1.3350000000	1.0873703994
1.3400000000	1.0095347020
1.3450000000	0.9646434341
1.3500000000	0.9592437304
1.3550000000	1.0082409879
1.3600000000	1.1495617267
1.3650000000	1.4797190258
1.3700000000	2.2681858059
1.3750000000	4.2299605168
1.3800000000	6.9093202894
1.3850000000	4.8266906490
1.3900000000	2.4597234686
1.3950000000	1.4272214839
1.4000000000	0.9346902144
1.4050000000	0.6319771307
1.4100000000	0.3579912633
1.4150000000	-0.0507475469
1.4200000000	-0.9658569141
1.4250000000	-3.3906573970
1.4300000000	-4.5589525662
1.4350000000	2.0886321641
1.4400000000	2.6716820678
1.4450000000	1.6017869252
1.4500000000	0.9966949725
1.4550000000	0.6870646100
1.4600000000	0.5073565418
1.4650000000	0.3653332616
1.4700000000	0.2134203494
1.4750000000	0.2508001554
1.4800000000	0.3676801235
1.4850000000	0.3338658343
1.4900000000	0.2956307830
1.4950000000	0.2709000587
1.5000000000	0.2546540081
1.5050000000	0.2439121967
1.5100000000	0.2366048152
1.5150000000	0.2326178139
1.5200000000	0.2296789784
1.5250000000	0.2286191518
1.5300000000	0.2295361019
1.5350000000	0.2328493271
1.5400000000	0.2396053177
1.5450000000	0.2521281273
1.5500000000	0.2756413513
1.5550000000	0.3205571146
1.5600000000	0.3879791722
1.5650000000	0.3987838430
1.5700000000	0.3379399798
1.5750000000	0.2952435050
1.5800000000	0.2768234820
1.5850000000	0.2710259020
1.5900000000	0.2717743817
1.5950000000	0.2764300716
1.6000000000	0.2838432614
1.6050000000	0.2936180833
1.6100000000	0.3054589678
1.6150000000	0.3193218493
1.6200000000	0.3354275273
1.6250000000	0.3539664761
1.6300000000	0.3752517824
1.6350000000	0.3996870888
1.6400000000	0.4277885514
1.6450000000	0.4602154085
1.6500000000	0.4977951599
1.6550000000	0.5415764860
1.6600000000	0.5929180609
1.6650000000	0.6535736443
1.6700000000	0.7252484258
1.6750000000	0.8121270116
1.6800000000	0.9179082211
1.6850000000	1.0484109859
1.6900000000	1.2118971192
1.6950000000	1.4204904829
1.7000000000	1.6924421692
1.7050000000	2.0676066087
1.7100000000	2.5910273741
1.7150000000	3.3518298957
1.7200000000	4.5113176005
1.7250000000	6.3507973982
1.7300000000	9.1775755582
1.7350000000	12.8052667373
1.7400000000	17.3912754175
1.7450000000	25.4389495245
1.7500000000	35.8855515835
1.7550000000	36.4628177086
1.7600000000	25.5809853534
1.7650000000	15.9345633453
1.7700000000	10.2146791368
1.7750000000	6.9621437088
1.7800000000	5.0400358092
1.7850000000	3.8577034989
1.7900000000	3.1244813141
1.7950000000	2.7049462134
1.8000000000	2.5356207842
1.8050000000	2.4820223807
1.8100000000	2.2082902633
1.8150000000	1.7111039378
1.8200000000	1.3138853110
1.8250000000	1.1090804019
1.8300000000	0.9655667728
1.8350000000	0.8380237884
1.8400000000	0.7340223274
1.8450000000	0.6514907713
1.8500000000	0.5849789933
1.8550000000	0.5300326104
1.8600000000	0.4794892653
1.8650000000	0.4367589647
1.8700000000	0.3935728561
1.8750000000	0.3313169882
1.8800000000	0.1894106320
1.8850000000	-0.1215992711
1.8900000000	-0.5399246309
1.8950000000	-0.6116992003
1.9000000000	0.0654569367
1.9050000000	0.6968068096
1.9100000000	0.7704775428
1.9150000000	0.6509111665
1.9200000000	0.5337251682
1.9250000000	0.4505698582
1.9300000000	0.4002111471
1.9350000000	0.3617649862
1.9400000000	0.3361905184
1.9450000000	0.3192626037
1.9500000000	0.3074305929
1.9550000000	0.2975280957
1.9600000000	0.2889758920
1.9650000000	0.2829022783
1.9700000000	0.2796583661
1.9750000000	0.2790283989
1.9800000000	0.2808373366
1.9850000000	0.2851375888
1.9900000000	0.2922114351
1.9950000000	0.3024120620
2.0000000000	0.3154741708
2.0050000000	0.3302923204
2.0100000000	0.3409214139
2.0150000000	0.3480099976
2.0200000000	0.3565574085
2.0250000000	0.3697514212
2.0300000000	0.3885300953
2.0350000000	0.4133629634
2.0400000000	0.4451026253
2.0450000000	0.4852284961
2.0500000000	0.5358653479
2.0550000000	0.5993745057
2.0600000000	0.6769013253
2.0650000000	0.7672270347
2.0700000000	0.8717085270
2.0750000000	1.0020009798
2.0800000000	1.1773469337
2.0850000000	1.4165080787
2.0900000000	1.7303957250
2.0950000000	2.0964583267
2.1000000000	2.4227219919
2.1050000000	2.5808163241
2.1100000000	2.5057359476
2.1150000000	2.3329679145
2.1200000000	2.2108517409
2.1250000000	2.2056360483
2.1300000000	2.3369750636
2.1350000000	2.6204460811
2.1400000000	3.0872501662
2.1450000000	3.7925873086
2.1500000000	4.8137561145
2.1550000000	6.2088201600
2.1600000000	7.8652765633
2.1650000000	9.2574986273
2.1700000000	9.5864586865
2.1750000000	8.5814279620
2.1800000000	6.9280102357
2.1850000000	5.3452829183
2.1900000000	4.1078243351
2.1950000000	3.2137971121
2.2000000000	2.5865624790
2.2050000000	2.1538219394
2.2100000000	1.8534112335
2.2150000000	1.6229938773
2.2200000000	1.4165268496
2.2250000000	1.2201448181
2.2300000000	1.0423351964
2.2350000000	0.8896612085
2.2400000000	0.7603516744
2.2450000000	0.6486976922
2.2500000000	0.5490168779
2.2550000000	0.4581313304
2.2600000000	0.3672442228
2.2650000000	0.3011266126
2.2700000000	0.2652121588
2.2750000000	0.2742547698
2.2800000000	0.3264205572
2.2850000000	0.3928474002
2.2900000000	0.4414708335
2.2950000000	0.4630221916
2.3000000000	0.4654884987
2.3050000000	0.4580541366
2.3100000000	0.4482603067
2.3150000000	0.4395817699
2.3200000000	0.4333923372
2.3250000000	0.4304468404
2.3300000000	0.4313562497
2.3350000000	0.4366266527
2.3400000000	0.4466902613
2.3450000000	0.4619842804
2.3500000000	0.4829718317
2.3550000000	0.5103471685
2.3600000000	0.5436607604
2.3650000000	0.5831197884
2.3700000000	0.6286144497
2.3750000000	0.6806385625
2.3800000000	0.7410700866
2.3850000000	0.8121374240
2.3900000000	0.8943333683
2.3950000000	0.9839978699
2.4000000000	1.0717217816
2.4050000000	1.1473202958
2.4100000000	1.1892223741
2.4150000000	1.1932269446
2.4200000000	1.1695783795
2.4250000000	1.1357461457
2.4300000000	1.1072347463
2.4350000000	1.0934033293
2.4400000000	1.0979865220
2.4450000000	1.1215875866
2.4500000000	1.1642817628
2.4550000000	1.2270203442
2.4600000000	1.3138257271
2.4650000000	1.4288213973
2.4700000000	1.5765991549
2.4750000000	1.7600269734
2.4800000000	1.9776576853
2.4850000000	2.2202055268
2.4900000000	2.4664293879
2.4950000000	2.6810807082
2.5000000000	2.8200511226
2.5050000000	2.8379168733
2.5100000000	2.7165405966
2.5150000000	2.4890520480
2.5200000000	2.2083867674
2.5250000000	1.9210500854
2.5300000000	1.6553898365
2.5350000000	1.4233168366
2.5400000000	1.2265846210
2.5450000000	1.0622743113
2.5500000000	0.9261560685
2.5550000000	0.8144294125
2.5600000000	0.7210070574
2.5650000000	0.6510919645
2.5700000000	0.6008562780
2.5750000000	0.5685084163
2.5800000000	0.5504577554
2.5850000000	0.5417935057
2.5900000000	0.5379069824
2.5950000000	0.5359283916
2.6000000000	0.5349324178
2.6050000000	0.5391988043
2.6100000000	0.5459579324
2.6150000000	0.5562446483
2.6200000000	0.5706087595
2.6250000000	0.5890841420
2.6300000000	0.6111492969
2.6350000000	0.6356973960
2.6400000000	0.6610372605
2.6450000000	0.6850243538
2.6500000000	0.7053875004
2.6550000000	0.7202645873
2.6600000000	0.7287906508
2.6650000000	0.7314737635
2.6700000000	0.7300875278
2.6750000000	0.7272245130
2.6800000000	0.7253968747
2.6850000000	0.7269516910
2.6900000000	0.7335234732
2.6950000000	0.7461167052
2.7000000000	0.7652129954
2.7050000000	0.7937987559
2.7100000000	0.8305882126
2.7150000000	0.8749865442
2.7200000000	0.9257642178
2.7250000000	0.9808341001
2.7300000000	1.0370452928
2.7350000000	1.0901497324
2.7400000000	1.1350944550
2.7450000000	1.1667489432
2.7500000000	1.1809779568
2.7550000000	1.1756980583
2.7600000000	1.1514415772
2.7650000000	1.1111643608
2.7700000000	1.0593895374
2.7750000000	1.0011284022
2.7800000000	0.9409761748
2.7850000000	0.8826088445
2.7900000000	0.8281575692
2.7950000000	0.7799544326
2.8000000000	0.7384818668
2.8050000000	0.7000707524
2.8100000000	0.6697864171
2.8150000000	0.6464365237
2.8200000000	0.6287257939
2.8250000000	0.6154656331
2.8300000000	0.6056458402
2.8350000000	0.5984284911
2.8400000000	0.5931055605
2.8450000000	0.5890759275
2.8500000000	0.5858568992
2.8550000000	0.5831280374
2.8600000000	0.5807808725
2.8650000000	0.5789349243
2.8700000000	0.5779073490
2.8750000000	0.5781343360
2.8800000000	0.5800745378
2.8850000000	0.5841219338
2.8900000000	0.5905451895
2.8950000000	0.5994510496
2.9000000000	0.6107663632
2.9050000000	0.6276920747
2.9100000000	0.6462533182
2.9150000000	0.6652108013
2.9200000000	0.6829983235
2.9250000000	0.6979334049
2.9300000000	0.7084539084
2.9350000000	0.7133918350
2.9400000000	0.7121993523
2.9450000000	0.7050534017
2.9500000000	0.6927895343
2.9550000000	0.6766889474
2.9600000000	0.6582084531
2.9650000000	0.6387279802
2.9700000000	0.6193823655
2.9750000000	0.6009877707
2.9800000000	0.5840466738
2.9850000000	0.5688021302
2.9900000000	0.5553106592
2.9950000000	0.5435131039
3.0000000000	0.5332924524
