# energy (eV)    P(omega), $W$ = 400 nm, $h$ = 300 nm, $s$ = 20 nm, $d/W = 5$, $E_{\rm e}$ = 200 keV
0.2000000000	0.0592663832
0.2050000000	0.0598055367
0.2100000000	0.0601852140
0.2150000000	0.0603990207
0.2200000000	0.0604380163
0.2250000000	0.0602900557
0.2300000000	0.0599391600
0.2350000000	0.0593645243
0.2400000000	0.0585393949
0.2450000000	0.0574292905
0.2500000000	0.0559901286
0.2550000000	0.0541651879
0.2600000000	0.0518813760
0.2650000000	0.0542747324
0.2700000000	0.0603540489
0.2750000000	0.0690534203
0.2800000000	0.0811742122
0.2850000000	0.0990435563
0.2900000000	0.1211852277
0.2950000000	0.1529274173
0.3000000000	0.1955984062
0.3050000000	0.2610032477
0.3100000000	0.3521110186
0.3150000000	0.5284009140
0.3200000000	0.8037338371
0.3250000000	0.9922441813
0.3300000000	1.2530163169
0.3350000000	1.6227003833
0.3400000000	2.2030319962
0.3450000000	3.1986986542
0.3500000000	5.1841516127
0.3550000000	9.7802491054
0.3600000000	24.0363554483
0.3650000000	0.1084156357
0.3700000000	11.1402394494
0.3750000000	14.6490815321
0.3800000000	6.8260332626
0.3850000000	3.8452056696
0.3900000000	2.4663852985
0.3950000000	1.7380291822
0.4000000000	1.3163105025
0.4050000000	1.0413786487
0.4100000000	0.8623919546
0.4150000000	0.7443408105
0.4200000000	0.6697311724
0.4250000000	0.6111349881
0.4300000000	0.5418931164
0.4350000000	0.4870922518
0.4400000000	0.4437509684
0.4450000000	0.4092896768
0.4500000000	0.3820828862
0.4550000000	0.3605089153
0.4600000000	0.3436797671
0.4650000000	0.3306562007
0.4700000000	0.3208164309
0.4750000000	0.3137254265
0.4800000000	0.3090035560
0.4850000000	0.3063179392
0.4900000000	0.3054717334
0.4950000000	0.3063134926
0.5000000000	0.3087138345
0.5050000000	0.3126150952
0.5100000000	0.3179700418
0.5150000000	0.3247506212
0.5200000000	0.3329709047
0.5250000000	0.3426424472
0.5300000000	0.3539072264
0.5350000000	0.3668283860
0.5400000000	0.3815195951
0.5450000000	0.3981299066
0.5500000000	0.4168702159
0.5550000000	0.4379711918
0.5600000000	0.4617136114
0.5650000000	0.4884585006
0.5700000000	0.5187042550
0.5750000000	0.5528202717
0.5800000000	0.5914977125
0.5850000000	0.6356809179
0.5900000000	0.6860069028
0.5950000000	0.7438160205
0.6000000000	0.8108790594
0.6050000000	0.8885232544
0.6100000000	0.9797909300
0.6150000000	1.0872050599
0.6200000000	1.2150965578
0.6250000000	1.3696787881
0.6300000000	1.5572884991
0.6350000000	1.7898326550
0.6400000000	2.0804480768
0.6450000000	2.4529730697
0.6500000000	2.9378588715
0.6550000000	3.5866867340
0.6600000000	4.4865505116
0.6650000000	5.7750515576
0.6700000000	7.7261520303
0.6750000000	10.8632314182
0.6800000000	16.4086176376
0.6850000000	27.5358093003
0.6900000000	55.1863247086
0.6950000000	154.9167027869
0.7000000000	751.3612503101
0.7050000000	365.2938640483
0.7100000000	93.8366544447
0.7150000000	39.9047704099
0.7200000000	21.7925844657
0.7250000000	13.6896890919
0.7300000000	9.3892699819
0.7350000000	6.8470743488
0.7400000000	5.2191420893
0.7450000000	4.1141642686
0.7500000000	3.3314175404
0.7550000000	2.7563554672
0.7600000000	2.3229176528
0.7650000000	1.9867923521
0.7700000000	1.7214554823
0.7750000000	1.5084393545
0.7800000000	1.3353350501
0.7850000000	1.1928011725
0.7900000000	1.0733907335
0.7950000000	0.9736609859
0.8000000000	0.8888637242
0.8050000000	0.8162141188
0.8100000000	0.7543674812
0.8150000000	0.7001614341
0.8200000000	0.6529692366
0.8250000000	0.6133667739
0.8300000000	0.5787015003
0.8350000000	0.5485650871
0.8400000000	0.5245660446
0.8450000000	0.5036256302
0.8500000000	0.4858704473
0.8550000000	0.4746478839
0.8600000000	0.4656585594
0.8650000000	0.4592223569
0.8700000000	0.4614641482
0.8750000000	0.4622497975
0.8800000000	0.4597623522
0.8850000000	0.4397717780
0.8900000000	0.3412759242
0.8950000000	-0.1523402100
0.9000000000	-2.7992518354
0.9050000000	-18.3931274635
0.9100000000	3.5024160499
0.9150000000	8.2965923119
0.9200000000	3.4440760264
0.9250000000	1.7917041403
0.9300000000	1.0936935042
0.9350000000	0.7602053969
0.9400000000	0.5803013683
0.9450000000	0.4805801613
0.9500000000	0.4097605118
0.9550000000	0.3623526069
0.9600000000	0.3330301449
0.9650000000	0.3088331523
0.9700000000	0.2915627781
0.9750000000	0.2797863467
0.9800000000	0.2726066383
0.9850000000	0.2712675319
0.9900000000	0.2738390228
0.9950000000	0.2843187271
1.0000000000	0.3094119015
1.0050000000	0.3680295256
1.0100000000	0.5216704357
1.0150000000	1.0482816962
1.0200000000	2.0124000974
1.0250000000	0.9153321388
1.0300000000	0.4692214285
1.0350000000	0.3362599693
1.0400000000	0.2839760146
1.0450000000	0.2594514844
1.0500000000	0.2471630202
1.0550000000	0.2407201456
1.0600000000	0.2378341967
1.0650000000	0.2373034891
1.0700000000	0.2384617844
1.0750000000	0.2410750204
1.0800000000	0.2446770287
1.0850000000	0.2495758846
1.0900000000	0.2566520100
1.0950000000	0.2649002392
1.1000000000	0.2744015226
1.1050000000	0.2851731403
1.1100000000	0.2973855765
1.1150000000	0.3112013865
1.1200000000	0.3268134351
1.1250000000	0.3443813025
1.1300000000	0.3643601642
1.1350000000	0.3870567338
1.1400000000	0.4129304621
1.1450000000	0.4425654925
1.1500000000	0.4764163347
1.1550000000	0.5158984556
1.1600000000	0.5619068090
1.1650000000	0.6156136139
1.1700000000	0.6772624522
1.1750000000	0.7397880827
1.1800000000	0.7989732807
1.1850000000	1.1104608098
1.1900000000	1.3780548545
1.1950000000	1.8890443944
1.2000000000	2.5726986659
1.2050000000	2.2567688789
1.2100000000	2.1598326215
1.2150000000	2.4045482750
1.2200000000	2.8758832800
1.2250000000	3.5996931714
1.2300000000	4.7002932500
1.2350000000	6.4413262447
1.2400000000	9.3740979377
1.2450000000	14.8964919852
1.2500000000	26.8564530304
1.2550000000	58.1359150040
1.2600000000	140.4227564500
1.2650000000	142.2427178988
1.2700000000	59.1701967344
1.2750000000	27.3130790545
1.2800000000	15.1265072607
1.2850000000	9.5124712266
1.2900000000	6.5199479497
1.2950000000	4.7518488291
1.3000000000	3.6256474136
1.3050000000	2.8673796864
1.3100000000	2.3326792314
1.3150000000	1.9463324201
1.3200000000	1.6599342441
1.3250000000	1.4444108491
1.3300000000	1.2821032530
1.3350000000	1.1621760640
1.3400000000	1.0790044396
1.3450000000	1.0310474641
1.3500000000	1.0253062812
1.3550000000	1.0777186326
1.3600000000	1.2288349818
1.3650000000	1.5818433945
1.3700000000	2.4248526389
1.3750000000	4.5223073843
1.3800000000	7.3869723316
1.3850000000	5.1603359635
1.3900000000	2.6296959489
1.3950000000	1.5258060479
1.4000000000	0.9992326054
1.4050000000	0.6756144653
1.4100000000	0.3827357055
1.4150000000	-0.0541467881
1.4200000000	-1.0322215118
1.4250000000	-3.6238322797
1.4300000000	-4.8725131287
1.4350000000	2.2323519909
1.4400000000	2.8555127030
1.4450000000	1.7120137598
1.4500000000	1.0652911625
1.4550000000	0.7343552538
1.4600000000	0.5422772066
1.4650000000	0.3904683065
1.4700000000	0.2280753043
1.4750000000	0.2680485838
1.4800000000	0.3930106035
1.4850000000	0.3568655043
1.4900000000	0.3159926764
1.4950000000	0.2895560095
1.5000000000	0.2721893070
1.5050000000	0.2607061887
1.5100000000	0.2528940161
1.5150000000	0.2486305973
1.5200000000	0.2454870210
1.5250000000	0.2443509612
1.5300000000	0.2453263208
1.5350000000	0.2488604327
1.5400000000	0.2560698043
1.5450000000	0.2694342414
1.5500000000	0.2945274954
1.5550000000	0.3424595607
1.5600000000	0.4144073794
1.5650000000	0.4259400099
1.5700000000	0.3610230046
1.5750000000	0.3154736344
1.5800000000	0.2958305078
1.5850000000	0.2896579082
1.5900000000	0.2904721263
1.5950000000	0.2954575615
1.6000000000	0.3033876718
1.6050000000	0.3138404710
1.6100000000	0.3265007479
1.6150000000	0.3413217868
1.6200000000	0.3585398060
1.6250000000	0.3783585908
1.6300000000	0.4011129151
1.6350000000	0.4272343303
1.6400000000	0.4572746445
1.6450000000	0.4919386056
1.6500000000	0.5321108346
1.6550000000	0.5789123793
1.6600000000	0.6337956684
1.6650000000	0.6986354745
1.6700000000	0.7752547136
1.6750000000	0.8681266433
1.6800000000	0.9812053933
1.6850000000	1.1207114939
1.6900000000	1.2954769114
1.6950000000	1.5184623987
1.7000000000	1.8091788982
1.7050000000	2.2102319016
1.7100000000	2.7697754370
1.7150000000	3.5830898112
1.7200000000	4.8226190582
1.7250000000	6.7890981461
1.7300000000	9.8110329389
1.7350000000	13.6890078715
1.7400000000	18.5910742245
1.7450000000	27.1934435890
1.7500000000	38.3602751313
1.7550000000	38.9773277841
1.7600000000	27.3451217907
1.7650000000	17.0334971701
1.7700000000	10.9191665505
1.7750000000	7.4423269751
1.7800000000	5.3876601561
1.7850000000	4.1237837756
1.7900000000	3.3399877253
1.7950000000	2.8915088961
1.8000000000	2.7104911371
1.8050000000	2.6531802530
1.8100000000	2.3605661986
1.8150000000	1.8290980047
1.8200000000	1.4044944904
1.8250000000	1.1855773318
1.8300000000	1.0321732496
1.8350000000	0.8958363491
1.8400000000	0.7846630327
1.8450000000	0.6964400821
1.8500000000	0.6253419107
1.8550000000	0.5666071732
1.8600000000	0.5125798099
1.8650000000	0.4669056485
1.8700000000	0.4207461010
1.8750000000	0.3542029172
1.8800000000	0.2025115220
1.8850000000	-0.1299603107
1.8900000000	-0.5771597782
1.8950000000	-0.6538956823
1.9000000000	0.0699822249
1.9050000000	0.7448961425
1.9100000000	0.8236486758
1.9150000000	0.6958292472
1.9200000000	0.5705539407
1.9250000000	0.4816569037
1.9300000000	0.4278184272
1.9350000000	0.3867123938
1.9400000000	0.3593632619
1.9450000000	0.3412546475
1.9500000000	0.3285961853
1.9550000000	0.3180118560
1.9600000000	0.3088808049
1.9650000000	0.3023999266
1.9700000000	0.2989405604
1.9750000000	0.2982722305
1.9800000000	0.3002086517
1.9850000000	0.3048063439
1.9900000000	0.3123671645
1.9950000000	0.3232685203
2.0000000000	0.3372270651
2.0050000000	0.3530632943
2.0100000000	0.3644262082
2.0150000000	0.3720097582
2.0200000000	0.3811544708
2.0250000000	0.3952655465
2.0300000000	0.4153454458
2.0350000000	0.4418964972
2.0400000000	0.4758306242
2.0450000000	0.5187297177
2.0500000000	0.5728654092
2.0550000000	0.6407619277
2.0600000000	0.7236433515
2.0650000000	0.8202066788
2.0700000000	0.9319026127
2.0750000000	1.0711913073
2.0800000000	1.2586442477
2.0850000000	1.5143188018
2.0900000000	1.8498795994
2.0950000000	2.2412180007
2.1000000000	2.5900097265
2.1050000000	2.7590212528
2.1100000000	2.6787593292
2.1150000000	2.4940661162
2.1200000000	2.3635234011
2.1250000000	2.3579543980
2.1300000000	2.4983708483
2.1350000000	2.8014266120
2.1400000000	3.3004786097
2.1450000000	4.0545402787
2.1500000000	5.1462498690
2.1550000000	6.6376818309
2.1600000000	8.4085632578
2.1650000000	9.8969619236
2.1700000000	10.2486564937
2.1750000000	9.1742137044
2.1800000000	7.4065927510
2.1850000000	5.7145424279
2.1900000000	4.3916098068
2.1950000000	3.4358320316
2.2000000000	2.7652776375
2.2050000000	2.3026545365
2.2100000000	1.9815026147
2.2150000000	1.7351750842
2.2200000000	1.5144443723
2.2250000000	1.3044881936
2.2300000000	1.1143846823
2.2350000000	0.9511538435
2.2400000000	0.8129032650
2.2450000000	0.6935295262
2.2500000000	0.5869571543
2.2550000000	0.4897880274
2.2600000000	0.3926166754
2.2650000000	0.3219255314
2.2700000000	0.2835242976
2.2750000000	0.2931875099
2.2800000000	0.3489549967
2.2850000000	0.4199693911
2.2900000000	0.4719493514
2.2950000000	0.4949851351
2.3000000000	0.4976159179
2.3050000000	0.4896612067
2.3100000000	0.4791852698
2.3150000000	0.4699046671
2.3200000000	0.4632886836
2.3250000000	0.4601433120
2.3300000000	0.4611200695
2.3350000000	0.4667587252
2.3400000000	0.4775207212
2.3450000000	0.4938732687
2.3500000000	0.5163115089
2.3550000000	0.5455777825
2.3600000000	0.5811916727
2.3650000000	0.6233749491
2.3700000000	0.6720104878
2.3750000000	0.7276263838
2.3800000000	0.7922302089
2.3850000000	0.8682040103
2.3900000000	0.9560744022
2.3950000000	1.0519286251
2.4000000000	1.1457080910
2.4050000000	1.2265251433
2.4100000000	1.2713201999
2.4150000000	1.2756023329
2.4200000000	1.2503232982
2.4250000000	1.2141583380
2.4300000000	1.1836822126
2.4350000000	1.1689004200
2.4400000000	1.1738059823
2.4450000000	1.1990446147
2.4500000000	1.2446976017
2.4550000000	1.3117822817
2.4600000000	1.4045988042
2.4650000000	1.5275551483
2.4700000000	1.6855600502
2.4750000000	1.8816793025
2.4800000000	2.1143654753
2.4850000000	2.3736906373
2.4900000000	2.6369449891
2.4950000000	2.8664428854
2.5000000000	3.0150260068
2.5050000000	3.0341297873
2.5100000000	2.9043626172
2.5150000000	2.6611450675
2.5200000000	2.3610731417
2.5250000000	2.0538679370
2.5300000000	1.7698376123
2.5350000000	1.5217166506
2.5400000000	1.3113798400
2.5450000000	1.1357066071
2.5500000000	0.9901745544
2.5550000000	0.8707204017
2.5600000000	0.7708359182
2.5650000000	0.6960838977
2.5700000000	0.6423717851
2.5750000000	0.6077841607
2.5800000000	0.5884822001
2.5850000000	0.5792156359
2.5900000000	0.5750572473
2.5950000000	0.5729388988
2.6000000000	0.5718713271
2.6050000000	0.5764298262
2.6100000000	0.5836532124
2.6150000000	0.5946475685
2.6200000000	0.6100005334
2.6250000000	0.6297482916
2.6300000000	0.6533334372
2.6350000000	0.6795729557
2.6400000000	0.7066592991
2.6450000000	0.7323003193
2.6500000000	0.7540684942
2.6550000000	0.7699734658
2.6600000000	0.7790906685
2.6650000000	0.7819630960
2.6700000000	0.7804864971
2.6750000000	0.7774320401
2.6800000000	0.7754849794
2.6850000000	0.7771542048
2.6900000000	0.7841869313
2.6950000000	0.7976569633
2.7000000000	0.8180791850
2.7050000000	0.8486471030
2.7100000000	0.8879854685
2.7150000000	0.9354583954
2.7200000000	0.9897513971
2.7250000000	1.0486330144
2.7300000000	1.1087344672
2.7350000000	1.1655139435
2.7400000000	1.2135688659
2.7450000000	1.2474138907
2.7500000000	1.2626276944
2.7550000000	1.2569827812
2.7600000000	1.2310481909
2.7650000000	1.1879842833
2.7700000000	1.1326270545
2.7750000000	1.0703345310
2.7800000000	1.0060196599
2.7850000000	0.9436128644
2.7900000000	0.8853927417
2.7950000000	0.8338527279
2.8000000000	0.7895087189
2.8050000000	0.7484374526
2.8100000000	0.7160551809
2.8150000000	0.6910872319
2.8200000000	0.6721488462
2.8250000000	0.6579693248
2.8300000000	0.6474686581
2.8350000000	0.6397510029
2.8400000000	0.6340593742
2.8450000000	0.6297510738
2.8500000000	0.6263100067
2.8550000000	0.6233935555
2.8600000000	0.6208856968
2.8650000000	0.6189141379
2.8700000000	0.6178178565
2.8750000000	0.6180631007
2.8800000000	0.6201401080
2.8850000000	0.6244700215
2.8900000000	0.6313399883
2.8950000000	0.6408640997
2.9000000000	0.6529640842
2.9050000000	0.6710625082
2.9100000000	0.6909091921
2.9150000000	0.7111791205
2.9200000000	0.7301977640
2.9250000000	0.7461662710
2.9300000000	0.7574144587
2.9350000000	0.7626935646
2.9400000000	0.7614178976
2.9450000000	0.7537766900
2.9500000000	0.7406633523
2.9550000000	0.7234477780
2.9600000000	0.7036876334
2.9650000000	0.6828583769
2.9700000000	0.6621734104
2.9750000000	0.6425054124
2.9800000000	0.6243916538
2.9850000000	0.6080920244
2.9900000000	0.5936669729
2.9950000000	0.5810532463
3.0000000000	0.5701257221
