# energy (eV)    P(omega), $W$ = 300 nm, $h$ = 300 nm, $s$ = 20 nm, $d/W = 5$, $E_{\rm e}$ = 200 keV
0.2000000000	0.1388645483
0.2050000000	0.1409796560
0.2100000000	0.1429454144
0.2150000000	0.1447668042
0.2200000000	0.1464483119
0.2250000000	0.1479936380
0.2300000000	0.1494057371
0.2350000000	0.1506866629
0.2400000000	0.1518374605
0.2450000000	0.1528579749
0.2500000000	0.1537467124
0.2550000000	0.1545004656
0.2600000000	0.1551142499
0.2650000000	0.1555806570
0.2700000000	0.1558896222
0.2750000000	0.1560276682
0.2800000000	0.1559772200
0.2850000000	0.1557155974
0.2900000000	0.1552137929
0.2950000000	0.1544348452
0.3000000000	0.1533315847
0.3050000000	0.1518438949
0.3100000000	0.1498947790
0.3150000000	0.1587206067
0.3200000000	0.1692018709
0.3250000000	0.1824676227
0.3300000000	0.2002495770
0.3350000000	0.2223770515
0.3400000000	0.2513522579
0.3450000000	0.2864655504
0.3500000000	0.3323807521
0.3550000000	0.3931036518
0.3600000000	0.4723286670
0.3650000000	0.5827205157
0.3700000000	0.7281346605
0.3750000000	0.9302519443
0.3800000000	1.2223522383
0.3850000000	1.6772067647
0.3900000000	2.3952116476
0.3950000000	3.6138909310
0.4000000000	5.9354888940
0.4050000000	11.1368275425
0.4100000000	25.3186182428
0.4150000000	81.1759454017
0.4200000000	51.7552397676
0.4250000000	-97.1500693179
0.4300000000	26.9625440546
0.4350000000	16.7802566736
0.4400000000	10.2426984071
0.4450000000	6.7262192627
0.4500000000	4.7032586589
0.4550000000	3.4591329043
0.4600000000	2.6493202366
0.4650000000	2.0977778182
0.4700000000	1.7081370278
0.4750000000	1.4264345906
0.4800000000	1.2176170637
0.4850000000	1.0604864060
0.4900000000	0.9405130042
0.4950000000	0.8479472766
0.5000000000	0.7761239609
0.5050000000	0.7201578191
0.5100000000	0.6768979000
0.5150000000	0.6440221252
0.5200000000	0.6191185634
0.5250000000	0.6010873197
0.5300000000	0.5887589512
0.5350000000	0.5812744706
0.5400000000	0.5779997792
0.5450000000	0.5784054217
0.5500000000	0.5823134259
0.5550000000	0.5894220556
0.5600000000	0.5995705489
0.5650000000	0.6126821500
0.5700000000	0.6286828107
0.5750000000	0.6476819362
0.5800000000	0.6698564651
0.5850000000	0.6953196056
0.5900000000	0.7242983553
0.5950000000	0.7570834172
0.6000000000	0.7940436354
0.6050000000	0.8357232391
0.6100000000	0.8826345614
0.6150000000	0.9354832293
0.6200000000	0.9952112586
0.6250000000	1.0627207749
0.6300000000	1.1393480039
0.6350000000	1.2267577660
0.6400000000	1.3266801599
0.6450000000	1.4416166597
0.6500000000	1.5748536479
0.6550000000	1.7298102588
0.6600000000	1.9117462534
0.6650000000	2.1274033484
0.6700000000	2.3847060048
0.6750000000	2.6957448623
0.6800000000	3.0767710441
0.6850000000	3.5490653805
0.6900000000	4.1455865047
0.6950000000	4.9124190797
0.7000000000	5.9227562198
0.7050000000	7.2884623651
0.7100000000	9.1990422991
0.7150000000	11.9917897045
0.7200000000	16.2944678748
0.7250000000	23.4338272587
0.7300000000	36.5329998209
0.7350000000	64.5499751726
0.7400000000	141.3548656227
0.7450000000	468.5736317494
0.7500000000	1450.5008947400
0.7550000000	364.6171224015
0.7600000000	120.6571643671
0.7650000000	57.7661913726
0.7700000000	33.5680254314
0.7750000000	21.8914428103
0.7800000000	15.3936188760
0.7850000000	11.4236888363
0.7900000000	8.8186365343
0.7950000000	7.0226672464
0.8000000000	5.7320863442
0.8050000000	4.7712445602
0.8100000000	4.0388138576
0.8150000000	3.4584541538
0.8200000000	3.0005665068
0.8250000000	2.6319988088
0.8300000000	2.3301884289
0.8350000000	2.0821054399
0.8400000000	1.8741998652
0.8450000000	1.6997796755
0.8500000000	1.5523624281
0.8550000000	1.4251848598
0.8600000000	1.3166225886
0.8650000000	1.2238791976
0.8700000000	1.1419556891
0.8750000000	1.0722358429
0.8800000000	1.0130314328
0.8850000000	0.9599564832
0.8900000000	0.9172781993
0.8950000000	0.8784569013
0.9000000000	0.8475748104
0.9050000000	0.8260922307
0.9100000000	0.8063910419
0.9150000000	0.7941729236
0.9200000000	0.7920622902
0.9250000000	0.7903527428
0.9300000000	0.7782286267
0.9350000000	0.7432791963
0.9400000000	0.5512206368
0.9450000000	-0.3193354585
0.9500000000	-4.9086021279
0.9550000000	-28.1681214910
0.9600000000	6.6435341871
0.9650000000	11.6607137008
0.9700000000	5.1695263699
0.9750000000	2.7135356885
0.9800000000	1.7008783931
0.9850000000	1.2273816518
0.9900000000	0.9546921199
0.9950000000	0.7893889054
1.0000000000	0.6838561583
1.0050000000	0.6169202095
1.0100000000	0.5650788786
1.0150000000	0.5272212857
1.0200000000	0.5017062995
1.0250000000	0.4803379150
1.0300000000	0.4641325388
1.0350000000	0.4519075935
1.0400000000	0.4441607131
1.0450000000	0.4377796180
1.0500000000	0.4336403897
1.0550000000	0.4314908583
1.0600000000	0.4318880344
1.0650000000	0.4332795386
1.0700000000	0.4363025306
1.0750000000	0.4409703147
1.0800000000	0.4477035115
1.0850000000	0.4562419374
1.0900000000	0.4687561374
1.0950000000	0.4835986629
1.1000000000	0.5012519723
1.1050000000	0.5216321657
1.1100000000	0.5453643948
1.1150000000	0.5729878061
1.1200000000	0.6051215965
1.1250000000	0.6426610984
1.1300000000	0.6867047846
1.1350000000	0.7386544831
1.1400000000	0.8000842227
1.1450000000	0.8739603783
1.1500000000	0.9634322586
1.1550000000	1.0730875581
1.1600000000	1.2093991737
1.1650000000	1.3807437812
1.1700000000	1.6029162832
1.1750000000	1.8967937811
1.1800000000	2.2969213147
1.1850000000	2.8601048321
1.1900000000	3.6932804708
1.1950000000	5.0020359277
1.2000000000	7.2227480304
1.2050000000	11.4201301164
1.2100000000	20.6535507506
1.2150000000	45.6047930890
1.2200000000	111.9395543290
1.2250000000	100.4756309313
1.2300000000	39.9883547273
1.2350000000	18.6836400901
1.2400000000	10.6126079897
1.2450000000	6.9026620594
1.2500000000	4.9404350819
1.2550000000	3.8021017052
1.2600000000	3.1026414968
1.2650000000	2.6566884252
1.2700000000	2.3805378418
1.2750000000	2.2197830686
1.2800000000	2.1476740522
1.2850000000	2.1514088195
1.2900000000	2.2277139278
1.2950000000	2.3799549766
1.3000000000	2.6285701877
1.3050000000	2.9994214745
1.3100000000	3.5423527416
1.3150000000	4.3440197281
1.3200000000	5.5608486841
1.3250000000	7.4905197639
1.3300000000	10.7870967813
1.3350000000	16.9649612654
1.3400000000	30.1698987910
1.3450000000	62.9438482200
1.3500000000	133.4408599093
1.3550000000	124.3691517103
1.3600000000	57.3315441871
1.3650000000	28.1662217532
1.3700000000	16.1543919702
1.3750000000	10.3909570196
1.3800000000	7.2486165604
1.3850000000	5.3554871763
1.3900000000	4.1348004422
1.3950000000	3.3015321704
1.4000000000	2.7079586769
1.4050000000	2.2708931117
1.4100000000	1.9395062227
1.4150000000	1.6826700111
1.4200000000	1.4772239330
1.4250000000	1.3127035155
1.4300000000	1.1796813983
1.4350000000	1.0445274857
1.4400000000	0.6161744429
1.4450000000	-0.4932855602
1.4500000000	-2.5226349799
1.4550000000	-0.9159512100
1.4600000000	2.3024961194
1.4650000000	1.4008637734
1.4700000000	-0.5989244562
1.4750000000	-3.6564539726
1.4800000000	-1.5938865782
1.4850000000	2.8697733005
1.4900000000	2.3216721676
1.4950000000	1.5126849012
1.5000000000	1.0698782094
1.5050000000	0.8293322515
1.5100000000	0.6914283273
1.5150000000	0.6065465321
1.5200000000	0.5507119019
1.5250000000	0.5151702002
1.5300000000	0.4869312670
1.5350000000	0.4662598260
1.5400000000	0.4511166893
1.5450000000	0.4402559122
1.5500000000	0.4328597362
1.5550000000	0.4285139893
1.5600000000	0.4279109616
1.5650000000	0.4294542764
1.5700000000	0.4345902270
1.5750000000	0.4442983251
1.5800000000	0.4605677401
1.5850000000	0.4873169121
1.5900000000	0.5328105863
1.5950000000	0.6152105255
1.6000000000	0.7723640564
1.6050000000	1.0267603240
1.6100000000	1.1396489583
1.6150000000	0.9212073648
1.6200000000	0.7237166777
1.6250000000	0.6258364115
1.6300000000	0.5831252280
1.6350000000	0.5679405409
1.6400000000	0.5679053917
1.6450000000	0.5774228118
1.6500000000	0.5938513380
1.6550000000	0.6160901329
1.6600000000	0.6437147882
1.6650000000	0.6767795407
1.6700000000	0.7156621920
1.6750000000	0.7610173095
1.6800000000	0.8137726786
1.6850000000	0.8751629900
1.6900000000	0.9467716762
1.6950000000	1.0301038436
1.7000000000	1.1283356474
1.7050000000	1.2472584473
1.7100000000	1.3937388073
1.7150000000	1.6016983311
1.7200000000	1.8898324287
1.7250000000	2.2390978316
1.7300000000	2.6777377490
1.7350000000	3.1464917174
1.7400000000	3.5603671609
1.7450000000	4.0750411737
1.7500000000	4.8735013621
1.7550000000	6.0788039460
1.7600000000	7.8912146677
1.7650000000	10.6889896964
1.7700000000	15.1957498254
1.7750000000	22.7840149020
1.7800000000	35.7016580017
1.7850000000	54.7216473320
1.7900000000	67.9098411912
1.7950000000	57.7350135025
1.8000000000	38.3539001123
1.8050000000	24.1697293744
1.8100000000	15.8962120163
1.8150000000	11.0498990405
1.8200000000	8.0683377606
1.8250000000	6.1351895959
1.8300000000	4.8217487842
1.8350000000	3.8932478091
1.8400000000	3.2149692108
1.8450000000	2.7050232628
1.8500000000	2.3117296568
1.8550000000	2.0026659709
1.8600000000	1.7549046471
1.8650000000	1.5526020757
1.8700000000	1.3840616094
1.8750000000	1.2401126373
1.8800000000	1.1126915307
1.8850000000	0.9936204920
1.8900000000	0.8725068647
1.8950000000	0.7335480930
1.9000000000	0.5501491355
1.9050000000	0.2379889891
1.9100000000	-0.2152899832
1.9150000000	-0.7034532130
1.9200000000	-0.4850696515
1.9250000000	0.9413796923
1.9300000000	2.0871675431
1.9350000000	2.1801403659
1.9400000000	1.7971235755
1.9450000000	1.4101217042
1.9500000000	1.1318577304
1.9550000000	0.9451628395
1.9600000000	0.8192027334
1.9650000000	0.7358102297
1.9700000000	0.6726601596
1.9750000000	0.6263132155
1.9800000000	0.5914044218
1.9850000000	0.5641438184
1.9900000000	0.5418306130
1.9950000000	0.5222769605
2.0000000000	0.5049553962
2.0050000000	0.4961290534
2.0100000000	0.5042268817
2.0150000000	0.5235867923
2.0200000000	0.5388234062
2.0250000000	0.5492083309
2.0300000000	0.5602940400
2.0350000000	0.5744758399
2.0400000000	0.5935807226
2.0450000000	0.6187974083
2.0500000000	0.6515546819
2.0550000000	0.6933016243
2.0600000000	0.7441074826
2.0650000000	0.7991480797
2.0700000000	0.8464549665
2.0750000000	0.8765226899
2.0800000000	0.8958415974
2.0850000000	0.9189068333
2.0900000000	0.9546924120
2.0950000000	1.0059421115
2.1000000000	1.0741333712
2.1050000000	1.1577083376
2.1100000000	1.2624977354
2.1150000000	1.3925498502
2.1200000000	1.5538723388
2.1250000000	1.7551008532
2.1300000000	2.0085483492
2.1350000000	2.3318751528
2.1400000000	2.7506083012
2.1450000000	3.3020605245
2.1500000000	4.0405484106
2.1550000000	5.0428438056
2.1600000000	6.4071049545
2.1650000000	8.2163420797
2.1700000000	10.4391172956
2.1750000000	12.6574826527
2.1800000000	14.0601112780
2.1850000000	14.2180627964
2.1900000000	13.7352836342
2.1950000000	13.4147892973
2.2000000000	13.3225390238
2.2050000000	12.6818879297
2.2100000000	11.1672300793
2.2150000000	9.2432575071
2.2200000000	7.4828781163
2.2250000000	6.0729037233
2.2300000000	4.9631041481
2.2350000000	4.0815905919
2.2400000000	3.3821891282
2.2450000000	2.8362867328
2.2500000000	2.4105480642
2.2550000000	2.0746477854
2.2600000000	1.8032714031
2.2650000000	1.5753553934
2.2700000000	1.3732009862
2.2750000000	1.1843845276
2.2800000000	1.0097821067
2.2850000000	0.8713126550
2.2900000000	0.8014463123
2.2950000000	0.8113769076
2.3000000000	0.8690778495
2.3050000000	0.9254699403
2.3100000000	0.9498092389
2.3150000000	0.9436554894
2.3200000000	0.9204685993
2.3250000000	0.8939896565
2.3300000000	0.8716443589
2.3350000000	0.8560063297
2.3400000000	0.8465424356
2.3450000000	0.8404978795
2.3500000000	0.8341947143
2.3550000000	0.8252810470
2.3600000000	0.8144092567
2.3650000000	0.8044322950
2.3700000000	0.7981785130
2.3750000000	0.7970302117
2.3800000000	0.8007530665
2.3850000000	0.8079292922
2.3900000000	0.8169794621
2.3950000000	0.8265526767
2.4000000000	0.8374550918
2.4050000000	0.8526906359
2.4100000000	0.8737857620
2.4150000000	0.9026766185
2.4200000000	0.9406802679
2.4250000000	0.9889950525
2.4300000000	1.0489651703
2.4350000000	1.1222755066
2.4400000000	1.2110939127
2.4450000000	1.3182171459
2.4500000000	1.4472046310
2.4550000000	1.6025594898
2.4600000000	1.7898422617
2.4650000000	2.0157812081
2.4700000000	2.2881695809
2.4750000000	2.6149405712
2.4800000000	3.0046747977
2.4850000000	3.4612302535
2.4900000000	3.9808277465
2.4950000000	4.5446733578
2.5000000000	5.1110155496
2.5050000000	5.6344513599
2.5100000000	5.9726075231
2.5150000000	6.0466460398
2.5200000000	5.8463720524
2.5250000000	5.4344477275
2.5300000000	4.9062070640
2.5350000000	4.3452725833
2.5400000000	3.8046105999
2.5450000000	3.3103997121
2.5500000000	2.8724226440
2.5550000000	2.4919224004
2.5600000000	2.1633789707
2.5650000000	1.8860720254
2.5700000000	1.6544686998
2.5750000000	1.4652940179
2.5800000000	1.3159902278
2.5850000000	1.2033887031
2.5900000000	1.1217691165
2.5950000000	1.0628501959
2.6000000000	1.0179702599
2.6050000000	0.9859609838
2.6100000000	0.9572196413
2.6150000000	0.9313928586
2.6200000000	0.9091261587
2.6250000000	0.8910542519
2.6300000000	0.8775605000
2.6350000000	0.8688111208
2.6400000000	0.8648933438
2.6450000000	0.8659055134
2.6500000000	0.8720589036
2.6550000000	0.8833888966
2.6600000000	0.9001925459
2.6650000000	0.9227322905
2.6700000000	0.9513174036
2.6750000000	0.9863148738
2.6800000000	1.0281331700
2.6850000000	1.0772184227
2.6900000000	1.1340017463
2.6950000000	1.1988738807
2.7000000000	1.2721055129
2.7050000000	1.3625144538
2.7100000000	1.4638443068
2.7150000000	1.5753993482
2.7200000000	1.6956759911
2.7250000000	1.8221695567
2.7300000000	1.9511963975
2.7350000000	2.0777382424
2.7400000000	2.1953605361
2.7450000000	2.2972702997
2.7500000000	2.3736071001
2.7550000000	2.4175974596
2.7600000000	2.4241543072
2.7650000000	2.3919689377
2.7700000000	2.3239728860
2.7750000000	2.2267437185
2.7800000000	2.1090053910
2.7850000000	1.9800388239
2.7900000000	1.8481348949
2.7950000000	1.7199318071
2.8000000000	1.6001116742
2.8050000000	1.4782721241
2.8100000000	1.3730951675
2.8150000000	1.2843410101
2.8200000000	1.2106146415
2.8250000000	1.1500619878
2.8300000000	1.1008231230
2.8350000000	1.0613129111
2.8400000000	1.0298462296
2.8450000000	1.0065366353
2.8500000000	0.9901491837
2.8550000000	0.9802237170
2.8600000000	0.9764346883
2.8650000000	0.9785249112
2.8700000000	0.9862653712
2.8750000000	0.9994217876
2.8800000000	1.0177230951
2.8850000000	1.0408322319
2.8900000000	1.0683342487
2.8950000000	1.0997223385
2.9000000000	1.1343953949
2.9050000000	1.1799417517
2.9100000000	1.2267031825
2.9150000000	1.2728764640
2.9200000000	1.3162931967
2.9250000000	1.3544391649
2.9300000000	1.3849513312
2.9350000000	1.4046837413
2.9400000000	1.4120605226
2.9450000000	1.4062746593
2.9500000000	1.3878011281
2.9550000000	1.3583253254
2.9600000000	1.3204144481
2.9650000000	1.2770466775
2.9700000000	1.2311445104
2.9750000000	1.1852437003
2.9800000000	1.1413108849
2.9850000000	1.1007180369
2.9900000000	1.0643094031
2.9950000000	1.0325151059
3.0000000000	1.0054738213
