# energy (eV)    P(omega), $W$ = 300 nm, $h$ = 300 nm, $s$ = 20 nm, $d/W = 5$, $E_{\rm e}$ = 200 keV
0.2000000000	0.0591515849
0.2050000000	0.0600523426
0.2100000000	0.0608894077
0.2150000000	0.0616649073
0.2200000000	0.0623807560
0.2250000000	0.0630385347
0.2300000000	0.0636395060
0.2350000000	0.0641845486
0.2400000000	0.0646741102
0.2450000000	0.0651081283
0.2500000000	0.0654859693
0.2550000000	0.0658062698
0.2600000000	0.0660669083
0.2650000000	0.0662647315
0.2700000000	0.0663954538
0.2750000000	0.0664533356
0.2800000000	0.0664308927
0.2850000000	0.0663184653
0.2900000000	0.0661036981
0.2950000000	0.0657708483
0.3000000000	0.0652998237
0.3050000000	0.0646650185
0.3100000000	0.0638336365
0.3150000000	0.0675930158
0.3200000000	0.0720575419
0.3250000000	0.0777082023
0.3300000000	0.0852826981
0.3350000000	0.0947082093
0.3400000000	0.1070506215
0.3450000000	0.1220074638
0.3500000000	0.1415653883
0.3550000000	0.1674306050
0.3600000000	0.2011765500
0.3650000000	0.2481977249
0.3700000000	0.3101357621
0.3750000000	0.3962251752
0.3800000000	0.5206405374
0.3850000000	0.7143767611
0.3900000000	1.0201934357
0.3950000000	1.5392548218
0.4000000000	2.5280633026
0.4050000000	4.7433820583
0.4100000000	10.7835317898
0.4150000000	34.5734143179
0.4200000000	22.0429259029
0.4250000000	-41.3756726435
0.4300000000	11.4829445472
0.4350000000	7.1463402840
0.4400000000	4.3620589777
0.4450000000	2.8644405704
0.4500000000	2.0028984051
0.4550000000	1.4730524248
0.4600000000	1.1281736325
0.4650000000	0.8932873027
0.4700000000	0.7273513700
0.4750000000	0.6073835856
0.4800000000	0.5184553528
0.4850000000	0.4515388115
0.4900000000	0.4004461257
0.4950000000	0.3610251967
0.5000000000	0.3304374336
0.5050000000	0.3066023746
0.5100000000	0.2881780865
0.5150000000	0.2741756355
0.5200000000	0.2635678997
0.5250000000	0.2558864265
0.5300000000	0.2506331808
0.5350000000	0.2474423462
0.5400000000	0.2460438605
0.5450000000	0.2462122284
0.5500000000	0.2478716131
0.5550000000	0.2508934840
0.5600000000	0.2552093416
0.5650000000	0.2607864448
0.5700000000	0.2675932157
0.5750000000	0.2756761637
0.5800000000	0.2851105540
0.5850000000	0.2959445029
0.5900000000	0.3082745811
0.5950000000	0.3222244467
0.6000000000	0.3379510352
0.6050000000	0.3556859081
0.6100000000	0.3756470476
0.6150000000	0.3981346919
0.6200000000	0.4235496604
0.6250000000	0.4522758104
0.6300000000	0.4848816925
0.6350000000	0.5220756982
0.6400000000	0.5645939704
0.6450000000	0.6135008920
0.6500000000	0.6701948171
0.6550000000	0.7361305657
0.6600000000	0.8135461748
0.6650000000	0.9053102174
0.6700000000	1.0147945191
0.6750000000	1.1471435590
0.6800000000	1.3092721648
0.6850000000	1.5102352026
0.6900000000	1.7640562657
0.6950000000	2.0903440438
0.7000000000	2.5202415767
0.7050000000	3.1013460234
0.7100000000	3.9142896479
0.7150000000	5.1025870396
0.7200000000	6.9333434600
0.7250000000	9.9710735189
0.7300000000	15.5446234189
0.7350000000	27.4654789980
0.7400000000	60.1448058073
0.7450000000	199.3707811462
0.7500000000	617.1603203848
0.7550000000	155.1362957650
0.7600000000	51.3364549815
0.7650000000	24.5777958644
0.7700000000	14.2820801125
0.7750000000	9.3140067120
0.7800000000	6.5493683696
0.7850000000	4.8602835901
0.7900000000	3.7519174763
0.7950000000	2.9877932958
0.8000000000	2.4386968777
0.8050000000	2.0298944319
0.8100000000	1.7182736003
0.8150000000	1.4713542080
0.8200000000	1.2765423773
0.8250000000	1.1197329874
0.8300000000	0.9913263072
0.8350000000	0.8857785619
0.8400000000	0.7973246754
0.8450000000	0.7231174183
0.8500000000	0.6603987111
0.8550000000	0.6062911404
0.8600000000	0.5601034724
0.8650000000	0.5206459120
0.8700000000	0.4857917519
0.8750000000	0.4561295072
0.8800000000	0.4309409007
0.8850000000	0.4083601079
0.8900000000	0.3902022201
0.8950000000	0.3736853320
0.9000000000	0.3605458446
0.9050000000	0.3514048225
0.9100000000	0.3430217384
0.9150000000	0.3378218135
0.9200000000	0.3369212868
0.9250000000	0.3361914847
0.9300000000	0.3310321364
0.9350000000	0.3161648116
0.9400000000	0.2344747627
0.9450000000	-0.1357967529
0.9500000000	-2.0877172517
0.9550000000	-11.9804514334
0.9600000000	2.8256215310
0.9650000000	4.9594782960
0.9700000000	2.1986704511
0.9750000000	1.1541036558
0.9800000000	0.7234082728
0.9850000000	0.5220247585
0.9900000000	0.4060471821
0.9950000000	0.3357421606
1.0000000000	0.2908580671
1.0050000000	0.2623893878
1.0100000000	0.2403407401
1.0150000000	0.2242394935
1.0200000000	0.2133875581
1.0250000000	0.2042993306
1.0300000000	0.1974069960
1.0350000000	0.1922075993
1.0400000000	0.1889127107
1.0450000000	0.1861988218
1.0500000000	0.1844384619
1.0550000000	0.1835243803
1.0600000000	0.1836934313
1.0650000000	0.1842854989
1.0700000000	0.1855715304
1.0750000000	0.1875571708
1.0800000000	0.1904212918
1.0850000000	0.1940533853
1.0900000000	0.1993766772
1.0950000000	0.2056903841
1.1000000000	0.2131996961
1.1050000000	0.2218690486
1.1100000000	0.2319643307
1.1150000000	0.2437148864
1.1200000000	0.2573840852
1.1250000000	0.2733529176
1.1300000000	0.2920886404
1.1350000000	0.3141875875
1.1400000000	0.3403193232
1.1450000000	0.3717458910
1.1500000000	0.4098069839
1.1550000000	0.4564542559
1.1600000000	0.5144413453
1.1650000000	0.5873317058
1.1700000000	0.6818448152
1.1750000000	0.8068619271
1.1800000000	0.9770788672
1.1850000000	1.2166614015
1.1900000000	1.5711008783
1.1950000000	2.1278563785
1.2000000000	3.0725654604
1.2050000000	4.8581636710
1.2100000000	8.7861217825
1.2150000000	19.4005044510
1.2200000000	47.6194610268
1.2250000000	42.7423041765
1.2300000000	17.0107902006
1.2350000000	7.9477330209
1.2400000000	4.5143104947
1.2450000000	2.9360929307
1.2500000000	2.1013503873
1.2550000000	1.6170869408
1.2600000000	1.3195144930
1.2650000000	1.1297779790
1.2700000000	1.0122678105
1.2750000000	0.9438383007
1.2800000000	0.9131076774
1.2850000000	0.9146270067
1.2900000000	0.9469992046
1.2950000000	1.0116503886
1.3000000000	1.1172638780
1.3050000000	1.2748269756
1.3100000000	1.5055191081
1.3150000000	1.8461627449
1.3200000000	2.3632292642
1.3250000000	3.1832135126
1.3300000000	4.5840542419
1.3350000000	7.2092708322
1.3400000000	12.8205684045
1.3450000000	26.7474912304
1.3500000000	56.7043161698
1.3550000000	52.8491981034
1.3600000000	24.3623146576
1.3650000000	11.9688753089
1.3700000000	6.8646068030
1.3750000000	4.4155140410
1.3800000000	3.0802203011
1.3850000000	2.2757613484
1.3900000000	1.7570468763
1.3950000000	1.4029602733
1.4000000000	1.1507277899
1.4050000000	0.9650002979
1.4100000000	0.8241779680
1.4150000000	0.7150320569
1.4200000000	0.6277185367
1.4250000000	0.5577850848
1.4300000000	0.5012108751
1.4350000000	0.4436886440
1.4400000000	0.2615692121
1.4450000000	-0.2100658264
1.4500000000	-1.0728612461
1.4550000000	-0.3896420216
1.4600000000	0.9789017017
1.4650000000	0.5956858250
1.4700000000	-0.2542021516
1.4750000000	-1.5534273128
1.4800000000	-0.6771070988
1.4850000000	1.2194416601
1.4900000000	0.9865400710
1.4950000000	0.6427987104
1.5000000000	0.4546484263
1.5050000000	0.3524390530
1.5100000000	0.2938433689
1.5150000000	0.2577774084
1.5200000000	0.2340542612
1.5250000000	0.2189545026
1.5300000000	0.2069582635
1.5350000000	0.1981783942
1.5400000000	0.1917486455
1.5450000000	0.1871398815
1.5500000000	0.1840051230
1.5550000000	0.1821689840
1.5600000000	0.1819266394
1.5650000000	0.1826012246
1.5700000000	0.1848098188
1.5750000000	0.1889728686
1.5800000000	0.1959432536
1.5850000000	0.2074006914
1.5900000000	0.2268877273
1.5950000000	0.2621889909
1.6000000000	0.3295268544
1.6050000000	0.4385397896
1.6100000000	0.4868964299
1.6150000000	0.3932304463
1.6200000000	0.3085372019
1.6250000000	0.2665327859
1.6300000000	0.2481683171
1.6350000000	0.2415948236
1.6400000000	0.2415063480
1.6450000000	0.2455028458
1.6500000000	0.2524510504
1.6550000000	0.2618773746
1.6600000000	0.2735981815
1.6650000000	0.2876345311
1.6700000000	0.3041456939
1.6750000000	0.3234089556
1.6800000000	0.3458179960
1.6850000000	0.3718969078
1.6900000000	0.4023181277
1.6950000000	0.4377206563
1.7000000000	0.4794530394
1.7050000000	0.5299739373
1.7100000000	0.5921988786
1.7150000000	0.6805490317
1.7200000000	0.8029791847
1.7250000000	0.9513862629
1.7300000000	1.1377669862
1.7350000000	1.3369365888
1.7400000000	1.5127738183
1.7450000000	1.7314318528
1.7500000000	2.0706661368
1.7550000000	2.5827591121
1.7600000000	3.3527957753
1.7650000000	4.5414837202
1.7700000000	6.4562646320
1.7750000000	9.6802748815
1.7800000000	15.1685528359
1.7850000000	23.2494853754
1.7900000000	28.8526281406
1.7950000000	24.5296008027
1.8000000000	16.2951856099
1.8050000000	10.2688116299
1.8100000000	6.7536831563
1.8150000000	4.6946585933
1.8200000000	3.4279024913
1.8250000000	2.6065801327
1.8300000000	2.0485490986
1.8350000000	1.6540648888
1.8400000000	1.3658908874
1.8450000000	1.1492350315
1.8500000000	0.9821402996
1.8550000000	0.8508314939
1.8600000000	0.7455676226
1.8650000000	0.6596172807
1.8700000000	0.5880109839
1.8750000000	0.5268524659
1.8800000000	0.4727157619
1.8850000000	0.4221263939
1.8900000000	0.3706688782
1.8950000000	0.3116292634
1.9000000000	0.2337083582
1.9050000000	0.1010816169
1.9100000000	-0.0915015051
1.9150000000	-0.2989087205
1.9200000000	-0.2061478234
1.9250000000	0.3998460223
1.9300000000	0.8866035119
1.9350000000	0.9261039395
1.9400000000	0.7634045627
1.9450000000	0.5990128092
1.9500000000	0.4808110402
1.9550000000	0.4015060803
1.9600000000	0.3480001243
1.9650000000	0.3125763255
1.9700000000	0.2857509360
1.9750000000	0.2660632864
1.9800000000	0.2512344524
1.9850000000	0.2396545543
1.9900000000	0.2301763870
1.9950000000	0.2218706518
2.0000000000	0.2145132273
2.0050000000	0.2107641560
2.0100000000	0.2142030822
2.0150000000	0.2224255294
2.0200000000	0.2288975543
2.0250000000	0.2333097794
2.0300000000	0.2380203787
2.0350000000	0.2440467048
2.0400000000	0.2521650149
2.0450000000	0.2628805833
2.0500000000	0.2768008088
2.0550000000	0.2945416926
2.0600000000	0.3161325770
2.0650000000	0.3395223230
2.0700000000	0.3596224122
2.0750000000	0.3723914030
2.0800000000	0.3805883485
2.0850000000	0.3903754361
2.0900000000	0.4055674457
2.0950000000	0.4273303717
2.1000000000	0.4562914167
2.1050000000	0.4917881460
2.1100000000	0.5362971596
2.1150000000	0.5915377476
2.1200000000	0.6600615703
2.1250000000	0.7455366649
2.1300000000	0.8531931001
2.1350000000	0.9905323527
2.1400000000	1.1683975353
2.1450000000	1.4026378405
2.1500000000	1.7163251712
2.1550000000	2.1420696778
2.1600000000	2.7215653692
2.1650000000	3.4900715210
2.1700000000	4.4342321916
2.1750000000	5.3765132599
2.1800000000	5.9722870662
2.1850000000	6.0393555986
2.1900000000	5.8342599452
2.1950000000	5.6980965876
2.2000000000	5.6588827828
2.2050000000	5.3867280398
2.2100000000	4.7433297823
2.2150000000	3.9260727525
2.2200000000	3.1783084952
2.2250000000	2.5793930260
2.2300000000	2.1079951838
2.2350000000	1.7335763579
2.2400000000	1.4365156935
2.2450000000	1.2046539135
2.2500000000	1.0238294099
2.2550000000	0.8811612043
2.2600000000	0.7658972593
2.2650000000	0.6690915946
2.2700000000	0.5832274593
2.2750000000	0.5030289804
2.2800000000	0.4288691227
2.2850000000	0.3700580257
2.2900000000	0.3403866113
2.2950000000	0.3446083618
2.3000000000	0.3691193666
2.3050000000	0.3930735926
2.3100000000	0.4034129374
2.3150000000	0.4008002969
2.3200000000	0.3909528825
2.3250000000	0.3797072096
2.3300000000	0.3702173103
2.3350000000	0.3635763243
2.3400000000	0.3595577886
2.3450000000	0.3569915415
2.3500000000	0.3543153136
2.3550000000	0.3505300650
2.3600000000	0.3459128714
2.3650000000	0.3416754844
2.3700000000	0.3390191984
2.3750000000	0.3385310757
2.3800000000	0.3401115709
2.3850000000	0.3431584525
2.3900000000	0.3470008123
2.3950000000	0.3510648443
2.4000000000	0.3556930300
2.4050000000	0.3621612678
2.4100000000	0.3711181473
2.4150000000	0.3833860960
2.4200000000	0.3995244865
2.4250000000	0.4200422244
2.4300000000	0.4455101456
2.4350000000	0.4766437720
2.4400000000	0.5143637236
2.4450000000	0.5598577261
2.4500000000	0.6146373996
2.4550000000	0.6806151464
2.4600000000	0.7601524699
2.4650000000	0.8561067238
2.4700000000	0.9717877142
2.4750000000	1.1105645404
2.4800000000	1.2760814048
2.4850000000	1.4699769710
2.4900000000	1.6906463952
2.4950000000	1.9301081154
2.5000000000	2.1706304676
2.5050000000	2.3929308574
2.5100000000	2.5365431100
2.5150000000	2.5679847348
2.5200000000	2.4829262077
2.5250000000	2.3079805438
2.5300000000	2.0836362455
2.5350000000	1.8454076233
2.5400000000	1.6157893338
2.5450000000	1.4058992657
2.5500000000	1.2198919055
2.5550000000	1.0582951174
2.5600000000	0.9187643766
2.5650000000	0.8009937888
2.5700000000	0.7026334576
2.5750000000	0.6222924307
2.5800000000	0.5588843923
2.5850000000	0.5110635838
2.5900000000	0.4764005795
2.5950000000	0.4513783776
2.6000000000	0.4323184460
2.6050000000	0.4187246241
2.6100000000	0.4065186955
2.6150000000	0.3955505501
2.6200000000	0.3860942670
2.6250000000	0.3784193119
2.6300000000	0.3726883947
2.6350000000	0.3689720610
2.6400000000	0.3673073230
2.6450000000	0.3677359902
2.6500000000	0.3703478397
2.6550000000	0.3751579799
2.6600000000	0.3822926060
2.6650000000	0.3918632006
2.6700000000	0.4040011191
2.6750000000	0.4188622105
2.6800000000	0.4366199301
2.6850000000	0.4574637176
2.6900000000	0.4815766340
2.6950000000	0.5091246005
2.7000000000	0.5402225477
2.7050000000	0.5786150595
2.7100000000	0.6216452726
2.7150000000	0.6690177297
2.7200000000	0.7200938952
2.7250000000	0.7738100998
2.7300000000	0.8286020504
2.7350000000	0.8823385964
2.7400000000	0.9322871623
2.7450000000	0.9755631047
2.7500000000	1.0079789437
2.7550000000	1.0266583901
2.7600000000	1.0294412119
2.7650000000	1.0157717459
2.7700000000	0.9868949685
2.7750000000	0.9456042733
2.7800000000	0.8956044006
2.7850000000	0.8408365639
2.7900000000	0.7848216272
2.7950000000	0.7303784707
2.8000000000	0.6794954068
2.8050000000	0.6277550337
2.8100000000	0.5830906961
2.8150000000	0.5454005106
2.8200000000	0.5140920438
2.8250000000	0.4883779123
2.8300000000	0.4674682531
2.8350000000	0.4506898940
2.8400000000	0.4373272084
2.8450000000	0.4274283985
2.8500000000	0.4204690165
2.8550000000	0.4162536520
2.8600000000	0.4146440616
2.8650000000	0.4155310282
2.8700000000	0.4188173227
2.8750000000	0.4244034495
2.8800000000	0.4321742996
2.8850000000	0.4419867500
2.8900000000	0.4536645851
2.8950000000	0.4669925867
2.9000000000	0.4817154857
2.9050000000	0.5010555739
2.9100000000	0.5209115704
2.9150000000	0.5405177531
2.9200000000	0.5589533362
2.9250000000	0.5751506935
2.9300000000	0.5881064032
2.9350000000	0.5964845870
2.9400000000	0.5996161046
2.9450000000	0.5971583108
2.9500000000	0.5893129146
2.9550000000	0.5767956511
2.9600000000	0.5606966479
2.9650000000	0.5422805615
2.9700000000	0.5227883848
2.9750000000	0.5032968787
2.9800000000	0.4846411255
2.9850000000	0.4674036842
2.9900000000	0.4519430510
2.9950000000	0.4384418369
3.0000000000	0.4269589188
