# energy (eV)    P(omega), $W$ = 300 nm, $h$ = 300 nm, $s$ = 20 nm, $d/W = 5$, $E_{\rm e}$ = 200 keV
0.2000000000	0.2090982852
0.2050000000	0.2122305648
0.2100000000	0.2151583965
0.2150000000	0.2178884510
0.2200000000	0.2204264443
0.2250000000	0.2227772204
0.2300000000	0.2249444928
0.2350000000	0.2269307231
0.2400000000	0.2287368658
0.2450000000	0.2303622504
0.2500000000	0.2318042156
0.2550000000	0.2330576488
0.2600000000	0.2341148616
0.2650000000	0.2349646818
0.2700000000	0.2355919694
0.2750000000	0.2359766511
0.2800000000	0.2360926665
0.2850000000	0.2359064942
0.2900000000	0.2353752080
0.2950000000	0.2344443239
0.3000000000	0.2330442499
0.3050000000	0.2310863041
0.3100000000	0.2284569503
0.3150000000	0.2414550753
0.3200000000	0.2568920868
0.3250000000	0.2764175140
0.3300000000	0.3025674750
0.3350000000	0.3351171547
0.3400000000	0.3777415516
0.3450000000	0.4294388350
0.3500000000	0.4970658778
0.3550000000	0.5865454432
0.3600000000	0.7033725704
0.3650000000	0.8662358247
0.3700000000	1.0809689254
0.3750000000	1.3796549350
0.3800000000	1.8116182306
0.3850000000	2.4846705898
0.3900000000	3.5478920797
0.3950000000	5.3538143824
0.4000000000	8.7963975826
0.4050000000	16.5142725291
0.4100000000	37.5725483643
0.4150000000	120.5729726086
0.4200000000	76.8234767224
0.4250000000	-144.5853894956
0.4300000000	40.2018279085
0.4350000000	25.0504222300
0.4400000000	15.3121822545
0.4450000000	10.0704137232
0.4500000000	7.0529713838
0.4550000000	5.1961222117
0.4600000000	3.9868058972
0.4650000000	3.1627509262
0.4700000000	2.5803364711
0.4750000000	2.1591281946
0.4800000000	1.8468396082
0.4850000000	1.6118496577
0.4900000000	1.4324723732
0.4950000000	1.2941502210
0.5000000000	1.1869325898
0.5050000000	1.1035191253
0.5100000000	1.0392086465
0.5150000000	0.9905397994
0.5200000000	0.9538960586
0.5250000000	0.9276467902
0.5300000000	0.9100427565
0.5350000000	0.8998043331
0.5400000000	0.8959880849
0.5450000000	0.8978059503
0.5500000000	0.9050077264
0.5550000000	0.9171489475
0.5600000000	0.9340020220
0.5650000000	0.9554643703
0.5700000000	0.9814422774
0.5750000000	1.0121170381
0.5800000000	1.0477834914
0.5850000000	1.0886336590
0.5900000000	1.1350405631
0.5950000000	1.1874736837
0.6000000000	1.2465310415
0.6050000000	1.3130800370
0.6100000000	1.3879477746
0.6150000000	1.4722646431
0.6200000000	1.5675386185
0.6250000000	1.6752153779
0.6300000000	1.7974319547
0.6350000000	1.9368518672
0.6400000000	2.0962463189
0.6450000000	2.2796157498
0.6500000000	2.4922198602
0.6550000000	2.7395335662
0.6600000000	3.0299723002
0.6650000000	3.3743329062
0.6700000000	3.7853094053
0.6750000000	4.2822581640
0.6800000000	4.8912110809
0.6850000000	5.6462673536
0.6900000000	6.6002416139
0.6950000000	7.8269977284
0.7000000000	9.4438695396
0.7050000000	11.6302266879
0.7100000000	14.6899883096
0.7150000000	19.1641621123
0.7200000000	26.0599292502
0.7250000000	37.5063067093
0.7300000000	58.5159988440
0.7350000000	103.4700928072
0.7400000000	226.7563667828
0.7450000000	752.2418970200
0.7500000000	2330.3935129824
0.7550000000	586.2470962197
0.7600000000	194.1469188286
0.7650000000	93.0219780216
0.7700000000	54.0970015875
0.7750000000	35.3067763783
0.7800000000	24.8462975879
0.7850000000	18.4529385700
0.7900000000	14.2560787350
0.7950000000	11.3616308358
0.8000000000	9.2809413101
0.8050000000	7.7313085806
0.8100000000	6.5496401202
0.8150000000	5.6129251847
0.8200000000	4.8736503616
0.8250000000	4.2784013941
0.8300000000	3.7908037645
0.8350000000	3.3899116453
0.8400000000	3.0538504303
0.8450000000	2.7718533711
0.8500000000	2.5334857255
0.8550000000	2.3277862968
0.8600000000	2.1521880304
0.8650000000	2.0021973402
0.8700000000	1.8696692857
0.8750000000	1.7569342872
0.8800000000	1.6612748803
0.8850000000	1.5755111368
0.8900000000	1.5067107911
0.8950000000	1.4441237172
0.9000000000	1.3945175350
0.9050000000	1.3603480883
0.9100000000	1.3290345484
0.9150000000	1.3100336015
0.9200000000	1.3077305919
0.9250000000	1.3060188502
0.9300000000	1.2868475106
0.9350000000	1.2293560723
0.9400000000	0.9091470467
0.9450000000	-0.5462236464
0.9500000000	-8.2266503862
0.9550000000	-47.1823927754
0.9600000000	11.1333387110
0.9650000000	19.5569458224
0.9700000000	8.6741767371
0.9750000000	4.5537322301
0.9800000000	2.8539008681
0.9850000000	2.0588890877
0.9900000000	1.6008238933
0.9950000000	1.3230652182
1.0000000000	1.1457155491
1.0050000000	1.0332790268
1.0100000000	0.9461138343
1.0150000000	0.8824341029
1.0200000000	0.8395415157
1.0250000000	0.8035402513
1.0300000000	0.7761908662
1.0350000000	0.7555015848
1.0400000000	0.7423480665
1.0450000000	0.7314117682
1.0500000000	0.7241984304
1.0550000000	0.7202808154
1.0600000000	0.7206239923
1.0650000000	0.7225418128
1.0700000000	0.7271294564
1.0750000000	0.7344059049
1.0800000000	0.7450899092
1.0850000000	0.7586486809
1.0900000000	0.7786491095
1.0950000000	0.8024005122
1.1000000000	0.8306995284
1.1050000000	0.8633156831
1.1100000000	0.9012787876
1.1150000000	0.9454425860
1.1200000000	0.9968186791
1.1250000000	1.0567309439
1.1300000000	1.1269508708
1.1350000000	1.2096844349
1.1400000000	1.3074432547
1.1450000000	1.4248147752
1.1500000000	1.5667853552
1.1550000000	1.7405646375
1.1600000000	1.9563240333
1.1650000000	2.2272608872
1.1700000000	2.5781004594
1.1750000000	3.0416630792
1.1800000000	3.6722080877
1.1850000000	4.5589222352
1.1900000000	5.8698911295
1.1950000000	7.9278566947
1.2000000000	11.4184610940
1.2050000000	18.0147684849
1.2100000000	32.5252685954
1.2150000000	71.7467268487
1.2200000000	176.0800002370
1.2250000000	158.1944219385
1.2300000000	63.1009411732
1.2350000000	29.5939769561
1.2400000000	16.9023889474
1.2450000000	11.0750055514
1.2500000000	8.0007493794
1.2550000000	6.2264412715
1.2600000000	5.1466575761
1.2650000000	4.4701802160
1.2700000000	4.0666511766
1.2750000000	3.8515502231
1.2800000000	3.7846293931
1.2850000000	3.8482958999
1.2900000000	4.0410970636
1.2950000000	4.3730521354
1.3000000000	4.8851689955
1.3050000000	5.6300347257
1.3100000000	6.7057155577
1.3150000000	8.2818946532
1.3200000000	10.6636283587
1.3250000000	14.4323439117
1.3300000000	20.8614601959
1.3350000000	32.9033649341
1.3400000000	58.6404468059
1.3450000000	122.5331011720
1.3500000000	260.0426125872
1.3550000000	242.5260669787
1.3600000000	111.8401490551
1.3650000000	54.9511537141
1.3700000000	31.5139127654
1.3750000000	20.2663780066
1.3800000000	14.1336175238
1.3850000000	10.4393076216
1.3900000000	8.0582752859
1.3950000000	6.4337685380
1.4000000000	5.2782189394
1.4050000000	4.4294909336
1.4100000000	3.7893817101
1.4150000000	3.2992213827
1.4200000000	2.9176129830
1.4250000000	2.6335323755
1.4300000000	2.4525267545
1.4350000000	2.3324018315
1.4400000000	1.6022068461
1.4450000000	-0.4197644976
1.4500000000	-3.9392354467
1.4550000000	-1.3172275118
1.4600000000	4.0031286995
1.4650000000	2.3200522657
1.4700000000	-1.4756970332
1.4750000000	-7.4787591550
1.4800000000	-3.2990885861
1.4850000000	5.6553012832
1.4900000000	4.5781423297
1.4950000000	2.9704607267
1.5000000000	2.0915103715
1.5050000000	1.6156841662
1.5100000000	1.3433113740
1.5150000000	1.1763173616
1.5200000000	1.0669445344
1.5250000000	0.9975339986
1.5300000000	0.9428440133
1.5350000000	0.9031285232
1.5400000000	0.8743752775
1.5450000000	0.8541930155
1.5500000000	0.8409310914
1.5550000000	0.8339048093
1.5600000000	0.8345480373
1.5650000000	0.8399939928
1.5700000000	0.8533352945
1.5750000000	0.8770201148
1.5800000000	0.9159181990
1.5850000000	0.9796159481
1.5900000000	1.0883906500
1.5950000000	1.2870656247
1.6000000000	1.6700907488
1.6050000000	2.2986864203
1.6100000000	2.5914888706
1.6150000000	2.0610902648
1.6200000000	1.5693725104
1.6250000000	1.3193065755
1.6300000000	1.2043644501
1.6350000000	1.1567728640
1.6400000000	1.1458336441
1.6450000000	1.1575024404
1.6500000000	1.1849416523
1.6550000000	1.2253326401
1.6600000000	1.2772373374
1.6650000000	1.3404506434
1.6700000000	1.4154887401
1.6750000000	1.5034283245
1.6800000000	1.6058494093
1.6850000000	1.7248622528
1.6900000000	1.8629216963
1.6950000000	2.0214506507
1.7000000000	2.2039384219
1.7050000000	2.4150677000
1.7100000000	2.6709410567
1.7150000000	3.1010660339
1.7200000000	3.7508522683
1.7250000000	4.4533154934
1.7300000000	5.2885982615
1.7350000000	6.1922556876
1.7400000000	7.0263335589
1.7450000000	8.0774774168
1.7500000000	9.6889424233
1.7550000000	12.1060461856
1.7600000000	15.7325255179
1.7650000000	21.3272799932
1.7700000000	30.3397983762
1.7750000000	45.5194711796
1.7800000000	71.3729826638
1.7850000000	109.4707572012
1.7900000000	135.9518553725
1.7950000000	115.6727523503
1.8000000000	76.9089007015
1.8050000000	48.5130369189
1.8100000000	31.9412218264
1.8150000000	22.2305136411
1.8200000000	16.2548792940
1.8250000000	12.3801813619
1.8300000000	9.7479678616
1.8350000000	7.8880427433
1.8400000000	6.5305301934
1.8450000000	5.5115129954
1.8500000000	4.7275801675
1.8550000000	4.1138952760
1.8600000000	3.6248539839
1.8650000000	3.2291103722
1.8700000000	2.9038244932
1.8750000000	2.6314771219
1.8800000000	2.3971570244
1.8850000000	2.1863273153
1.8900000000	1.9809973542
1.8950000000	1.7539147481
1.9000000000	1.4589022511
1.9050000000	0.9452676628
1.9100000000	0.2076878895
1.9150000000	-0.5022844889
1.9200000000	0.3562317805
1.9250000000	3.7890668267
1.9300000000	6.5313046343
1.9350000000	6.5926021932
1.9400000000	5.2921733302
1.9450000000	4.0109064322
1.9500000000	3.1027843071
1.9550000000	2.5021014495
1.9600000000	2.1018126766
1.9650000000	1.8350856888
1.9700000000	1.6387383755
1.9750000000	1.4947598523
1.9800000000	1.3854816769
1.9850000000	1.2982331578
1.9900000000	1.2235826040
1.9950000000	1.1535349203
2.0000000000	1.0866528507
2.0050000000	1.0468835968
2.0100000000	1.0736154954
2.0150000000	1.1433316901
2.0200000000	1.1904413193
2.0250000000	1.2109272995
2.0300000000	1.2265565282
2.0350000000	1.2474011397
2.0400000000	1.2783615358
2.0450000000	1.3215196202
2.0500000000	1.3789927373
2.0550000000	1.4528863786
2.0600000000	1.5433199927
2.0650000000	1.6430667033
2.0700000000	1.7341390661
2.0750000000	1.8024886453
2.0800000000	1.8585543060
2.0850000000	1.9250248294
2.0900000000	2.0163291430
2.0950000000	2.1374646514
2.1000000000	2.2922518951
2.1050000000	2.4783513425
2.1100000000	2.7087299856
2.1150000000	2.9926798384
2.1200000000	3.3435682930
2.1250000000	3.7803627005
2.1300000000	4.3299398525
2.1350000000	5.0307543306
2.1400000000	5.9383464053
2.1450000000	7.1338992531
2.1500000000	8.7356337173
2.1550000000	10.9107612334
2.1600000000	13.8732159659
2.1650000000	17.8042911189
2.1700000000	22.6348557191
2.1750000000	27.4516275611
2.1800000000	30.4764799396
2.1850000000	30.7596728686
2.1900000000	29.6107686732
2.1950000000	28.7955726369
2.2000000000	28.5105533161
2.2050000000	27.1706093462
2.2100000000	24.0975011642
2.2150000000	20.2309338067
2.2200000000	16.7140954896
2.2250000000	13.8644541215
2.2300000000	11.5251276629
2.2350000000	9.5674100427
2.2400000000	7.9600317192
2.2450000000	6.6908339480
2.2500000000	5.7072802316
2.2550000000	4.9460695159
2.2600000000	4.3486087733
2.2650000000	3.8620856387
2.2700000000	3.4365074662
2.2750000000	3.0296257697
2.2800000000	2.6316300935
2.2850000000	2.2911183083
2.2900000000	2.0908628608
2.2950000000	2.0679634969
2.3000000000	2.1585214616
2.3050000000	2.2539497230
2.3100000000	2.2876814541
2.3150000000	2.2618144610
2.3200000000	2.2051336300
2.3250000000	2.1472224038
2.3300000000	2.1037854179
2.3350000000	2.0794072415
2.3400000000	2.0706357024
2.3450000000	2.0674300878
2.3500000000	2.0568570544
2.3550000000	2.0306545080
2.3600000000	1.9911082197
2.3650000000	1.9482960040
2.3700000000	1.9124608239
2.3750000000	1.8892958032
2.3800000000	1.8797150143
2.3850000000	1.8814314681
2.3900000000	1.8915233362
2.3950000000	1.9071910648
2.4000000000	1.9298289650
2.4050000000	1.9653537234
2.4100000000	2.0162831162
2.4150000000	2.0860900644
2.4200000000	2.1771677417
2.4250000000	2.2920827930
2.4300000000	2.4339843717
2.4350000000	2.6069099326
2.4400000000	2.8160559009
2.4450000000	3.0680858214
2.4500000000	3.3714454845
2.4550000000	3.7367896617
2.4600000000	4.1772227863
2.4650000000	4.7085397110
2.4700000000	5.3489195215
2.4750000000	6.1166906890
2.4800000000	7.0311986888
2.4850000000	8.1004808529
2.4900000000	9.3145248678
2.4950000000	10.6290505159
2.5000000000	11.9484504124
2.5050000000	13.1713330152
2.5100000000	13.9731855138
2.5150000000	14.1719701767
2.5200000000	13.7372505966
2.5250000000	12.8038535995
2.5300000000	11.5860222860
2.5350000000	10.2781226037
2.5400000000	9.0084290459
2.5450000000	7.8438817388
2.5500000000	6.8114371857
2.5550000000	5.9157260001
2.5600000000	5.1439712451
2.5650000000	4.4933617256
2.5700000000	3.9500823797
2.5750000000	3.5057853062
2.5800000000	3.1540881091
2.5850000000	2.8874608176
2.5900000000	2.6927373962
2.5950000000	2.5510218215
2.6000000000	2.4425625683
2.6050000000	2.3651732091
2.6100000000	2.2965616676
2.6150000000	2.2358071202
2.6200000000	2.1843352221
2.6250000000	2.1436072318
2.6300000000	2.1145601285
2.6350000000	2.0976422388
2.6400000000	2.0930904989
2.6450000000	2.1011454479
2.6500000000	2.1223011496
2.6550000000	2.1566685739
2.6600000000	2.2050021032
2.6650000000	2.2680192374
2.6700000000	2.3465656839
2.6750000000	2.4416295788
2.6800000000	2.5542670349
2.6850000000	2.6855606290
2.6900000000	2.8364675454
2.6950000000	3.0077201853
2.7000000000	3.1995886027
2.7050000000	3.4345228239
2.7100000000	3.6946610400
2.7150000000	3.9768272764
2.7200000000	4.2756862553
2.7250000000	4.5836509922
2.7300000000	4.8909014398
2.7350000000	5.1854180197
2.7400000000	5.4529031328
2.7450000000	5.6790900524
2.7500000000	5.8427940928
2.7550000000	5.9299933907
2.7600000000	5.9300986565
2.7650000000	5.8407789921
2.7700000000	5.6691479698
2.7750000000	5.4305639468
2.7800000000	5.1452962563
2.7850000000	4.8349033815
2.7900000000	4.5186988474
2.7950000000	4.2121628832
2.8000000000	3.9262485657
2.8050000000	3.6358376636
2.8100000000	3.3858447346
2.8150000000	3.1757097625
2.8200000000	3.0021491040
2.8250000000	2.8607980209
2.8300000000	2.7472544009
2.8350000000	2.6577703284
2.8400000000	2.5883598758
2.8450000000	2.5392645497
2.8500000000	2.5075567795
2.8550000000	2.4921291466
2.8600000000	2.4921649557
2.8650000000	2.5069725744
2.8700000000	2.5358761418
2.8750000000	2.5781042422
2.8800000000	2.6327155637
2.8850000000	2.6985160007
2.8900000000	2.7740794961
2.8950000000	2.8577183480
2.9000000000	2.9475737508
2.9050000000	3.0611994372
2.9100000000	3.1747569243
2.9150000000	3.2841919044
2.9200000000	3.3848488176
2.9250000000	3.4713565916
2.9300000000	3.5387105897
2.9350000000	3.5798944367
2.9400000000	3.5915629104
2.9450000000	3.5720826778
2.9500000000	3.5227899692
2.9550000000	3.4478755596
2.9600000000	3.3535733266
2.9650000000	3.2470607332
2.9700000000	3.1353565394
2.9750000000	3.0245137677
2.9800000000	2.9192127833
2.9850000000	2.8226879812
2.9900000000	2.7369316397
2.9950000000	2.6629107451
3.0000000000	2.6009051718
