# energy (eV)    P(omega), $W$ = 300 nm, $h$ = 300 nm, $s$ = 20 nm, $d/W = 5$, $E_{\rm e}$ = 200 keV
0.2000000000	0.0479908929
0.2050000000	0.0487216996
0.2100000000	0.0494008315
0.2150000000	0.0500300142
0.2200000000	0.0506108012
0.2250000000	0.0511444750
0.2300000000	0.0516320599
0.2350000000	0.0520742689
0.2400000000	0.0524714652
0.2450000000	0.0528235979
0.2500000000	0.0531301531
0.2550000000	0.0533900245
0.2600000000	0.0536014910
0.2650000000	0.0537619942
0.2700000000	0.0538680571
0.2750000000	0.0539150229
0.2800000000	0.0538968196
0.2850000000	0.0538056100
0.2900000000	0.0536313699
0.2950000000	0.0533613268
0.3000000000	0.0529791794
0.3050000000	0.0524641533
0.3100000000	0.0517896400
0.3150000000	0.0548397098
0.3200000000	0.0584618811
0.3250000000	0.0630463896
0.3300000000	0.0691917487
0.3350000000	0.0768388781
0.3400000000	0.0868525550
0.3450000000	0.0989873784
0.3500000000	0.1148551641
0.3550000000	0.1358401984
0.3600000000	0.1632190472
0.3650000000	0.2013683919
0.3700000000	0.2516201278
0.3750000000	0.3214664272
0.3800000000	0.4224074461
0.3850000000	0.5795900660
0.3900000000	0.8277061272
0.3950000000	1.2488325210
0.4000000000	2.0510755309
0.4050000000	3.8484145598
0.4100000000	8.7489271172
0.4150000000	28.0502076686
0.4200000000	17.8839351432
0.4250000000	-33.5690419546
0.4300000000	9.3163796773
0.4350000000	5.7979923518
0.4400000000	3.5390403427
0.4450000000	2.3239877263
0.4500000000	1.6249985138
0.4550000000	1.1951221201
0.4600000000	0.9153139042
0.4650000000	0.7247451355
0.4700000000	0.5901174309
0.4750000000	0.4927847581
0.4800000000	0.4206351991
0.4850000000	0.3663442408
0.4900000000	0.3248915473
0.4950000000	0.2929084248
0.5000000000	0.2680918569
0.5050000000	0.2487539177
0.5100000000	0.2338058646
0.5150000000	0.2224453530
0.5200000000	0.2138390544
0.5250000000	0.2076069025
0.5300000000	0.2033448297
0.5350000000	0.2007560407
0.5400000000	0.1996214278
0.5450000000	0.1997580412
0.5500000000	0.2011043530
0.5550000000	0.2035560835
0.5600000000	0.2070576572
0.5650000000	0.2115825108
0.5700000000	0.2171050247
0.5750000000	0.2236629329
0.5800000000	0.2313173004
0.5850000000	0.2401071652
0.5900000000	0.2501108776
0.5950000000	0.2614287646
0.6000000000	0.2741881524
0.6050000000	0.2885769124
0.6100000000	0.3047718993
0.6150000000	0.3230167045
0.6200000000	0.3436365224
0.6250000000	0.3669427868
0.6300000000	0.3933967773
0.6350000000	0.4235732302
0.6400000000	0.4580693972
0.6450000000	0.4977488394
0.6500000000	0.5437460773
0.6550000000	0.5972414439
0.6600000000	0.6600507165
0.6650000000	0.7345012413
0.6700000000	0.8233286688
0.6750000000	0.9307068448
0.6800000000	1.0622459475
0.6850000000	1.2252924248
0.6900000000	1.4312239750
0.6950000000	1.6959496349
0.7000000000	2.0447365540
0.7050000000	2.5162015295
0.7100000000	3.1757635927
0.7150000000	4.1398598211
0.7200000000	5.6251995896
0.7250000000	8.0897881350
0.7300000000	12.6117525367
0.7350000000	22.2834493917
0.7400000000	48.7970282068
0.7450000000	161.7546455266
0.7500000000	500.7180559088
0.7550000000	125.8660717857
0.7600000000	41.6505882557
0.7650000000	19.9405990069
0.7700000000	11.5874196390
0.7750000000	7.5566937084
0.7800000000	5.3136713846
0.7850000000	3.9432733765
0.7900000000	3.0440273806
0.7950000000	2.4240737377
0.8000000000	1.9785776551
0.8050000000	1.6469056895
0.8100000000	1.3940796738
0.8150000000	1.1937476012
0.8200000000	1.0356917376
0.8250000000	0.9084682351
0.8300000000	0.8042885815
0.8350000000	0.7186549723
0.8400000000	0.6468900506
0.8450000000	0.5866837873
0.8500000000	0.5357984809
0.8550000000	0.4918996114
0.8600000000	0.4544263634
0.8650000000	0.4224134253
0.8700000000	0.3941353448
0.8750000000	0.3700695991
0.8800000000	0.3496334313
0.8850000000	0.3313130500
0.8900000000	0.3165810853
0.8950000000	0.3031805061
0.9000000000	0.2925200994
0.9050000000	0.2851037498
0.9100000000	0.2783023351
0.9150000000	0.2740834993
0.9200000000	0.2733528755
0.9250000000	0.2727607655
0.9300000000	0.2685748528
0.9350000000	0.2565126142
0.9400000000	0.1902354063
0.9450000000	-0.1101752601
0.9500000000	-1.6938178310
0.9550000000	-9.7200437386
0.9600000000	2.2924982707
0.9650000000	4.0237502752
0.9700000000	1.7838369741
0.9750000000	0.9363535013
0.9800000000	0.5869194433
0.9850000000	0.4235319062
0.9900000000	0.3294363681
0.9950000000	0.2723961289
1.0000000000	0.2359805314
1.0050000000	0.2128831740
1.0100000000	0.1949945513
1.0150000000	0.1819312057
1.0200000000	0.1731267586
1.0250000000	0.1657532533
1.0300000000	0.1601613317
1.0350000000	0.1559429337
1.0400000000	0.1532697112
1.0450000000	0.1510678697
1.0500000000	0.1496396509
1.0550000000	0.1488980397
1.0600000000	0.1490352020
1.0650000000	0.1495155694
1.0700000000	0.1505589684
1.0750000000	0.1521699790
1.0800000000	0.1544937240
1.0850000000	0.1574405468
1.0900000000	0.1617594850
1.0950000000	0.1668819744
1.1000000000	0.1729744909
1.1050000000	0.1800081817
1.1100000000	0.1881987695
1.1150000000	0.1977323275
1.1200000000	0.2088225350
1.1250000000	0.2217785014
1.1300000000	0.2369793254
1.1350000000	0.2549088298
1.1400000000	0.2761102514
1.1450000000	0.3016075233
1.1500000000	0.3324875776
1.1550000000	0.3703338478
1.1600000000	0.4173804411
1.1650000000	0.4765184909
1.1700000000	0.5531997066
1.1750000000	0.6546297084
1.1800000000	0.7927316504
1.1850000000	0.9871119215
1.1900000000	1.2746789831
1.1950000000	1.7263909497
1.2000000000	2.4928609944
1.2050000000	3.9415689722
1.2100000000	7.1284361787
1.2150000000	15.7401951383
1.2200000000	38.6350595531
1.2250000000	34.6780793495
1.2300000000	13.8013495516
1.2350000000	6.4482261653
1.2400000000	3.6625899393
1.2450000000	2.3821357122
1.2500000000	1.7048844739
1.2550000000	1.3119871418
1.2600000000	1.0705576318
1.2650000000	0.9166185183
1.2700000000	0.8212786837
1.2750000000	0.7657593421
1.2800000000	0.7408261017
1.2850000000	0.7420580570
1.2900000000	0.7683216660
1.2950000000	0.8207739160
1.3000000000	0.9064597329
1.3050000000	1.0342932915
1.3100000000	1.2214578331
1.3150000000	1.4978280996
1.3200000000	1.9173335360
1.3250000000	2.5826017169
1.3300000000	3.7191294788
1.3350000000	5.8490159023
1.3400000000	10.4015646961
1.3450000000	21.7007327817
1.3500000000	46.0052537188
1.3550000000	42.8775235688
1.3600000000	19.7655921313
1.3650000000	9.7105677051
1.3700000000	5.5693812438
1.3750000000	3.5823874794
1.3800000000	2.4990392423
1.3850000000	1.8463669696
1.3900000000	1.4255244090
1.3950000000	1.1382474429
1.4000000000	0.9336065681
1.4050000000	0.7829223880
1.4100000000	0.6686705508
1.4150000000	0.5801183042
1.4200000000	0.5092789447
1.4250000000	0.4525400734
1.4300000000	0.4066391442
1.4350000000	0.3599680545
1.4400000000	0.2122097273
1.4450000000	-0.1704381623
1.4500000000	-0.8704458945
1.4550000000	-0.3161304021
1.4600000000	0.7942076641
1.4650000000	0.4832965645
1.4700000000	-0.2062346106
1.4750000000	-1.2603192869
1.4800000000	-0.5493468073
1.4850000000	0.9893545566
1.4900000000	0.8003973345
1.4950000000	0.5215140741
1.5000000000	0.3688645057
1.5050000000	0.2859402541
1.5100000000	0.2384005436
1.5150000000	0.2091395836
1.5200000000	0.1898925599
1.5250000000	0.1776418432
1.5300000000	0.1679090607
1.5350000000	0.1607857731
1.5400000000	0.1555691767
1.5450000000	0.1518299723
1.5500000000	0.1492866496
1.5550000000	0.1477969109
1.5600000000	0.1476002340
1.5650000000	0.1481474590
1.5700000000	0.1499392243
1.5750000000	0.1533166284
1.5800000000	0.1589715971
1.5850000000	0.1682668548
1.5900000000	0.1840764058
1.5950000000	0.2127157780
1.6000000000	0.2673458731
1.6050000000	0.3557861387
1.6100000000	0.3950168974
1.6150000000	0.3190273732
1.6200000000	0.2503174483
1.6250000000	0.2162402604
1.6300000000	0.2013417606
1.6350000000	0.1960090903
1.6400000000	0.1959376267
1.6450000000	0.1991802630
1.6500000000	0.2048176076
1.6550000000	0.2124654530
1.6600000000	0.2219748271
1.6650000000	0.2333628255
1.6700000000	0.2467586729
1.6750000000	0.2623873418
1.6800000000	0.2805682361
1.6850000000	0.3017265684
1.6900000000	0.3264079093
1.6950000000	0.3551307174
1.7000000000	0.3889891373
1.7050000000	0.4299780342
1.7100000000	0.4804627897
1.7150000000	0.5521425513
1.7200000000	0.6514710366
1.7250000000	0.7718761479
1.7300000000	0.9230906567
1.7350000000	1.0846808699
1.7400000000	1.2273404996
1.7450000000	1.4047411255
1.7500000000	1.6799674259
1.7550000000	2.0954370415
1.7600000000	2.7201808286
1.7650000000	3.6845835483
1.7700000000	5.2380778231
1.7750000000	7.8537720411
1.7800000000	12.3065048624
1.7850000000	18.8627018378
1.7900000000	23.4086252329
1.7950000000	19.9012787547
1.8000000000	13.2205579069
1.8050000000	8.3312587439
1.8100000000	5.4793756744
1.8150000000	3.8088543369
1.8200000000	2.7811137721
1.8250000000	2.1147611138
1.8300000000	1.6620211295
1.8350000000	1.3419694281
1.8400000000	1.1081689739
1.8450000000	0.9323923811
1.8500000000	0.7968255426
1.8550000000	0.6902924058
1.8600000000	0.6048899354
1.8650000000	0.5351568231
1.8700000000	0.4770612332
1.8750000000	0.4274420461
1.8800000000	0.3835196991
1.8850000000	0.3424752607
1.8900000000	0.3007263309
1.8950000000	0.2528256986
1.9000000000	0.1896060293
1.9050000000	0.0820019791
1.9100000000	-0.0742466082
1.9150000000	-0.2425237403
1.9200000000	-0.1672717550
1.9250000000	0.3243724536
1.9300000000	0.7192801780
1.9350000000	0.7513294954
1.9400000000	0.6193369743
1.9450000000	0.4859709726
1.9500000000	0.3900772870
1.9550000000	0.3257393265
1.9600000000	0.2823313198
1.9650000000	0.2535929287
1.9700000000	0.2318301123
1.9750000000	0.2158579766
1.9800000000	0.2038276982
1.9850000000	0.1944332328
1.9900000000	0.1867438945
1.9950000000	0.1800057832
2.0000000000	0.1740370709
2.0050000000	0.1709957236
2.0100000000	0.1737856276
2.0150000000	0.1804561750
2.0200000000	0.1857067920
2.0250000000	0.1892865136
2.0300000000	0.1931084063
2.0350000000	0.1979977859
2.0400000000	0.2045844252
2.0450000000	0.2132782664
2.0500000000	0.2245721150
2.0550000000	0.2389657560
2.0600000000	0.2564829956
2.0650000000	0.2754596705
2.0700000000	0.2917672808
2.0750000000	0.3021268543
2.0800000000	0.3087768994
2.0850000000	0.3167170077
2.0900000000	0.3290422329
2.0950000000	0.3466985750
2.1000000000	0.3701948803
2.1050000000	0.3989936917
2.1100000000	0.4351042971
2.1150000000	0.4799215674
2.1200000000	0.5355156875
2.1250000000	0.6048625732
2.1300000000	0.6922054329
2.1350000000	0.8036302982
2.1400000000	0.9479343024
2.1450000000	1.1379760685
2.1500000000	1.3924740804
2.1550000000	1.7378853053
2.1600000000	2.2080365377
2.1650000000	2.8315340053
2.1700000000	3.5975418916
2.1750000000	4.3620248881
2.1800000000	4.8453830235
2.1850000000	4.8997973052
2.1900000000	4.7334023763
2.1950000000	4.6229332429
2.2000000000	4.5911198284
2.2050000000	4.3703168467
2.2100000000	3.8483174795
2.2150000000	3.1852631646
2.2200000000	2.5785891911
2.2250000000	2.0926793075
2.2300000000	1.7102280403
2.2350000000	1.4064586614
2.2400000000	1.1654514943
2.2450000000	0.9773408205
2.2500000000	0.8306368729
2.2550000000	0.7148891329
2.2600000000	0.6213744100
2.2650000000	0.5428348433
2.2700000000	0.4731721773
2.2750000000	0.4081062603
2.2800000000	0.3479398525
2.2850000000	0.3002263586
2.2900000000	0.2761543299
2.2950000000	0.2795801353
2.3000000000	0.2994666929
2.3050000000	0.3189014186
2.3100000000	0.3272901300
2.3150000000	0.3251706620
2.3200000000	0.3171814581
2.3250000000	0.3080577518
2.3300000000	0.3003584500
2.3350000000	0.2949704423
2.3400000000	0.2917100271
2.3450000000	0.2896278908
2.3500000000	0.2874566104
2.3550000000	0.2843856944
2.3600000000	0.2806399267
2.3650000000	0.2772023660
2.3700000000	0.2750475842
2.3750000000	0.2746518366
2.3800000000	0.2759343419
2.3850000000	0.2784064905
2.3900000000	0.2815239587
2.3950000000	0.2848212078
2.4000000000	0.2885761021
2.4050000000	0.2938238000
2.4100000000	0.3010905227
2.4150000000	0.3110435250
2.4200000000	0.3241366384
2.4250000000	0.3407827434
2.4300000000	0.3614449613
2.4350000000	0.3867037973
2.4400000000	0.4173061526
2.4450000000	0.4542156329
2.4500000000	0.4986586209
2.4550000000	0.5521866555
2.4600000000	0.6167156351
2.4650000000	0.6945637437
2.4700000000	0.7884162420
2.4750000000	0.9010065042
2.4800000000	1.0352911015
2.4850000000	1.1925995083
2.4900000000	1.3716297277
2.4950000000	1.5659062943
2.5000000000	1.7610433911
2.5050000000	1.9413968893
2.5100000000	2.0579101455
2.5150000000	2.0834185988
2.5200000000	2.0144097625
2.5250000000	1.8724750698
2.5300000000	1.6904631703
2.5350000000	1.4971870208
2.5400000000	1.3108965991
2.5450000000	1.1406118283
2.5500000000	0.9897032110
2.5550000000	0.8585989880
2.5600000000	0.7453970278
2.5650000000	0.6498491751
2.5700000000	0.5700489579
2.5750000000	0.5048678990
2.5800000000	0.4534246699
2.5850000000	0.4146274506
2.5900000000	0.3865052328
2.5950000000	0.3662046483
2.6000000000	0.3507412784
2.6050000000	0.3397125785
2.6100000000	0.3298098682
2.6150000000	0.3209113638
2.6200000000	0.3132394280
2.6250000000	0.3070126797
2.6300000000	0.3023631250
2.6350000000	0.2993479976
2.6400000000	0.2979973242
2.6450000000	0.2983450255
2.6500000000	0.3004639379
2.6550000000	0.3043663182
2.6600000000	0.3101545486
2.6650000000	0.3179190729
2.6700000000	0.3277664587
2.6750000000	0.3398231449
2.6800000000	0.3542298553
2.6850000000	0.3711402827
2.6900000000	0.3907029466
2.6950000000	0.4130524625
2.7000000000	0.4382820796
2.7050000000	0.4694297711
2.7100000000	0.5043400562
2.7150000000	0.5427732509
2.7200000000	0.5842113329
2.7250000000	0.6277913679
2.7300000000	0.6722442513
2.7350000000	0.7158409756
2.7400000000	0.7563645787
2.7450000000	0.7914747152
2.7500000000	0.8177740343
2.7550000000	0.8329289675
2.7600000000	0.8351868881
2.7650000000	0.8240969737
2.7700000000	0.8006692776
2.7750000000	0.7671700947
2.7800000000	0.7266051002
2.7850000000	0.6821718181
2.7900000000	0.6367267466
2.7950000000	0.5925568544
2.8000000000	0.5512752686
2.8050000000	0.5092981432
2.8100000000	0.4730618190
2.8150000000	0.4424836370
2.8200000000	0.4170829530
2.8250000000	0.3962209595
2.8300000000	0.3792568374
2.8350000000	0.3656444391
2.8400000000	0.3548031738
2.8450000000	0.3467721485
2.8500000000	0.3411258764
2.8550000000	0.3377058209
2.8600000000	0.3363998253
2.8650000000	0.3371192823
2.8700000000	0.3397853128
2.8750000000	0.3443171978
2.8800000000	0.3506215538
2.8850000000	0.3585822697
2.8900000000	0.3680563877
2.8950000000	0.3788693072
2.9000000000	0.3908139331
2.9050000000	0.4065045277
2.9100000000	0.4226137208
2.9150000000	0.4385202771
2.9200000000	0.4534771533
2.9250000000	0.4666181722
2.9300000000	0.4771292464
2.9350000000	0.4839265671
2.9400000000	0.4864672535
2.9450000000	0.4844733127
2.9500000000	0.4781083888
2.9550000000	0.4679531579
2.9600000000	0.4548920419
2.9650000000	0.4399510592
2.9700000000	0.4241370303
2.9750000000	0.4083235339
2.9800000000	0.3931880749
2.9850000000	0.3792032848
2.9900000000	0.3666600136
2.9950000000	0.3557064142
3.0000000000	0.3463902544
