# energy (eV)    P(omega), $W$ = 300 nm, $h$ = 300 nm, $s$ = 20 nm, $d/W = 5$, $E_{\rm e}$ = 200 keV
0.2000000000	0.1251454610
0.2050000000	0.1270204239
0.2100000000	0.1287731610
0.2150000000	0.1304076592
0.2200000000	0.1319273286
0.2250000000	0.1333350620
0.2300000000	0.1346330744
0.2350000000	0.1358228338
0.2400000000	0.1369049048
0.2450000000	0.1378788813
0.2500000000	0.1387431657
0.2550000000	0.1394946928
0.2600000000	0.1401288585
0.2650000000	0.1406389731
0.2700000000	0.1410159715
0.2750000000	0.1412478378
0.2800000000	0.1413189714
0.2850000000	0.1412093107
0.2900000000	0.1408931607
0.2950000000	0.1403379130
0.3000000000	0.1395019161
0.3050000000	0.1383320921
0.3100000000	0.1367604891
0.3150000000	0.1445398554
0.3200000000	0.1537788779
0.3250000000	0.1654646811
0.3300000000	0.1811149997
0.3350000000	0.2005954958
0.3400000000	0.2261055402
0.3450000000	0.2570458852
0.3500000000	0.2975202229
0.3550000000	0.3510734554
0.3600000000	0.4209947178
0.3650000000	0.5184692678
0.3700000000	0.6469896779
0.3750000000	0.8257585605
0.3800000000	1.0842985043
0.3850000000	1.4871387957
0.3900000000	2.1235118165
0.3950000000	3.2044254541
0.4000000000	5.2649602819
0.4050000000	9.8844797523
0.4100000000	22.4889830770
0.4150000000	72.1696176603
0.4200000000	45.9830665775
0.4250000000	-86.5446101532
0.4300000000	24.0641119621
0.4350000000	14.9949630098
0.4400000000	9.1658831928
0.4450000000	6.0282571353
0.4500000000	4.2220573816
0.4550000000	3.1105646243
0.4600000000	2.3866741413
0.4650000000	1.8933959540
0.4700000000	1.5447615951
0.4750000000	1.2926245477
0.4800000000	1.1056868151
0.4850000000	0.9650204501
0.4900000000	0.8576444120
0.4950000000	0.7748446492
0.5000000000	0.7106647967
0.5050000000	0.6607348619
0.5100000000	0.6222407530
0.5150000000	0.5931105750
0.5200000000	0.5711793864
0.5250000000	0.5554711636
0.5300000000	0.5449388038
0.5350000000	0.5388163510
0.5400000000	0.5365390831
0.5450000000	0.5376352849
0.5500000000	0.5419552889
0.5550000000	0.5492330827
0.5600000000	0.5593324963
0.5650000000	0.5721922105
0.5700000000	0.5877562396
0.5750000000	0.6061332237
0.5800000000	0.6274998318
0.5850000000	0.6519711839
0.5900000000	0.6797707680
0.5950000000	0.7111798506
0.6000000000	0.7465567067
0.6050000000	0.7864209187
0.6100000000	0.8312679798
0.6150000000	0.8817750427
0.6200000000	0.9388454221
0.6250000000	1.0033451292
0.6300000000	1.0765543094
0.6350000000	1.1600684789
0.6400000000	1.2555476758
0.6450000000	1.3653882639
0.6500000000	1.4927409395
0.6550000000	1.6408853710
0.6600000000	1.8148625497
0.6650000000	2.0211402425
0.6700000000	2.2673224388
0.6750000000	2.5650043709
0.6800000000	2.9297797245
0.6850000000	3.3820752645
0.6900000000	3.9535286597
0.6950000000	4.6883870744
0.7000000000	5.6569375211
0.7050000000	6.9666293037
0.7100000000	8.7995214926
0.7150000000	11.4796986956
0.7200000000	15.6105031663
0.7250000000	22.4673033277
0.7300000000	35.0529219801
0.7350000000	61.9822527250
0.7400000000	135.8360023566
0.7450000000	450.6255100356
0.7500000000	1396.0158315594
0.7550000000	351.1919739053
0.7600000000	116.3046676425
0.7650000000	55.7256246864
0.7700000000	32.4074819410
0.7750000000	21.1510937257
0.7800000000	14.8846662727
0.7850000000	11.0546648426
0.7900000000	8.5404887888
0.7950000000	6.8065320193
0.8000000000	5.5600639425
0.8050000000	4.6317305807
0.8100000000	3.9238303049
0.8150000000	3.3626718702
0.8200000000	2.9197929697
0.8250000000	2.5631948623
0.8300000000	2.2710871348
0.8350000000	2.0309220426
0.8400000000	1.8295950682
0.8450000000	1.6606564599
0.8500000000	1.5178551533
0.8550000000	1.3946244274
0.8600000000	1.2894266783
0.8650000000	1.1995699992
0.8700000000	1.1201746937
0.8750000000	1.0526372610
0.8800000000	0.9953297464
0.8850000000	0.9439504817
0.8900000000	0.9027342721
0.8950000000	0.8652402324
0.9000000000	0.8355233864
0.9050000000	0.8150553556
0.9100000000	0.7962981704
0.9150000000	0.7849181111
0.9200000000	0.7835429388
0.9250000000	0.7825218341
0.9300000000	0.7710386516
0.9350000000	0.7365932294
0.9400000000	0.5447246115
0.9450000000	-0.3273480370
0.9500000000	-4.9295723418
0.9550000000	-28.2725493640
0.9600000000	6.6713029536
0.9650000000	11.7189626434
0.9700000000	5.1977740868
0.9750000000	2.7287048640
0.9800000000	1.7101221378
0.9850000000	1.2337299413
0.9900000000	0.9592444699
0.9950000000	0.7928035362
1.0000000000	0.6865305804
1.0050000000	0.6191557009
1.0100000000	0.5669238724
1.0150000000	0.5287652168
1.0200000000	0.5030629989
1.0250000000	0.4814900647
1.0300000000	0.4651015469
1.0350000000	0.4527039051
1.0400000000	0.4448219934
1.0450000000	0.4382685084
1.0500000000	0.4339458415
1.0550000000	0.4315979909
1.0600000000	0.4318033361
1.0650000000	0.4329520287
1.0700000000	0.4357004244
1.0750000000	0.4400599095
1.0800000000	0.4464612130
1.0850000000	0.4545848251
1.0900000000	0.4665679617
1.0950000000	0.4807985107
1.1000000000	0.4977538371
1.1050000000	0.5172956129
1.1100000000	0.5400409457
1.1150000000	0.5665013099
1.1200000000	0.5972828820
1.1250000000	0.6331785792
1.1300000000	0.6752498452
1.1350000000	0.7248183005
1.1400000000	0.7833887924
1.1450000000	0.8537094866
1.1500000000	0.9387678647
1.1550000000	1.0428832983
1.1600000000	1.1721496002
1.1650000000	1.3344735784
1.1700000000	1.5446680937
1.1750000000	1.8223963549
1.1800000000	2.2001656111
1.1850000000	2.7314089102
1.1900000000	3.5168287386
1.1950000000	4.7497834917
1.2000000000	6.8410517384
1.2050000000	10.7929923656
1.2100000000	19.4864525956
1.2150000000	42.9846928911
1.2200000000	105.4928394407
1.2250000000	94.7778957483
1.2300000000	37.8056532197
1.2350000000	17.7309352136
1.2400000000	10.1271311108
1.2450000000	6.6358279581
1.2500000000	4.7939933523
1.2550000000	3.7309964281
1.2600000000	3.0841149033
1.2650000000	2.6788741063
1.2700000000	2.4371768311
1.2750000000	2.3083869412
1.2800000000	2.2683953781
1.2850000000	2.3066672654
1.2900000000	2.4223407678
1.2950000000	2.6214287955
1.3000000000	2.9285205911
1.3050000000	3.3751488479
1.3100000000	4.0201113055
1.3150000000	4.9651443557
1.3200000000	6.3931469332
1.3250000000	8.6527196249
1.3300000000	12.5073476378
1.3350000000	19.7271569620
1.3400000000	35.1580029140
1.3450000000	73.4653130705
1.3500000000	155.9102887814
1.3550000000	145.4083945823
1.3600000000	67.0546994003
1.3650000000	32.9464298497
1.3700000000	18.8944236258
1.3750000000	12.1508607890
1.3800000000	8.4739062951
1.3850000000	6.2589478525
1.3900000000	4.8313781212
1.3950000000	3.8573906526
1.4000000000	3.1645719257
1.4050000000	2.6557119000
1.4100000000	2.2719330946
1.4150000000	1.9780610163
1.4200000000	1.7492783336
1.4250000000	1.5789818448
1.4300000000	1.4705148250
1.4350000000	1.3986001840
1.4400000000	0.9609383116
1.4450000000	-0.2510742754
1.4500000000	-2.3605613232
1.4550000000	-0.7891814454
1.4600000000	2.3994186059
1.4650000000	1.3904296259
1.4700000000	-0.8851951209
1.4750000000	-4.4844203734
1.4800000000	-1.9782749518
1.4850000000	3.3907070209
1.4900000000	2.7448786933
1.4950000000	1.7809429892
1.5000000000	1.2539406233
1.5050000000	0.9686438055
1.5100000000	0.8053325654
1.5150000000	0.7052035143
1.5200000000	0.6396218750
1.5250000000	0.5979992891
1.5300000000	0.5652015536
1.5350000000	0.5413803043
1.5400000000	0.5241294214
1.5450000000	0.5120144827
1.5500000000	0.5040447689
1.5550000000	0.4998083358
1.5600000000	0.5001626740
1.5650000000	0.5033855600
1.5700000000	0.5113256365
1.5750000000	0.5254412100
1.5800000000	0.5486347923
1.5850000000	0.5866209342
1.5900000000	0.6514879129
1.5950000000	0.7699578618
1.6000000000	0.9983411377
1.6050000000	1.3731504529
1.6100000000	1.5478065775
1.6150000000	1.2316966514
1.6200000000	0.9386327722
1.6250000000	0.7896387004
1.6300000000	0.7212134237
1.6350000000	0.6929550988
1.6400000000	0.6865639414
1.6450000000	0.6936688307
1.6500000000	0.7101949157
1.6550000000	0.7344653100
1.6600000000	0.7656254049
1.6650000000	0.8035567593
1.6700000000	0.8485717635
1.6750000000	0.9013179977
1.6800000000	0.9627441539
1.6850000000	1.0341169282
1.6900000000	1.1169095021
1.6950000000	1.2119773749
1.7000000000	1.3214170887
1.7050000000	1.4480461945
1.7100000000	1.6015223954
1.7150000000	1.8594302769
1.7200000000	2.2489648419
1.7250000000	2.6701303549
1.7300000000	3.1709690365
1.7350000000	3.7128129373
1.7400000000	4.2129436664
1.7450000000	4.8432301008
1.7500000000	5.8094866237
1.7550000000	7.2588091576
1.7600000000	9.4332843110
1.7650000000	12.7879581391
1.7700000000	18.1919622855
1.7750000000	27.2938687464
1.7800000000	42.7959485459
1.7850000000	65.6398803401
1.7900000000	81.5183833088
1.7950000000	69.3588948644
1.8000000000	46.1156458730
1.8050000000	29.0891245760
1.8100000000	19.1524408075
1.8150000000	13.3297618404
1.8200000000	9.7466824626
1.8250000000	7.4233530342
1.8300000000	5.8450343411
1.8350000000	4.7297906411
1.8400000000	3.9158004449
1.8450000000	3.3047767090
1.8500000000	2.8347124868
1.8550000000	2.4667306553
1.8600000000	2.1734860534
1.8650000000	1.9361828342
1.8700000000	1.7411252405
1.8750000000	1.5778078621
1.8800000000	1.4372887188
1.8850000000	1.3108497710
1.8900000000	1.1877012262
1.8950000000	1.0514984811
1.9000000000	0.8745468937
1.9050000000	0.5664731004
1.9100000000	0.1240693764
1.9150000000	-0.3018560157
1.9200000000	0.2126173378
1.9250000000	2.2706257922
1.9300000000	3.9146353607
1.9350000000	3.9514947117
1.9400000000	3.1721192920
1.9450000000	2.4042099380
1.9500000000	1.8599324684
1.9550000000	1.4999124766
1.9600000000	1.2599963558
1.9650000000	1.1001324056
1.9700000000	0.9824480974
1.9750000000	0.8961519964
1.9800000000	0.8306546791
1.9850000000	0.7783622055
1.9900000000	0.7336220629
1.9950000000	0.6916429170
2.0000000000	0.6515632755
2.0050000000	0.6277341447
2.0100000000	0.6437566032
2.0150000000	0.6855378041
2.0200000000	0.7137733552
2.0250000000	0.7260566332
2.0300000000	0.7354318352
2.0350000000	0.7479342738
2.0400000000	0.7665010699
2.0450000000	0.7923801591
2.0500000000	0.8268408417
2.0550000000	0.8711453614
2.0600000000	0.9253655578
2.0650000000	0.9851699688
2.0700000000	1.0397772625
2.0750000000	1.0807672602
2.0800000000	1.1143974085
2.0850000000	1.1542678643
2.0900000000	1.2090280103
2.0950000000	1.2816740286
2.1000000000	1.3744973097
2.1050000000	1.4860957508
2.1100000000	1.6242449726
2.1150000000	1.7945173672
2.1200000000	2.0049286829
2.1250000000	2.2668528603
2.1300000000	2.5964065416
2.1350000000	3.0166490512
2.1400000000	3.5608848985
2.1450000000	4.2777951588
2.1500000000	5.2382707736
2.1550000000	6.5425794214
2.1600000000	8.3190063448
2.1650000000	10.6762651147
2.1700000000	13.5729078757
2.1750000000	16.4612995301
2.1800000000	18.2752129115
2.1850000000	18.4451516840
2.1900000000	17.7563835457
2.1950000000	17.2677462260
2.2000000000	17.0969990587
2.2050000000	16.2935306577
2.2100000000	14.4505974529
2.2150000000	12.1317630605
2.2200000000	10.0226382790
2.2250000000	8.3136627423
2.2300000000	6.9107929057
2.2350000000	5.7368320308
2.2400000000	4.7729857551
2.2450000000	4.0119313835
2.2500000000	3.4221516657
2.2550000000	2.9656847641
2.2600000000	2.6073965888
2.2650000000	2.3156222838
2.2700000000	2.0603926449
2.2750000000	1.8163860711
2.2800000000	1.5777300496
2.2850000000	1.3735655777
2.2900000000	1.2535173060
2.2950000000	1.2398216049
2.3000000000	1.2941555683
2.3050000000	1.3514038143
2.3100000000	1.3716467290
2.3150000000	1.3561425044
2.3200000000	1.3221525652
2.3250000000	1.2874173737
2.3300000000	1.2613550282
2.3350000000	1.2467159763
2.3400000000	1.2414332493
2.3450000000	1.2394914460
2.3500000000	1.2331419567
2.3550000000	1.2174347828
2.3600000000	1.1937393897
2.3650000000	1.1680936066
2.3700000000	1.1466340472
2.3750000000	1.1327710569
2.3800000000	1.1270510659
2.3850000000	1.1281019930
2.3900000000	1.1341715814
2.3950000000	1.1435811326
2.4000000000	1.1571670132
2.4050000000	1.1784780771
2.4100000000	1.2090242231
2.4150000000	1.2508887191
2.4200000000	1.3055074888
2.4250000000	1.3744199378
2.4300000000	1.4595146671
2.4350000000	1.5632128167
2.4400000000	1.6886305495
2.4450000000	1.8397637262
2.4500000000	2.0216768371
2.4550000000	2.2407594887
2.4600000000	2.5048695353
2.4650000000	2.8234789526
2.4700000000	3.2074887791
2.4750000000	3.6678901193
2.4800000000	4.2162837535
2.4850000000	4.8574894026
2.4900000000	5.5855027599
2.4950000000	6.3737696683
2.5000000000	7.1649556275
2.5050000000	7.8982550165
2.5100000000	8.3790675425
2.5150000000	8.4982342825
2.5200000000	8.2375130457
2.5250000000	7.6777661222
2.5300000000	6.9474739061
2.5350000000	6.1631886252
2.5400000000	5.4018243300
2.5450000000	4.7035145856
2.5500000000	4.0844188261
2.5550000000	3.5473116758
2.5600000000	3.0845313431
2.5650000000	2.6943936528
2.5700000000	2.3686156555
2.5750000000	2.1021924662
2.5800000000	1.8912977252
2.5850000000	1.7314163125
2.5900000000	1.6146530745
2.5950000000	1.5296763491
2.6000000000	1.4646413270
2.6050000000	1.4182362679
2.6100000000	1.3770933405
2.6150000000	1.3406605813
2.6200000000	1.3097932338
2.6250000000	1.2853678388
2.6300000000	1.2679464108
2.6350000000	1.2577980035
2.6400000000	1.2550646714
2.6450000000	1.2598905661
2.6500000000	1.2725719012
2.6550000000	1.2931750364
2.6600000000	1.3221523090
2.6650000000	1.3599339004
2.6700000000	1.4070267968
2.6750000000	1.4640235455
2.6800000000	1.5315575582
2.6850000000	1.6102778072
2.6900000000	1.7007582847
2.6950000000	1.8034384417
2.7000000000	1.9184804236
2.7050000000	2.0593456538
2.7100000000	2.2153258382
2.7150000000	2.3845184060
2.7200000000	2.5637259004
2.7250000000	2.7484006780
2.7300000000	2.9326550465
2.7350000000	3.1092813621
2.7400000000	3.2697046138
2.7450000000	3.4053673080
2.7500000000	3.5035626923
2.7550000000	3.5558794855
2.7600000000	3.5559655297
2.7650000000	3.5024218417
2.7700000000	3.3995138411
2.7750000000	3.2564516673
2.7800000000	3.0853909000
2.7850000000	2.8992602741
2.7900000000	2.7096423308
2.7950000000	2.5258207119
2.8000000000	2.3543641862
2.8050000000	2.1802096931
2.8100000000	2.0302919895
2.8150000000	1.9042752293
2.8200000000	1.8001905397
2.8250000000	1.7154205149
2.8300000000	1.6473252464
2.8350000000	1.5936573796
2.8400000000	1.5520266827
2.8450000000	1.5225780999
2.8500000000	1.5035559796
2.8550000000	1.4942961986
2.8600000000	1.4943092337
2.8650000000	1.5031800546
2.8700000000	1.5205036642
2.8750000000	1.5458175928
2.8800000000	1.5785575730
2.8850000000	1.6180080080
2.8900000000	1.6633143161
2.8950000000	1.7134648477
2.9000000000	1.7673454860
2.9050000000	1.8354840564
2.9100000000	1.9035853993
2.9150000000	1.9692177396
2.9200000000	2.0295886106
2.9250000000	2.0814760332
2.9300000000	2.1218781824
2.9350000000	2.1465862278
2.9400000000	2.1535938194
2.9450000000	2.1419208707
2.9500000000	2.1123682432
2.9550000000	2.0674490707
2.9600000000	2.0109016518
2.9650000000	1.9470301758
2.9700000000	1.8800439965
2.9750000000	1.8135731311
2.9800000000	1.7504244997
2.9850000000	1.6925379277
2.9900000000	1.6411084240
2.9950000000	1.5967158664
3.0000000000	1.5595282132
