# energy (eV)    P(omega), $W$ = 300 nm, $h$ = 300 nm, $s$ = 20 nm, $d/W = 5$, $E_{\rm e}$ = 200 keV
0.2000000000	0.1157392277
0.2050000000	0.1174733242
0.2100000000	0.1190944463
0.2150000000	0.1206062784
0.2200000000	0.1220119699
0.2250000000	0.1233141933
0.2300000000	0.1245149936
0.2350000000	0.1256157265
0.2400000000	0.1266169108
0.2450000000	0.1275181693
0.2500000000	0.1283180220
0.2550000000	0.1290136327
0.2600000000	0.1296007418
0.2650000000	0.1300731612
0.2700000000	0.1304225062
0.2750000000	0.1306376631
0.2800000000	0.1307042035
0.2850000000	0.1306035739
0.2900000000	0.1303120104
0.2950000000	0.1297993565
0.3000000000	0.1290270921
0.3050000000	0.1279461301
0.3100000000	0.1264936273
0.3150000000	0.1336880314
0.3200000000	0.1422323295
0.3250000000	0.1530393679
0.3300000000	0.1675126992
0.3350000000	0.1855281843
0.3400000000	0.2091197650
0.3450000000	0.2377334150
0.3500000000	0.2751641900
0.3550000000	0.3246905040
0.3600000000	0.3893543394
0.3650000000	0.4794999788
0.3700000000	0.5983578871
0.3750000000	0.7636872055
0.3800000000	1.0027915564
0.3850000000	1.3753499525
0.3900000000	1.9638888854
0.3950000000	2.9635582549
0.4000000000	4.8692257958
0.4050000000	9.1415652113
0.4100000000	20.7988284765
0.4150000000	66.7461228418
0.4200000000	42.5274152416
0.4250000000	-80.0418611453
0.4300000000	22.2562183892
0.4350000000	13.8685199214
0.4400000000	8.4773973573
0.4450000000	5.5754984002
0.4500000000	3.9049902144
0.4550000000	2.8769950354
0.4600000000	2.2074824154
0.4650000000	1.7512572835
0.4700000000	1.4288100734
0.4750000000	1.1956114539
0.4800000000	1.0227147080
0.4850000000	0.8926138506
0.4900000000	0.7933029961
0.4950000000	0.7167226876
0.5000000000	0.6573640029
0.5050000000	0.6111852050
0.5100000000	0.5755835984
0.5150000000	0.5486429501
0.5200000000	0.5283608963
0.5250000000	0.5138347679
0.5300000000	0.5040961047
0.5350000000	0.4984364997
0.5400000000	0.4963336638
0.5450000000	0.4973513185
0.5500000000	0.5013510921
0.5550000000	0.5080869688
0.5600000000	0.5174330464
0.5650000000	0.5293326486
0.5700000000	0.5437340461
0.5750000000	0.5607377771
0.5800000000	0.5805073268
0.5850000000	0.6031492465
0.5900000000	0.6288703351
0.5950000000	0.6579308420
0.6000000000	0.6906622730
0.6050000000	0.7275453495
0.6100000000	0.7690385361
0.6150000000	0.8157683545
0.6200000000	0.8685705733
0.6250000000	0.9282464562
0.6300000000	0.9959804222
0.6350000000	1.0732486788
0.6400000000	1.1615871454
0.6450000000	1.2632129864
0.6500000000	1.3810413021
0.6550000000	1.5181065395
0.6600000000	1.6790727273
0.6650000000	1.8699240426
0.6700000000	2.0976958938
0.6750000000	2.3731165480
0.6800000000	2.7106136567
0.6850000000	3.1290867071
0.6900000000	3.6578078095
0.6950000000	4.3377158718
0.7000000000	5.2338426197
0.7050000000	6.4456037099
0.7100000000	8.1414463087
0.7150000000	10.6212246075
0.7200000000	14.4431721743
0.7250000000	20.7873059900
0.7300000000	32.4319486994
0.7350000000	57.3479272711
0.7400000000	125.6801811926
0.7450000000	416.9358195888
0.7500000000	1291.6513266441
0.7550000000	324.9384011808
0.7600000000	107.6106118459
0.7650000000	51.5601756575
0.7700000000	29.9851490524
0.7750000000	19.5701979766
0.7800000000	13.7721883244
0.7850000000	10.2284748699
0.7900000000	7.9022264556
0.7950000000	6.2978754800
0.8000000000	5.1445736223
0.8050000000	4.2856263944
0.8100000000	3.6306354395
0.8150000000	3.1114176578
0.8200000000	2.7016387144
0.8250000000	2.3716915878
0.8300000000	2.1014146673
0.8350000000	1.8791981625
0.8400000000	1.6929169821
0.8450000000	1.5366035391
0.8500000000	1.4044740140
0.8550000000	1.2904523760
0.8600000000	1.1931160715
0.8650000000	1.1099744235
0.8700000000	1.0365122805
0.8750000000	0.9740219812
0.8800000000	0.9209972512
0.8850000000	0.8734577166
0.8900000000	0.8353220657
0.8950000000	0.8006303772
0.9000000000	0.7731349967
0.9050000000	0.7541977707
0.9100000000	0.7368434926
0.9150000000	0.7263155104
0.9200000000	0.7250455163
0.9250000000	0.7241030332
0.9300000000	0.7134790242
0.9350000000	0.6816058251
0.9400000000	0.5040554160
0.9450000000	-0.3029476643
0.9500000000	-4.5617962140
0.9550000000	-26.1631991601
0.9600000000	6.1735777570
0.9650000000	10.8446855482
0.9700000000	4.8100084912
0.9750000000	2.5251377657
0.9800000000	1.5825420690
0.9850000000	1.1416887033
0.9900000000	0.8876794607
0.9950000000	0.7336546671
1.0000000000	0.6353094409
1.0050000000	0.5729607155
1.0100000000	0.5246252447
1.0150000000	0.4893131151
1.0200000000	0.4655283020
1.0250000000	0.4455646089
1.0300000000	0.4303985606
1.0350000000	0.4189256360
1.0400000000	0.4116316174
1.0450000000	0.4055668011
1.0500000000	0.4015663299
1.0550000000	0.3993932953
1.0600000000	0.3995829813
1.0650000000	0.4006454974
1.0700000000	0.4031882808
1.0750000000	0.4072218749
1.0800000000	0.4131448953
1.0850000000	0.4206615116
1.0900000000	0.4317493924
1.0950000000	0.4449168183
1.1000000000	0.4606055317
1.1050000000	0.4786873813
1.1100000000	0.4997334272
1.1150000000	0.5242169158
1.1200000000	0.5526987787
1.1250000000	0.5859125173
1.1300000000	0.6248403082
1.1350000000	0.6707049821
1.1400000000	0.7248989625
1.1450000000	0.7899648490
1.1500000000	0.8686668750
1.1550000000	0.9650015287
1.1600000000	1.0846071019
1.1650000000	1.2347994350
1.1700000000	1.4292839239
1.1750000000	1.6862540052
1.1800000000	2.0357868921
1.1850000000	2.5273214701
1.1900000000	3.2540328307
1.1950000000	4.3948253424
1.2000000000	6.3297721723
1.2050000000	9.9863071396
1.2100000000	18.0299403851
1.2150000000	39.7717445844
1.2200000000	97.6077140587
1.2250000000	87.6940014314
1.2300000000	34.9802426964
1.2350000000	16.4060037774
1.2400000000	9.3705419398
1.2450000000	6.1402023508
1.2500000000	4.4360501780
1.2550000000	3.4525290595
1.2600000000	2.8540282514
1.2650000000	2.4791144255
1.2700000000	2.2555297881
1.2750000000	2.1364244246
1.2800000000	2.0994942021
1.2850000000	2.1349955649
1.2900000000	2.2421369592
1.2950000000	2.4264891197
1.3000000000	2.7108175180
1.3050000000	3.1243165959
1.3100000000	3.7214202251
1.3150000000	4.5963131095
1.3200000000	5.9183164531
1.3250000000	8.0101528750
1.3300000000	11.5786265843
1.3350000000	18.2624541193
1.3400000000	32.5477479425
1.3450000000	68.0112258603
1.3500000000	144.3358026322
1.3550000000	134.6137471707
1.3600000000	62.0768248526
1.3650000000	30.5006230655
1.3700000000	17.4917749054
1.3750000000	11.2488214493
1.3800000000	7.8448254366
1.3850000000	5.7942945617
1.3900000000	4.4727015235
1.3950000000	3.5710194057
1.4000000000	2.9296346261
1.4050000000	2.4585535981
1.4100000000	2.1032706071
1.4150000000	1.8312242202
1.4200000000	1.6194428600
1.4250000000	1.4618218833
1.4300000000	1.3614781917
1.4350000000	1.2950336519
1.4400000000	0.8899761704
1.4450000000	-0.2318753589
1.4500000000	-2.1842581824
1.4550000000	-0.7300930490
1.4600000000	2.2207420272
1.4650000000	1.2867442964
1.4700000000	-0.8198280611
1.4750000000	-4.1519001788
1.4800000000	-1.8316341593
1.4850000000	3.1390412371
1.4900000000	2.5411483963
1.4950000000	1.6487395196
1.5000000000	1.1608428732
1.5050000000	0.8967172740
1.5100000000	0.7455248168
1.5150000000	0.6528259502
1.5200000000	0.5921105379
1.5250000000	0.5535756009
1.5300000000	0.5232104060
1.5350000000	0.5011549558
1.5400000000	0.4851815586
1.5450000000	0.4739620766
1.5500000000	0.4665789618
1.5550000000	0.4626504826
1.5600000000	0.4629698307
1.5650000000	0.4659417250
1.5700000000	0.4732759888
1.5750000000	0.4863200256
1.5800000000	0.5077561040
1.5850000000	0.5428654046
1.5900000000	0.6028197568
1.5950000000	0.7123157965
1.6000000000	0.9233970484
1.6050000000	1.2698166684
1.6100000000	1.4312731572
1.6150000000	1.1391592704
1.6200000000	0.8683327910
1.6250000000	0.7306552019
1.6300000000	0.6674428732
1.6350000000	0.6413573310
1.6400000000	0.6354862543
1.6450000000	0.6420934347
1.6500000000	0.6574131911
1.6550000000	0.6798967955
1.6600000000	0.7087550724
1.6650000000	0.7438795949
1.6700000000	0.7855603335
1.6750000000	0.8343973031
1.6800000000	0.8912690476
1.6850000000	0.9573484922
1.6900000000	1.0339994543
1.6950000000	1.1220136453
1.7000000000	1.2233315371
1.7050000000	1.3405601549
1.7100000000	1.4826431428
1.7150000000	1.7214290025
1.7200000000	2.0820903348
1.7250000000	2.4720042149
1.7300000000	2.9356610019
1.7350000000	3.4372888560
1.7400000000	3.9003268329
1.7450000000	4.4838760472
1.7500000000	5.3784668954
1.7550000000	6.7202834718
1.7600000000	8.7334571008
1.7650000000	11.8392806612
1.7700000000	16.8424159578
1.7750000000	25.2691496496
1.7800000000	39.6213104124
1.7850000000	60.7707505957
1.7900000000	75.4715056258
1.7950000000	64.2140790449
1.8000000000	42.6950024644
1.8050000000	26.9314708781
1.8100000000	17.7318585107
1.8150000000	12.3410823778
1.8200000000	9.0237793556
1.8250000000	6.8727826906
1.8300000000	5.4115351857
1.8350000000	4.3790142198
1.8400000000	3.6254016103
1.8450000000	3.0597009667
1.8500000000	2.6245047790
1.8550000000	2.2838196807
1.8600000000	2.0123290531
1.8650000000	1.7926313783
1.8700000000	1.6120470160
1.8750000000	1.4608501728
1.8800000000	1.3307626643
1.8850000000	1.2137138570
1.8900000000	1.0997154914
1.8950000000	0.9736370912
1.9000000000	0.8098411122
1.9050000000	0.5246647954
1.9100000000	0.1151462935
1.9150000000	-0.2790749522
1.9200000000	0.1974212647
1.9250000000	2.1030420004
1.9300000000	3.6253165063
1.9350000000	3.6593914166
1.9400000000	2.9375915015
1.9450000000	2.2264177332
1.9500000000	1.7223562470
1.9550000000	1.3889398059
1.9600000000	1.1667534771
1.9650000000	1.0187030187
1.9700000000	0.9097167440
1.9750000000	0.8297988433
1.9800000000	0.7691422724
1.9850000000	0.7207141301
1.9900000000	0.6792794016
1.9950000000	0.6404005792
2.0000000000	0.6032799115
2.0050000000	0.5812089760
2.0100000000	0.5960479695
2.0150000000	0.6347438548
2.0200000000	0.6608922913
2.0250000000	0.6722641198
2.0300000000	0.6809406943
2.0350000000	0.6925118929
2.0400000000	0.7096974120
2.0450000000	0.7336523011
2.0500000000	0.7655511223
2.0550000000	0.8065618890
2.0600000000	0.8567511680
2.0650000000	0.9121109871
2.0700000000	0.9626649983
2.0750000000	1.0006219757
2.0800000000	1.0317729445
2.0850000000	1.0687037001
2.0900000000	1.1194189507
2.0950000000	1.1866921982
2.1000000000	1.2726456215
2.1050000000	1.3759818229
2.1100000000	1.5039006911
2.1150000000	1.6615622861
2.1200000000	1.8563888037
2.1250000000	2.0989119063
2.1300000000	2.4040544999
2.1350000000	2.7931679684
2.1400000000	3.2970899082
2.1450000000	3.9608954751
2.1500000000	4.8502247311
2.1550000000	6.0579184733
2.1600000000	7.7027600640
2.1650000000	9.8854114619
2.1700000000	12.5674964301
2.1750000000	15.2419449268
2.1800000000	16.9215053236
2.1850000000	17.0788575953
2.1900000000	16.4410992333
2.1950000000	15.9886431649
2.2000000000	15.8305426351
2.2050000000	15.0866287133
2.2100000000	13.3802918390
2.2150000000	11.2333309861
2.2200000000	9.2805411370
2.2250000000	7.6982235609
2.2300000000	6.3992808879
2.2350000000	5.3122456264
2.2400000000	4.4197442521
2.2450000000	3.7150172602
2.2500000000	3.1688898317
2.2550000000	2.7462125407
2.2600000000	2.4144519125
2.2650000000	2.1442854646
2.2700000000	1.9079594956
2.2750000000	1.6820226212
2.2800000000	1.4610332967
2.2850000000	1.2719744169
2.2900000000	1.1607993245
2.2950000000	1.1481019188
2.3000000000	1.1983995405
2.3050000000	1.2513983723
2.3100000000	1.2701349860
2.3150000000	1.2557736474
2.3200000000	1.2242971057
2.3250000000	1.1921318110
2.3300000000	1.1679982959
2.3350000000	1.1544430313
2.3400000000	1.1495517207
2.3450000000	1.1477537599
2.3500000000	1.1418735904
2.3550000000	1.1273272841
2.3600000000	1.1053830283
2.3650000000	1.0816321448
2.3700000000	1.0617574869
2.3750000000	1.0489173401
2.3800000000	1.0436180094
2.3850000000	1.0445893131
2.3900000000	1.0502090413
2.3950000000	1.0589229376
2.4000000000	1.0715052784
2.4050000000	1.0912419655
2.4100000000	1.1195306062
2.4150000000	1.1582999357
2.4200000000	1.2088795054
2.4250000000	1.2726947529
2.4300000000	1.3514945923
2.4350000000	1.4475211186
2.4400000000	1.5636599928
2.4450000000	1.7036114682
2.4500000000	1.8720653513
2.4550000000	2.0749386222
2.4600000000	2.3195076728
2.4650000000	2.6145437814
2.4700000000	2.9701412671
2.4750000000	3.3964779559
2.4800000000	3.9042958259
2.4850000000	4.4980574521
2.4900000000	5.1722020478
2.4950000000	5.9021397418
2.5000000000	6.6347788017
2.5050000000	7.3138139139
2.5100000000	7.7590477526
2.5150000000	7.8694003296
2.5200000000	7.6279783523
2.5250000000	7.1096579218
2.5300000000	6.4334100294
2.5350000000	5.7071617795
2.5400000000	5.0021364858
2.5450000000	4.3554989244
2.5500000000	3.7822135542
2.5550000000	3.2848499865
2.5600000000	2.8563134276
2.5650000000	2.4950441953
2.5700000000	2.1933721094
2.5750000000	1.9466625835
2.5800000000	1.7513724198
2.5850000000	1.6033206101
2.5900000000	1.4951962877
2.5950000000	1.4165063981
2.6000000000	1.3562826445
2.6050000000	1.3133104785
2.6100000000	1.2752112537
2.6150000000	1.2414738640
2.6200000000	1.2128902936
2.6250000000	1.1902723064
2.6300000000	1.1741404111
2.6350000000	1.1647438626
2.6400000000	1.1622141904
2.6450000000	1.1666848702
2.6500000000	1.1784301777
2.6550000000	1.1975115203
2.6600000000	1.2243477981
2.6650000000	1.2593374150
2.6700000000	1.3029498548
2.6750000000	1.3557338869
2.6800000000	1.4182761459
2.6850000000	1.4911775442
2.6900000000	1.5749695860
2.6950000000	1.6700591692
2.7000000000	1.7765963014
2.7050000000	1.9070470875
2.7100000000	2.0514945890
2.7150000000	2.2081767027
2.7200000000	2.3741321466
2.7250000000	2.5451493392
2.7300000000	2.7157759015
2.7350000000	2.8793373501
2.7400000000	3.0278931882
2.7450000000	3.1535193040
2.7500000000	3.2444492708
2.7550000000	3.2928943131
2.7600000000	3.2929723847
2.7650000000	3.2433880256
2.7700000000	3.1480910995
2.7750000000	3.0156103629
2.7800000000	2.8572021478
2.7850000000	2.6848387825
2.7900000000	2.5092460140
2.7950000000	2.3390207993
2.8000000000	2.1802460566
2.8050000000	2.0189726277
2.8100000000	1.8801433504
2.8150000000	1.7634472905
2.8200000000	1.6670612615
2.8250000000	1.5885614935
2.8300000000	1.5255033641
2.8350000000	1.4758058080
2.8400000000	1.4372553776
2.8450000000	1.4099864002
2.8500000000	1.3923730148
2.8550000000	1.3838002497
2.8600000000	1.3838147790
2.8650000000	1.3920321800
2.8700000000	1.4080774092
2.8750000000	1.4315221749
2.8800000000	1.4618437991
2.8850000000	1.4983795348
2.8900000000	1.5403380198
2.8950000000	1.5867822054
2.9000000000	1.6366804150
2.9050000000	1.6997817663
2.9100000000	1.7628481267
2.9150000000	1.8236275625
2.9200000000	1.8795342513
2.9250000000	1.9275845550
2.9300000000	1.9649988114
2.9350000000	1.9878794058
2.9400000000	1.9943685032
2.9450000000	1.9835585193
2.9500000000	1.9561910262
2.9550000000	1.9145933884
2.9600000000	1.8622274607
2.9650000000	1.8030790914
2.9700000000	1.7410464579
2.9750000000	1.6794911181
2.9800000000	1.6210124299
2.9850000000	1.5674067808
2.9900000000	1.5197808809
2.9950000000	1.4786716691
3.0000000000	1.4442347059
