# energy (eV)    P(omega), $W$ = 300 nm, $h$ = 300 nm, $s$ = 20 nm, $d/W = 5$, $E_{\rm e}$ = 200 keV
0.2000000000	0.0656223261
0.2050000000	0.0665649623
0.2100000000	0.0674510419
0.2150000000	0.0682823331
0.2200000000	0.0690603599
0.2250000000	0.0697863824
0.2300000000	0.0704613261
0.2350000000	0.0710857688
0.2400000000	0.0716598753
0.2450000000	0.0721832553
0.2500000000	0.0726550430
0.2550000000	0.0730735752
0.2600000000	0.0734364217
0.2650000000	0.0737401952
0.2700000000	0.0739802528
0.2750000000	0.0741505163
0.2800000000	0.0742431074
0.2850000000	0.0742479530
0.2900000000	0.0741521117
0.2950000000	0.0739392650
0.3000000000	0.0735883991
0.3050000000	0.0730729667
0.3100000000	0.0723588857
0.3150000000	0.0762567831
0.3200000000	0.0808867467
0.3250000000	0.0867395425
0.3300000000	0.0945715458
0.3350000000	0.1043235765
0.3400000000	0.1170953460
0.3450000000	0.1326000099
0.3500000000	0.1528913182
0.3550000000	0.1797539360
0.3600000000	0.2148546775
0.3650000000	0.2638120152
0.3700000000	0.3284293243
0.3750000000	0.4183831047
0.3800000000	0.5485756691
0.3850000000	0.7515654738
0.3900000000	1.0724886784
0.3950000000	1.6180163929
0.4000000000	2.6586872720
0.4050000000	4.9934089038
0.4100000000	11.3685783269
0.4150000000	36.5150724124
0.4200000000	23.2427399633
0.4250000000	-43.8754128401
0.4300000000	12.2267338155
0.4350000000	7.6290032234
0.4400000000	4.6706987888
0.4450000000	3.0771588147
0.4500000000	2.1591944441
0.4550000000	1.5939428743
0.4600000000	1.2255871558
0.4650000000	0.9744443066
0.4700000000	0.7968596173
0.4750000000	0.6683849325
0.4800000000	0.5731113537
0.4850000000	0.5014197351
0.4900000000	0.4467082793
0.4950000000	0.4045432448
0.5000000000	0.3718949300
0.5050000000	0.3465378071
0.5100000000	0.3270417396
0.5150000000	0.3123544063
0.5200000000	0.3013693262
0.5250000000	0.2935937014
0.5300000000	0.2884941986
0.5350000000	0.2856818583
0.5400000000	0.2848704045
0.5450000000	0.2858208368
0.5500000000	0.2884619780
0.5550000000	0.2926605138
0.5600000000	0.2983515007
0.5650000000	0.3055075175
0.5700000000	0.3141053631
0.5750000000	0.3242065651
0.5800000000	0.3359111349
0.5850000000	0.3492847908
0.5900000000	0.3644525607
0.5950000000	0.3815694889
0.6000000000	0.4008328253
0.6050000000	0.4225253080
0.6100000000	0.4469193028
0.6150000000	0.4743844520
0.6200000000	0.5054141442
0.6250000000	0.5404807780
0.6300000000	0.5802825785
0.6350000000	0.6256898430
0.6400000000	0.6776084907
0.6450000000	0.7373455072
0.6500000000	0.8066199141
0.6550000000	0.8872215550
0.6600000000	0.9819002646
0.6650000000	1.0941871992
0.6700000000	1.2282337202
0.6750000000	1.3903677839
0.6800000000	1.5891093629
0.6850000000	1.8356113871
0.6900000000	2.1471618943
0.6950000000	2.5479316682
0.7000000000	3.0763386340
0.7050000000	3.7911119903
0.7100000000	4.7917922853
0.7150000000	6.2555954701
0.7200000000	8.5125149309
0.7250000000	12.2602437713
0.7300000000	19.1418489487
0.7350000000	33.8721569073
0.7400000000	74.2865932582
0.7450000000	246.6246110401
0.7500000000	764.6108157856
0.7550000000	192.4992366581
0.7600000000	63.7999930775
0.7650000000	30.5929861907
0.7700000000	17.8057692037
0.7750000000	11.6305727629
0.7800000000	8.1915256230
0.7850000000	6.0888205813
0.7900000000	4.7080111985
0.7950000000	3.7553546289
0.8000000000	3.0702901423
0.8050000000	2.5598969766
0.8100000000	2.1705605748
0.8150000000	1.8618058190
0.8200000000	1.6180517489
0.8250000000	1.4217286287
0.8300000000	1.2608553825
0.8350000000	1.1285588391
0.8400000000	1.0176297354
0.8450000000	0.9245255962
0.8500000000	0.8458192424
0.8550000000	0.7778799300
0.8600000000	0.7198813548
0.8650000000	0.6703524139
0.8700000000	0.6265763069
0.8750000000	0.5893579675
0.8800000000	0.5578059839
0.8850000000	0.5295149085
0.8900000000	0.5068809074
0.8950000000	0.4862884882
0.9000000000	0.4700340552
0.9050000000	0.4589640516
0.9100000000	0.4488255624
0.9150000000	0.4428280483
0.9200000000	0.4424728754
0.9250000000	0.4422863293
0.9300000000	0.4361022697
0.9350000000	0.4167379655
0.9400000000	0.3074234218
0.9450000000	-0.1907102720
0.9500000000	-2.8221937855
0.9550000000	-16.1790662506
0.9600000000	3.8214844555
0.9650000000	6.7166873736
0.9700000000	2.9811182374
0.9750000000	1.5657239243
0.9800000000	0.9814968407
0.9850000000	0.7081763788
0.9900000000	0.5506149032
0.9950000000	0.4550413828
1.0000000000	0.3940060533
1.0050000000	0.3553277851
1.0100000000	0.3253088421
1.0150000000	0.3033652497
1.0200000000	0.2885916453
1.0250000000	0.2761589718
1.0300000000	0.2666930669
1.0350000000	0.2595064629
1.0400000000	0.2549160596
1.0450000000	0.2510565232
1.0500000000	0.2484591429
1.0550000000	0.2469751798
1.0600000000	0.2469477651
1.0650000000	0.2474221207
1.0700000000	0.2487837541
1.0750000000	0.2510371832
1.0800000000	0.2544350922
1.0850000000	0.2587548901
1.0900000000	0.2651938472
1.0950000000	0.2728511484
1.1000000000	0.2819956143
1.1050000000	0.2925097717
1.1100000000	0.3047370613
1.1150000000	0.3189484567
1.1200000000	0.3354764658
1.1250000000	0.3547005186
1.1300000000	0.3771941278
1.1350000000	0.4036498636
1.1400000000	0.4348693900
1.1450000000	0.4722576119
1.1500000000	0.5173907575
1.1550000000	0.5725247213
1.1600000000	0.6408416506
1.1650000000	0.7264827652
1.1700000000	0.8371435122
1.1750000000	0.9830942487
1.1800000000	1.1812891323
1.1850000000	1.4595800638
1.1900000000	1.8705366320
1.1950000000	2.5149167491
1.2000000000	3.6070018792
1.2050000000	5.6696917786
1.2100000000	10.2061262859
1.2150000000	22.4696154140
1.2200000000	55.1087573628
1.2250000000	49.5606413351
1.2300000000	19.8281800004
1.2350000000	9.3487961874
1.2400000000	5.3815001033
1.2450000000	3.5633714863
1.2500000000	2.6081847711
1.2550000000	2.0613757349
1.2600000000	1.7336997067
1.2650000000	1.5342642556
1.2700000000	1.4229075601
1.2750000000	1.3737190950
1.2800000000	1.3749834825
1.2850000000	1.4224070409
1.2900000000	1.5172808567
1.2950000000	1.6650112314
1.3000000000	1.8825756389
1.3050000000	2.1920756441
1.3100000000	2.6334854782
1.3150000000	3.2756768004
1.3200000000	4.2419551930
1.3250000000	5.7677946964
1.3300000000	8.3671475178
1.3350000000	13.2333317477
1.3400000000	23.6330290630
1.3450000000	49.4561624895
1.3500000000	105.0623859738
1.3550000000	98.0494724641
1.3600000000	45.2325485362
1.3650000000	22.2276871119
1.3700000000	12.7472959508
1.3750000000	8.1968896305
1.3800000000	5.7156692404
1.3850000000	4.2212565030
1.3900000000	3.2585971353
1.3950000000	2.6022313375
1.4000000000	2.1361371217
1.4050000000	1.7948381263
1.4100000000	1.5390713833
1.4150000000	1.3460815727
1.4200000000	1.2009608610
1.4250000000	1.1037783338
1.4300000000	1.0682322745
1.4350000000	1.0881312460
1.4400000000	0.8382067458
1.4450000000	0.0725942338
1.4500000000	-1.1702632452
1.4550000000	-0.3280066699
1.4600000000	1.4175062720
1.4650000000	0.7673457272
1.4700000000	-0.7250283693
1.4750000000	-3.1725396792
1.4800000000	-1.4120043517
1.4850000000	2.3206177883
1.4900000000	1.8811041140
1.4950000000	1.2175793432
1.5000000000	0.8554888615
1.5050000000	0.6605169468
1.5100000000	0.5493891152
1.5150000000	0.4819017103
1.5200000000	0.4383064204
1.5250000000	0.4112196760
1.5300000000	0.3905289983
1.5350000000	0.3762675618
1.5400000000	0.3668741444
1.5450000000	0.3615111480
1.5500000000	0.3596378130
1.5550000000	0.3612680572
1.5600000000	0.3673653942
1.5650000000	0.3774356810
1.5700000000	0.3937402361
1.5750000000	0.4190376988
1.5800000000	0.4585077507
1.5850000000	0.5222329225
1.5900000000	0.6314555757
1.5950000000	0.8331835204
1.6000000000	1.2267114689
1.6050000000	1.8773981276
1.6100000000	2.1787520996
1.6150000000	1.6138293597
1.6200000000	1.0838646165
1.6250000000	0.8041142490
1.6300000000	0.6636491754
1.6350000000	0.5913305031
1.6400000000	0.5546722089
1.6450000000	0.5385754137
1.6500000000	0.5354790026
1.6550000000	0.5418409271
1.6600000000	0.5555471314
1.6650000000	0.5756321398
1.6700000000	0.6017287310
1.6750000000	0.6338387975
1.6800000000	0.6722491407
1.6850000000	0.7174047628
1.6900000000	0.7696988610
1.6950000000	0.8283872664
1.7000000000	0.8924826749
1.7050000000	0.9581604378
1.7100000000	1.0330986557
1.7150000000	1.2194116769
1.7200000000	1.5463333469
1.7250000000	1.8458288603
1.7300000000	2.1672151585
1.7350000000	2.5203587596
1.7400000000	2.8668982150
1.7450000000	3.3120158247
1.7500000000	3.9851355603
1.7550000000	4.9869971444
1.7600000000	6.4859637941
1.7650000000	8.7966319388
1.7700000000	12.5187129990
1.7750000000	18.7894539418
1.7800000000	29.4746788360
1.7850000000	45.2329037466
1.7900000000	56.2124192371
1.7950000000	47.8660126395
1.8000000000	31.8562069808
1.8050000000	20.1179522445
1.8100000000	13.2642679714
1.8150000000	9.2470524024
1.8200000000	6.7748028917
1.8250000000	5.1720356700
1.8300000000	4.0838129267
1.8350000000	3.3157009814
1.8400000000	2.7560964998
1.8450000000	2.3372987781
1.8500000000	2.0166414845
1.8550000000	1.7674272947
1.8600000000	1.5710325582
1.8650000000	1.4148004556
1.8700000000	1.2897293827
1.8750000000	1.1892110527
1.8800000000	1.1080040397
1.8850000000	1.0414774230
1.8900000000	0.9842955129
1.8950000000	0.9284963768
1.9000000000	0.8603310268
1.9050000000	0.7312722246
1.9100000000	0.5536654918
1.9150000000	0.4597204096
1.9200000000	1.1235949089
1.9250000000	2.9580401468
1.9300000000	4.4128726915
1.9350000000	4.3449338008
1.9400000000	3.4173675303
1.9450000000	2.5180733441
1.9500000000	1.8866689886
1.9550000000	1.4729553509
1.9600000000	1.1995617089
1.9650000000	1.0165744135
1.9700000000	0.8844735049
1.9750000000	0.7876385628
1.9800000000	0.7137088111
1.9850000000	0.6537161741
1.9900000000	0.6007982401
1.9950000000	0.5489657591
2.0000000000	0.4973456627
2.0050000000	0.4643664622
2.0100000000	0.4832608873
2.0150000000	0.5353113690
2.0200000000	0.5674047172
2.0250000000	0.5759288729
2.0300000000	0.5778464271
2.0350000000	0.5813358566
2.0400000000	0.5894356439
2.0450000000	0.6029201148
2.0500000000	0.6222913343
2.0550000000	0.6480051462
2.0600000000	0.6800618802
2.0650000000	0.7165207224
2.0700000000	0.7525685253
2.0750000000	0.7845985472
2.0800000000	0.8157942357
2.0850000000	0.8527386505
2.0900000000	0.8998449408
2.0950000000	0.9589720339
2.1000000000	1.0321203296
2.1050000000	1.1186279017
2.1100000000	1.2245746135
2.1150000000	1.3544050441
2.1200000000	1.5143521204
2.1250000000	1.7131584211
2.1300000000	1.9631474466
2.1350000000	2.2819133222
2.1400000000	2.6948613954
2.1450000000	3.2391344504
2.1500000000	3.9688508964
2.1550000000	4.9606030877
2.1600000000	6.3124172354
2.1650000000	8.1073095285
2.1700000000	10.3120703527
2.1750000000	12.5040623321
2.1800000000	13.8584329455
2.1850000000	13.9287949825
2.1900000000	13.3129756539
2.1950000000	12.8337554825
2.2000000000	12.6212361631
2.2050000000	12.0309518660
2.2100000000	10.7777593957
2.2150000000	9.2369660940
2.2200000000	7.8537829549
2.2250000000	6.7106315062
2.2300000000	5.7040263435
2.2350000000	4.7939071032
2.2400000000	4.0121532798
2.2450000000	3.3866494197
2.2500000000	2.9071485186
2.2550000000	2.5469454961
2.2600000000	2.2772499701
2.2650000000	2.0692105966
2.2700000000	1.8916375335
2.2750000000	1.7138007157
2.2800000000	1.5223334762
2.2850000000	1.3401345295
2.2900000000	1.2142224630
2.2950000000	1.1712136993
2.3000000000	1.1865849140
2.3050000000	1.2100577883
2.3100000000	1.2120291089
2.3150000000	1.1927389707
2.3200000000	1.1650019524
2.3250000000	1.1420540627
2.3300000000	1.1306677059
2.3350000000	1.1320059383
2.3400000000	1.1422745110
2.3450000000	1.1528865451
2.3500000000	1.1530295409
2.3550000000	1.1358052021
2.3600000000	1.1031657853
2.3650000000	1.0636421936
2.3700000000	1.0260278501
2.3750000000	0.9955746703
2.3800000000	0.9739887791
2.3850000000	0.9607877533
2.3900000000	0.9548713862
2.3950000000	0.9549651736
2.4000000000	0.9614161803
2.4050000000	0.9763489074
2.4100000000	1.0004752781
2.4150000000	1.0347808911
2.4200000000	1.0798580790
2.4250000000	1.1367437972
2.4300000000	1.2069504770
2.4350000000	1.2925069930
2.4400000000	1.3960314381
2.4450000000	1.5208666852
2.4500000000	1.6712302562
2.4550000000	1.8524231913
2.4600000000	2.0709584853
2.4650000000	2.3346504210
2.4700000000	2.6524611442
2.4750000000	3.0333678761
2.4800000000	3.4866419065
2.4850000000	4.0159532387
2.4900000000	4.6161281009
2.4950000000	5.2656887401
2.5000000000	5.9192139033
2.5050000000	6.5305606750
2.5100000000	6.9435740719
2.5150000000	7.0681875604
2.5200000000	6.8829347568
2.5250000000	6.4450005918
2.5300000000	5.8540146487
2.5350000000	5.2060686587
2.5400000000	4.5690518189
2.5450000000	3.9813231432
2.5500000000	3.4599407594
2.5550000000	3.0087881133
2.5600000000	2.6216622599
2.5650000000	2.2961878179
2.5700000000	2.0247016350
2.5750000000	1.8024064594
2.5800000000	1.6257189501
2.5850000000	1.4907439802
2.5900000000	1.3910753430
2.5950000000	1.3177066107
2.6000000000	1.2612601775
2.6050000000	1.2211446199
2.6100000000	1.1864101051
2.6150000000	1.1565060245
2.6200000000	1.1320231153
2.6250000000	1.1136158908
2.6300000000	1.1017214210
2.6350000000	1.0965627211
2.6400000000	1.0982693352
2.6450000000	1.1069617809
2.6500000000	1.1228759801
2.6550000000	1.1460780277
2.6600000000	1.1769239686
2.6650000000	1.2157734936
2.6700000000	1.2630684615
2.6750000000	1.3193443074
2.6800000000	1.3851944831
2.6850000000	1.4612260413
2.6900000000	1.5479361976
2.6950000000	1.6456132730
2.7000000000	1.7541582493
2.7050000000	1.8859162423
2.7100000000	2.0297110836
2.7150000000	2.1827423256
2.7200000000	2.3409370361
2.7250000000	2.4991787736
2.7300000000	2.6516946353
2.7350000000	2.7923880841
2.7400000000	2.9149191136
2.7450000000	3.0136603396
2.7500000000	3.0798824197
2.7550000000	3.1083010464
2.7600000000	3.0949065336
2.7650000000	3.0392328015
2.7700000000	2.9450107331
2.7750000000	2.8197151611
2.7800000000	2.6730889780
2.7850000000	2.5154680533
2.7900000000	2.3561262049
2.7950000000	2.2025001817
2.8000000000	2.0598484954
2.8050000000	1.9155186510
2.8100000000	1.7919915255
2.8150000000	1.6889357974
2.8200000000	1.6046925381
2.8250000000	1.5370753012
2.8300000000	1.4838816044
2.8350000000	1.4432265120
2.8400000000	1.4131257701
2.8450000000	1.3936484357
2.8500000000	1.3833524658
2.8550000000	1.3816883922
2.8600000000	1.3882459093
2.8650000000	1.4026553760
2.8700000000	1.4245032901
2.8750000000	1.4532650155
2.8800000000	1.4882527583
2.8850000000	1.5285720298
2.8900000000	1.5731475895
2.8950000000	1.6207633815
2.9000000000	1.6701405980
2.9050000000	1.7294755654
2.9100000000	1.7863956325
2.9150000000	1.8391104731
2.9200000000	1.8857412000
2.9250000000	1.9241559893
2.9300000000	1.9523918710
2.9350000000	1.9673960003
2.9400000000	1.9678508018
2.9450000000	1.9531950514
2.9500000000	1.9242743151
2.9550000000	1.8832865709
2.9600000000	1.8334043209
2.9650000000	1.7782222640
2.9700000000	1.7212164278
2.9750000000	1.6653574337
2.9800000000	1.6129214716
2.9850000000	1.5654615156
2.9900000000	1.5239116210
2.9950000000	1.4887102392
3.0000000000	1.4599496119
