# energy (eV)    P(omega), $W$ = 300 nm, $h$ = 300 nm, $s$ = 20 nm, $d/W = 5$, $E_{\rm e}$ = 200 keV
0.2000000000	0.0633747447
0.2050000000	0.0643398237
0.2100000000	0.0652366646
0.2150000000	0.0660675460
0.2200000000	0.0668345194
0.2250000000	0.0675392781
0.2300000000	0.0681831749
0.2350000000	0.0687671512
0.2400000000	0.0692916865
0.2450000000	0.0697567137
0.2500000000	0.0701615538
0.2550000000	0.0705047461
0.2600000000	0.0707840177
0.2650000000	0.0709959898
0.2700000000	0.0711360709
0.2750000000	0.0711981115
0.2800000000	0.0711740930
0.2850000000	0.0710536658
0.2900000000	0.0708235925
0.2950000000	0.0704670062
0.3000000000	0.0699623800
0.3050000000	0.0692822798
0.3100000000	0.0683915680
0.3150000000	0.0724193708
0.3200000000	0.0772026681
0.3250000000	0.0832567887
0.3300000000	0.0913721042
0.3350000000	0.1014705981
0.3400000000	0.1146942598
0.3450000000	0.1307190261
0.3500000000	0.1516733964
0.3550000000	0.1793854057
0.3600000000	0.2155408410
0.3650000000	0.2659193779
0.3700000000	0.3322798760
0.3750000000	0.4245162143
0.3800000000	0.5578150686
0.3850000000	0.7653844653
0.3900000000	1.0930371742
0.3950000000	1.6491609063
0.4000000000	2.7085731423
0.4050000000	5.0820725309
0.4100000000	11.5535092253
0.4150000000	37.0420755595
0.4200000000	23.6168702015
0.4250000000	-44.3300705069
0.4300000000	12.3028809167
0.4350000000	7.6566256287
0.4400000000	4.6735342615
0.4450000000	3.0689788571
0.4500000000	2.1459183282
0.4550000000	1.5782386182
0.4600000000	1.2087336320
0.4650000000	0.9570751199
0.4700000000	0.7792904174
0.4750000000	0.6507562362
0.4800000000	0.5554780039
0.4850000000	0.4837832260
0.4900000000	0.4290422229
0.4950000000	0.3868064150
0.5000000000	0.3540345187
0.5050000000	0.3284975180
0.5100000000	0.3087576573
0.5150000000	0.2937553887
0.5200000000	0.2823902462
0.5250000000	0.2741603287
0.5300000000	0.2685320377
0.5350000000	0.2651134366
0.5400000000	0.2636151789
0.5450000000	0.2637956678
0.5500000000	0.2655736529
0.5550000000	0.2688114264
0.5600000000	0.2734355976
0.5650000000	0.2794110891
0.5700000000	0.2867040693
0.5750000000	0.2953643700
0.5800000000	0.3054726332
0.5850000000	0.3170804128
0.5900000000	0.3302911775
0.5950000000	0.3452374181
0.6000000000	0.3620872801
0.6050000000	0.3810888638
0.6100000000	0.4024757210
0.6150000000	0.4265695354
0.6200000000	0.4537997538
0.6250000000	0.4845776512
0.6300000000	0.5195123870
0.6350000000	0.5593629492
0.6400000000	0.6049180598
0.6450000000	0.6573181252
0.6500000000	0.7180613762
0.6550000000	0.7887065435
0.6600000000	0.8716515165
0.6650000000	0.9699697538
0.6700000000	1.0872739175
0.6750000000	1.2290759264
0.6800000000	1.4027845007
0.6850000000	1.6181012557
0.6900000000	1.8900514147
0.6950000000	2.2396442261
0.7000000000	2.7002471272
0.7050000000	3.3228569118
0.7100000000	4.1938650274
0.7150000000	5.4670366340
0.7200000000	7.4285550903
0.7250000000	10.6832556977
0.7300000000	16.6548980000
0.7350000000	29.4272051232
0.7400000000	64.4406676783
0.7450000000	213.6109341506
0.7500000000	661.2413865493
0.7550000000	166.2170275620
0.7600000000	55.0032091995
0.7650000000	26.3332914557
0.7700000000	15.3021951495
0.7750000000	9.9792723457
0.7800000000	7.0171668295
0.7850000000	5.2074372894
0.7900000000	4.0199048044
0.7950000000	3.2012020928
0.8000000000	2.6128857256
0.8050000000	2.1748839886
0.8100000000	1.8410051813
0.8150000000	1.5764491838
0.8200000000	1.3677226013
0.8250000000	1.1997128377
0.8300000000	1.0621344840
0.8350000000	0.9490478004
0.8400000000	0.8542759287
0.8450000000	0.7747682757
0.8500000000	0.7075697620
0.8550000000	0.6495974486
0.8600000000	0.6001107321
0.8650000000	0.5578348346
0.8700000000	0.5204911430
0.8750000000	0.4887102114
0.8800000000	0.4617224583
0.8850000000	0.4375287864
0.8900000000	0.4180739390
0.8950000000	0.4003773024
0.9000000000	0.3862993096
0.9050000000	0.3765053869
0.9100000000	0.3675235396
0.9150000000	0.3619522220
0.9200000000	0.3609874077
0.9250000000	0.3602055118
0.9300000000	0.3546776650
0.9350000000	0.3387483944
0.9400000000	0.2512232137
0.9450000000	-0.1454970083
0.9500000000	-2.2368446308
0.9550000000	-12.8362251821
0.9600000000	3.0274579847
0.9650000000	5.3137386077
0.9700000000	2.3557236859
0.9750000000	1.2365424435
0.9800000000	0.7750820418
0.9850000000	0.5593134918
0.9900000000	0.4350515141
0.9950000000	0.3597245316
1.0000000000	0.3116343229
1.0050000000	0.2811321012
1.0100000000	0.2575085005
1.0150000000	0.2402571310
1.0200000000	0.2286300381
1.0250000000	0.2188926368
1.0300000000	0.2115079839
1.0350000000	0.2059371977
1.0400000000	0.2024069612
1.0450000000	0.1994992269
1.0500000000	0.1976131338
1.0550000000	0.1966337701
1.0600000000	0.1968149100
1.0650000000	0.1974492833
1.0700000000	0.1988271926
1.0750000000	0.2009546862
1.0800000000	0.2040234126
1.0850000000	0.2079149707
1.0900000000	0.2136185346
1.0950000000	0.2203832628
1.1000000000	0.2284290028
1.1050000000	0.2377176508
1.1100000000	0.2485340891
1.1150000000	0.2611240449
1.1200000000	0.2757697022
1.1250000000	0.2928792677
1.1300000000	0.3129533769
1.1350000000	0.3366309633
1.1400000000	0.3646294220
1.1450000000	0.3983009511
1.1500000000	0.4390809467
1.1550000000	0.4890604803
1.1600000000	0.5511898990
1.1650000000	0.6292872154
1.1700000000	0.7305519190
1.1750000000	0.8644997056
1.1800000000	1.0468762152
1.1850000000	1.3035735145
1.1900000000	1.6833326827
1.1950000000	2.2798605472
1.2000000000	3.2920558999
1.2050000000	5.2052103082
1.2100000000	9.4137667914
1.2150000000	20.7864014355
1.2200000000	51.0212181022
1.2250000000	45.7956603233
1.2300000000	18.2259809879
1.2350000000	8.5154912196
1.2400000000	4.8367968607
1.2450000000	3.1458367184
1.2500000000	2.2514628316
1.2550000000	1.7326050453
1.2600000000	1.4137747987
1.2650000000	1.2104838918
1.2700000000	1.0845789002
1.2750000000	1.0112606783
1.2800000000	0.9783343571
1.2850000000	0.9799617400
1.2900000000	1.0146459093
1.2950000000	1.0839148088
1.3000000000	1.1970720095
1.3050000000	1.3658896172
1.3100000000	1.6130598834
1.3150000000	1.9780355068
1.3200000000	2.5320358960
1.3250000000	3.4105913794
1.3300000000	4.9114938479
1.3350000000	7.7242291331
1.3400000000	13.7363406156
1.3450000000	28.6580606582
1.3500000000	60.7546948161
1.3550000000	56.6242049582
1.3600000000	26.1025091734
1.3650000000	12.8238092283
1.3700000000	7.3549440564
1.3750000000	4.7309131857
1.3800000000	3.3002397290
1.3850000000	2.4383184441
1.3900000000	1.8825522844
1.3950000000	1.5031733109
1.4000000000	1.2329238438
1.4050000000	1.0339297702
1.4100000000	0.8830483674
1.4150000000	0.7661059185
1.4200000000	0.6725551345
1.4250000000	0.5976254256
1.4300000000	0.5370081609
1.4350000000	0.4753735851
1.4400000000	0.2802436319
1.4450000000	-0.2250810913
1.4500000000	-1.1495118830
1.4550000000	-0.4174821549
1.4600000000	1.0488316676
1.4650000000	0.6382417286
1.4700000000	-0.2723551995
1.4750000000	-1.6643831519
1.4800000000	-0.7254701041
1.4850000000	1.3065448401
1.4900000000	1.0570072599
1.4950000000	0.6887129815
1.5000000000	0.4871233790
1.5050000000	0.3776132805
1.5100000000	0.3148321338
1.5150000000	0.2761899655
1.5200000000	0.2507722300
1.5250000000	0.2345938337
1.5300000000	0.2217406176
1.5350000000	0.2123334945
1.5400000000	0.2054443350
1.5450000000	0.2005061986
1.5500000000	0.1971473138
1.5550000000	0.1951797482
1.5600000000	0.1949197386
1.5650000000	0.1956420315
1.5700000000	0.1980077228
1.5750000000	0.2024671849
1.5800000000	0.2099340258
1.5850000000	0.2222075725
1.5900000000	0.2430826354
1.5950000000	0.2808981815
1.6000000000	0.3530317373
1.6050000000	0.4698079855
1.6100000000	0.5216083284
1.6150000000	0.4212729936
1.6200000000	0.3305498581
1.6250000000	0.2855556542
1.6300000000	0.2658849598
1.6350000000	0.2588450478
1.6400000000	0.2587521496
1.6450000000	0.2630353442
1.6500000000	0.2704806986
1.6550000000	0.2805809405
1.6600000000	0.2931394052
1.6650000000	0.3081787091
1.6700000000	0.3258695328
1.6750000000	0.3465089943
1.6800000000	0.3705189133
1.6850000000	0.3984608415
1.6900000000	0.4310552778
1.6950000000	0.4689869333
1.7000000000	0.5137007973
1.7050000000	0.5678314315
1.7100000000	0.6345025687
1.7150000000	0.7291631228
1.7200000000	0.8603355936
1.7250000000	1.0193428985
1.7300000000	1.2190378973
1.7350000000	1.4324350785
1.7400000000	1.6208321227
1.7450000000	1.8551081674
1.7500000000	2.2185733384
1.7550000000	2.7672446041
1.7600000000	3.5922844555
1.7650000000	4.8658796755
1.7700000000	6.9174322788
1.7750000000	10.3717316782
1.7800000000	16.2520338603
1.7850000000	24.9101818899
1.7900000000	30.9135522989
1.7950000000	26.2817324620
1.8000000000	17.4591376941
1.8050000000	11.0023036368
1.8100000000	7.2360919049
1.8150000000	5.0299926407
1.8200000000	3.6727530210
1.8250000000	2.7927641627
1.8300000000	2.1948733126
1.8350000000	1.7722113002
1.8400000000	1.4634531281
1.8450000000	1.2313215643
1.8500000000	1.0522911989
1.8550000000	0.9116028770
1.8600000000	0.7988198027
1.8650000000	0.7067297391
1.8700000000	0.6300082139
1.8750000000	0.5644806242
1.8800000000	0.5064762474
1.8850000000	0.4522723620
1.8900000000	0.3971379927
1.8950000000	0.3338794613
1.9000000000	0.2503902367
1.9050000000	0.1082862077
1.9100000000	-0.0980588786
1.9150000000	-0.3202902386
1.9200000000	-0.2209175779
1.9250000000	0.4283432459
1.9300000000	0.9498550431
1.9350000000	0.9921813132
1.9400000000	0.8178782338
1.9450000000	0.6417609310
1.9500000000	0.5151277425
1.9550000000	0.4301656054
1.9600000000	0.3728426605
1.9650000000	0.3348918686
1.9700000000	0.3061526718
1.9750000000	0.2850604396
1.9800000000	0.2691736939
1.9850000000	0.2567677316
1.9900000000	0.2466135346
1.9950000000	0.2377155448
2.0000000000	0.2298336446
2.0050000000	0.2258175154
2.0100000000	0.2295017624
2.0150000000	0.2383105509
2.0200000000	0.2452443448
2.0250000000	0.2499717513
2.0300000000	0.2550190461
2.0350000000	0.2614760786
2.0400000000	0.2701745138
2.0450000000	0.2816557239
2.0500000000	0.2965705158
2.0550000000	0.3155789147
2.0600000000	0.3387123607
2.0650000000	0.3637731393
2.0700000000	0.3853090999
2.0750000000	0.3989899874
2.0800000000	0.4077720009
2.0850000000	0.4182576619
2.0900000000	0.4345343345
2.0950000000	0.4578513152
2.1000000000	0.4888805854
2.1050000000	0.5269123732
2.1100000000	0.5746001487
2.1150000000	0.6337859799
2.1200000000	0.7072037585
2.1250000000	0.7987834873
2.1300000000	0.9141287594
2.1350000000	1.0612768092
2.1400000000	1.2518451562
2.1450000000	1.5028149395
2.1500000000	1.8389058459
2.1550000000	2.2950570277
2.1600000000	2.9159402548
2.1650000000	3.7393330083
2.1700000000	4.7509255131
2.1750000000	5.7605043947
2.1800000000	6.3988292724
2.1850000000	6.4706901038
2.1900000000	6.2509501426
2.1950000000	6.1050662263
2.2000000000	6.0630548579
2.2050000000	5.7714613912
2.2100000000	5.0821046893
2.2150000000	4.2064690071
2.2200000000	3.4052894102
2.2250000000	2.7635924267
2.2300000000	2.2585249731
2.2350000000	1.8573664856
2.2400000000	1.5390925527
2.2450000000	1.2906738714
2.2500000000	1.0969367774
2.2550000000	0.9440802429
2.2600000000	0.8205844317
2.2650000000	0.7168646721
2.2700000000	0.6248677209
2.2750000000	0.5389413754
2.2800000000	0.4594856020
2.2850000000	0.3964754439
2.2900000000	0.3646864018
2.2950000000	0.3692110641
2.3000000000	0.3954737532
2.3050000000	0.4211396645
2.3100000000	0.4322180710
2.3150000000	0.4294192510
2.3200000000	0.4188687570
2.3250000000	0.4068199616
2.3300000000	0.3966521736
2.3350000000	0.3895366354
2.3400000000	0.3852307771
2.3450000000	0.3824809793
2.3500000000	0.3796135361
2.3550000000	0.3755581468
2.3600000000	0.3706116529
2.3650000000	0.3660722420
2.3700000000	0.3632268924
2.3750000000	0.3627045183
2.3800000000	0.3643984225
2.3850000000	0.3676633347
2.3900000000	0.3717804112
2.3950000000	0.3761348573
2.4000000000	0.3810936250
2.4050000000	0.3880237566
2.4100000000	0.3976201899
2.4150000000	0.4107641132
2.4200000000	0.4280548648
2.4250000000	0.4500376972
2.4300000000	0.4773242089
2.4350000000	0.5106810144
2.4400000000	0.5510944699
2.4450000000	0.5998371122
2.4500000000	0.6585285007
2.4550000000	0.7292175963
2.4600000000	0.8144345341
2.4650000000	0.9172407080
2.4700000000	1.0411822710
2.4750000000	1.1898689252
2.4800000000	1.3672051278
2.4850000000	1.5749465962
2.4900000000	1.8113739297
2.4950000000	2.0679356411
2.5000000000	2.3256337937
2.5050000000	2.5638086973
2.5100000000	2.7176760434
2.5150000000	2.7513622758
2.5200000000	2.6602288718
2.5250000000	2.4727896120
2.5300000000	2.2324245255
2.5350000000	1.9771840161
2.5400000000	1.7311689575
2.5450000000	1.5062909923
2.5500000000	1.3070011611
2.5550000000	1.1338649828
2.5600000000	0.9843705001
2.5650000000	0.8581900149
2.5700000000	0.7528058520
2.5750000000	0.6667277543
2.5800000000	0.5987918445
2.5850000000	0.5475562668
2.5900000000	0.5104181053
2.5950000000	0.4836091957
2.6000000000	0.4631883070
2.6050000000	0.4486238327
2.6100000000	0.4355463260
2.6150000000	0.4237949615
2.6200000000	0.4136633935
2.6250000000	0.4054403312
2.6300000000	0.3993001026
2.6350000000	0.3953182910
2.6400000000	0.3935345488
2.6450000000	0.3939936715
2.6500000000	0.3967918457
2.6550000000	0.4019452561
2.6600000000	0.4095891069
2.6650000000	0.4198428359
2.6700000000	0.4328471744
2.6750000000	0.4487690961
2.6800000000	0.4677944393
2.6850000000	0.4901261711
2.6900000000	0.5159604281
2.6950000000	0.5454749860
2.7000000000	0.5787929955
2.7050000000	0.6199263845
2.7100000000	0.6660286634
2.7150000000	0.7167833252
2.7200000000	0.7715062913
2.7250000000	0.8290579936
2.7300000000	0.8877624630
2.7350000000	0.9453363761
2.7400000000	0.9988520014
2.7450000000	1.0452186557
2.7500000000	1.0799497703
2.7550000000	1.0999636092
2.7600000000	1.1029456326
2.7650000000	1.0883004731
2.7700000000	1.0573620056
2.7750000000	1.0131231007
2.7800000000	0.9595530583
2.7850000000	0.9008745323
2.7900000000	0.8408598212
2.7950000000	0.7825290984
2.8000000000	0.7280126618
2.8050000000	0.6725776899
2.8100000000	0.6247240081
2.8150000000	0.5843424573
2.8200000000	0.5507982984
2.8250000000	0.5232479220
2.8300000000	0.5008450628
2.8350000000	0.4828684781
2.8400000000	0.4685514394
2.8450000000	0.4579455925
2.8500000000	0.4504890390
2.8550000000	0.4459724160
2.8600000000	0.4442476102
2.8650000000	0.4451976076
2.8700000000	0.4487182426
2.8750000000	0.4547029200
2.8800000000	0.4630283219
2.8850000000	0.4735411164
2.8900000000	0.4860525191
2.8950000000	0.5003319589
2.9000000000	0.5161059506
2.9050000000	0.5368268972
2.9100000000	0.5581006830
2.9150000000	0.5791069015
2.9200000000	0.5988590011
2.9250000000	0.6162130996
2.9300000000	0.6300941050
2.9350000000	0.6390707331
2.9400000000	0.6424260492
2.9450000000	0.6397929321
2.9500000000	0.6313874872
2.9550000000	0.6179765530
2.9600000000	0.6007280957
2.9650000000	0.5809970744
2.9700000000	0.5601130964
2.9750000000	0.5392298096
2.9800000000	0.5192419277
2.9850000000	0.5007736087
2.9900000000	0.4842089497
2.9950000000	0.4697436024
3.0000000000	0.4574406496
