# energy (eV)    P(omega), $W$ = 400 nm, $h$ = 300 nm, $s$ = 20 nm, $d/W = 5$, $E_{\rm e}$ = 200 keV
0.2000000000	0.0439315310
0.2050000000	0.0443311614
0.2100000000	0.0446125323
0.2150000000	0.0447709050
0.2200000000	0.0447996534
0.2250000000	0.0446897756
0.2300000000	0.0444294273
0.2350000000	0.0440031864
0.2400000000	0.0433912200
0.2450000000	0.0425679672
0.2500000000	0.0415007484
0.2550000000	0.0401475148
0.2600000000	0.0384540802
0.2650000000	0.0402284439
0.2700000000	0.0447356134
0.2750000000	0.0511852431
0.2800000000	0.0601714194
0.2850000000	0.0734194121
0.2900000000	0.0898346521
0.2950000000	0.1133673123
0.3000000000	0.1450019823
0.3050000000	0.1934904274
0.3100000000	0.2610334287
0.3150000000	0.3917261601
0.3200000000	0.5958430830
0.3250000000	0.7355908659
0.3300000000	0.9289073265
0.3350000000	1.2029614001
0.3400000000	1.6331712287
0.3450000000	2.3712737345
0.3500000000	3.8431150395
0.3550000000	7.2502471595
0.3600000000	17.8183975895
0.3650000000	0.0804896540
0.3700000000	8.2582245921
0.3750000000	10.8592582826
0.3800000000	5.0600477158
0.3850000000	2.8503752965
0.3900000000	1.8282665413
0.3950000000	1.2883434779
0.4000000000	0.9757282933
0.4050000000	0.7719250058
0.4100000000	0.6392445697
0.4150000000	0.5517345442
0.4200000000	0.4964265701
0.4250000000	0.4529891997
0.4300000000	0.4016615513
0.4350000000	0.3610387419
0.4400000000	0.3289106423
0.4450000000	0.3033650201
0.4500000000	0.2831969015
0.4550000000	0.2672041644
0.4600000000	0.2547285358
0.4650000000	0.2450737763
0.4700000000	0.2377789659
0.4750000000	0.2325216151
0.4800000000	0.2290203044
0.4850000000	0.2270282744
0.4900000000	0.2263995997
0.4950000000	0.2270220107
0.5000000000	0.2287995824
0.5050000000	0.2316895577
0.5100000000	0.2356569103
0.5150000000	0.2406808258
0.5200000000	0.2467717170
0.5250000000	0.2539381252
0.5300000000	0.2622852592
0.5350000000	0.2718598923
0.5400000000	0.2827462469
0.5450000000	0.2950547721
0.5500000000	0.3089417365
0.5550000000	0.3245780707
0.5600000000	0.3421718282
0.5650000000	0.3619905403
0.5700000000	0.3844035257
0.5750000000	0.4096845083
0.5800000000	0.4383456555
0.5850000000	0.4710867540
0.5900000000	0.5083798231
0.5950000000	0.5512181043
0.6000000000	0.6009137995
0.6050000000	0.6584503818
0.6100000000	0.7260823100
0.6150000000	0.8056791233
0.6200000000	0.9004501150
0.6250000000	1.0149995301
0.6300000000	1.1540229323
0.6350000000	1.3263436527
0.6400000000	1.5416962012
0.6450000000	1.8177451982
0.6500000000	2.1770553684
0.6550000000	2.6578491262
0.6600000000	3.3246642394
0.6650000000	4.2794647708
0.6700000000	5.7252600162
0.6750000000	8.0498795907
0.6800000000	12.1590809184
0.6850000000	20.4044557195
0.6900000000	40.8937619928
0.6950000000	114.7948145117
0.7000000000	556.7641641532
0.7050000000	270.6844554803
0.7100000000	69.5331540217
0.7150000000	29.5694136474
0.7200000000	16.1482375770
0.7250000000	10.1439823455
0.7300000000	6.9573722944
0.7350000000	5.0736089142
0.7400000000	3.8673154950
0.7450000000	3.0485313283
0.7500000000	2.4685200982
0.7550000000	2.0424027974
0.7600000000	1.7212286818
0.7650000000	1.4721627895
0.7700000000	1.2755508147
0.7750000000	1.1177082141
0.7800000000	0.9894400059
0.7850000000	0.8838242793
0.7900000000	0.7953428372
0.7950000000	0.7214445839
0.8000000000	0.6586111503
0.8050000000	0.6047790038
0.8100000000	0.5589516988
0.8150000000	0.5187859936
0.8200000000	0.4838174560
0.8250000000	0.4544727239
0.8300000000	0.4287863603
0.8350000000	0.4064557889
0.8400000000	0.3886727640
0.8450000000	0.3731561106
0.8500000000	0.3599996142
0.8550000000	0.3516833930
0.8600000000	0.3450219109
0.8650000000	0.3402521664
0.8700000000	0.3419121337
0.8750000000	0.3424932896
0.8800000000	0.3406495075
0.8850000000	0.3258378384
0.8900000000	0.2528622794
0.8950000000	-0.1128545449
0.9000000000	-2.0739258165
0.9050000000	-13.6272448046
0.9100000000	2.5948959208
0.9150000000	6.1468200340
0.9200000000	2.5516631651
0.9250000000	1.3274487190
0.9300000000	0.8103061232
0.9350000000	0.5632323302
0.9400000000	0.4299464556
0.9450000000	0.3560667183
0.9500000000	0.3036001156
0.9550000000	0.2684793460
0.9600000000	0.2467583526
0.9650000000	0.2288358270
0.9700000000	0.2160465114
0.9750000000	0.2073296479
0.9800000000	0.2020215867
0.9850000000	0.2010457241
0.9900000000	0.2029758175
0.9950000000	0.2107806815
1.0000000000	0.2294448320
1.0050000000	0.2730239208
1.0100000000	0.3872352338
1.0150000000	0.7786768905
1.0200000000	1.4953057096
1.0250000000	0.6798393374
1.0300000000	0.3482448341
1.0350000000	0.2494143908
1.0400000000	0.2105500527
1.0450000000	0.1923178053
1.0500000000	0.1831785810
1.0550000000	0.1783836895
1.0600000000	0.1762312762
1.0650000000	0.1758280669
1.0700000000	0.1766788152
1.0750000000	0.1786091769
1.0800000000	0.1812732245
1.0850000000	0.1848987897
1.0900000000	0.1901378365
1.0950000000	0.1962456202
1.1000000000	0.2032819948
1.1050000000	0.2112596412
1.1100000000	0.2203048041
1.1150000000	0.2305378397
1.1200000000	0.2421015846
1.1250000000	0.2551142402
1.1300000000	0.2699129235
1.1350000000	0.2867248624
1.1400000000	0.3058903542
1.1450000000	0.3278421138
1.1500000000	0.3529168686
1.1550000000	0.3821630953
1.1600000000	0.4162437858
1.1650000000	0.4560273358
1.1700000000	0.5016939090
1.1750000000	0.5480085718
1.1800000000	0.5918406952
1.1850000000	0.8225716928
1.1900000000	1.0208117209
1.1950000000	1.3993736493
1.2000000000	1.9058472018
1.2050000000	1.6717577664
1.2100000000	1.5999036921
1.2150000000	1.7811532312
1.2200000000	2.1302767239
1.2250000000	2.6664193666
1.2300000000	3.4816622199
1.2350000000	4.7712912634
1.2400000000	6.9436719191
1.2450000000	11.0342507671
1.2500000000	19.8932923493
1.2550000000	43.0627455296
1.2600000000	104.0145021587
1.2650000000	105.3623948740
1.2700000000	43.8286183928
1.2750000000	20.2313369936
1.2800000000	11.2044797453
1.2850000000	7.0460458832
1.2900000000	4.8294229344
1.2950000000	3.5197566659
1.3000000000	2.6855570725
1.3050000000	2.1238931229
1.3100000000	1.7278295467
1.3150000000	1.4416539987
1.3200000000	1.2295117481
1.3250000000	1.0698670580
1.3300000000	0.9496392511
1.3350000000	0.8608018903
1.3400000000	0.7991878829
1.3450000000	0.7636545521
1.3500000000	0.7593855108
1.3550000000	0.7981816884
1.3600000000	0.9100698203
1.3650000000	1.1714596584
1.3700000000	1.7956936778
1.3750000000	3.3488381247
1.3800000000	5.4700970521
1.3850000000	3.8212777071
1.3900000000	1.9473465308
1.3950000000	1.1299146918
1.4000000000	0.7399797672
1.4050000000	0.5003262037
1.4100000000	0.2834205660
1.4150000000	-0.0401573274
1.4200000000	-0.7645955657
1.4250000000	-2.6841623769
1.4300000000	-3.6090339299
1.4350000000	1.6534497904
1.4400000000	2.1150157492
1.4450000000	1.2680443221
1.4500000000	0.7890288719
1.4550000000	0.5439123684
1.4600000000	0.4016472113
1.4650000000	0.2892137514
1.4700000000	0.1689494102
1.4750000000	0.1985437136
1.4800000000	0.2910761324
1.4850000000	0.2643067043
1.4900000000	0.2340372266
1.4950000000	0.2144586891
1.5000000000	0.2015971644
1.5050000000	0.1930930885
1.5100000000	0.1873078501
1.5150000000	0.1841511123
1.5200000000	0.1818240148
1.5250000000	0.1809842110
1.5300000000	0.1817089517
1.5350000000	0.1843300732
1.5400000000	0.1896755203
1.5450000000	0.1995840649
1.5500000000	0.2181885894
1.5550000000	0.2537270910
1.5600000000	0.3070726473
1.5650000000	0.3156221533
1.5700000000	0.2674841452
1.5750000000	0.2337052162
1.5800000000	0.2191343129
1.5850000000	0.2145507133
1.5900000000	0.2151468120
1.5950000000	0.2188347991
1.6000000000	0.2247050894
1.6050000000	0.2324445792
1.6100000000	0.2418194580
1.6150000000	0.2527949376
1.6200000000	0.2655458679
1.6250000000	0.2802230873
1.6300000000	0.2970744836
1.6350000000	0.3164196295
1.6400000000	0.3386671683
1.6450000000	0.3643390157
1.6500000000	0.3940902980
1.6550000000	0.4287512435
1.6600000000	0.4693974972
1.6650000000	0.5174174869
1.6700000000	0.5741612016
1.6750000000	0.6429415173
1.6800000000	0.7266867560
1.6850000000	0.8300037021
1.6900000000	0.9594331259
1.6950000000	1.1245733870
1.7000000000	1.3398737062
1.7050000000	1.6368864618
1.7100000000	2.0512724387
1.7150000000	2.6535918995
1.7200000000	3.5715483274
1.7250000000	5.0278515192
1.7300000000	7.2657909135
1.7350000000	10.1377796361
1.7400000000	13.7683973648
1.7450000000	20.1395334765
1.7500000000	28.4098722423
1.7550000000	28.8668836111
1.7600000000	20.2519652532
1.7650000000	12.6150896372
1.7700000000	8.0867708935
1.7750000000	5.5118010197
1.7800000000	3.9901032532
1.7850000000	3.0540701852
1.7900000000	2.4735871247
1.7950000000	2.1414410542
1.8000000000	2.0073768552
1.8050000000	1.9649306357
1.8100000000	1.7482224095
1.8150000000	1.3546223336
1.8200000000	1.0401634020
1.8250000000	0.8780298501
1.8300000000	0.7644165962
1.8350000000	0.6634456229
1.8400000000	0.5811112200
1.8450000000	0.5157736589
1.8500000000	0.4631184106
1.8550000000	0.4196191853
1.8600000000	0.3796058126
1.8650000000	0.3457781443
1.8700000000	0.3115900543
1.8750000000	0.2623051026
1.8800000000	0.1499611536
1.8850000000	-0.0962626747
1.8900000000	-0.4274489880
1.8950000000	-0.4842743534
1.9000000000	0.0518227508
1.9050000000	0.5516561059
1.9100000000	0.6099800219
1.9150000000	0.5153197705
1.9200000000	0.4225439236
1.9250000000	0.3567096792
1.9300000000	0.3168398928
1.9350000000	0.2864005943
1.9400000000	0.2661508974
1.9450000000	0.2527458777
1.9500000000	0.2433759209
1.9550000000	0.2355365795
1.9600000000	0.2287688578
1.9650000000	0.2239635673
1.9700000000	0.2213976201
1.9750000000	0.2209002522
1.9800000000	0.2223331163
1.9850000000	0.2257378503
1.9900000000	0.2313379812
1.9950000000	0.2394131051
2.0000000000	0.2497532373
2.0050000000	0.2614836348
2.0100000000	0.2698984911
2.0150000000	0.2755114212
2.0200000000	0.2822796181
2.0250000000	0.2927262914
2.0300000000	0.3075940111
2.0350000000	0.3272545613
2.0400000000	0.3523830168
2.0450000000	0.3841506673
2.0500000000	0.4242396764
2.0550000000	0.4745193944
2.0600000000	0.5358964252
2.0650000000	0.6074057855
2.0700000000	0.6901216495
2.0750000000	0.7932712250
2.0800000000	0.9320885260
2.0850000000	1.1214268283
2.0900000000	1.3699243580
2.0950000000	1.6597277054
2.1000000000	1.9180237317
2.1050000000	2.0431852848
2.1100000000	1.9837496876
2.1150000000	1.8469785743
2.1200000000	1.7503085175
2.1250000000	1.7461872020
2.1300000000	1.8501749983
2.1350000000	2.0746050961
2.1400000000	2.4441801067
2.1450000000	3.0026025523
2.1500000000	3.8110702484
2.1550000000	4.9155522435
2.1600000000	6.2269795644
2.1650000000	7.3292115812
2.1700000000	7.5896538683
2.1750000000	6.7939681433
2.1800000000	5.4849500776
2.1850000000	4.2318975167
2.1900000000	3.2521961923
2.1950000000	2.5443918049
2.2000000000	2.0478093321
2.2050000000	1.7052097686
2.2100000000	1.4673766457
2.2150000000	1.2849562596
2.2200000000	1.1214946341
2.2250000000	0.9660148111
2.2300000000	0.8252379267
2.2350000000	0.7043613508
2.2400000000	0.6019832267
2.2450000000	0.5135837281
2.2500000000	0.4346638796
2.2550000000	0.3627074719
2.2600000000	0.2907496805
2.2650000000	0.2384019353
2.2700000000	0.2099663226
2.2750000000	0.2171240618
2.2800000000	0.2584233733
2.2850000000	0.3110134722
2.2900000000	0.3495081433
2.2950000000	0.3665690846
2.3000000000	0.3685197981
2.3050000000	0.3626318147
2.3100000000	0.3548761713
2.3150000000	0.3480043719
2.3200000000	0.3431042377
2.3250000000	0.3407730810
2.3300000000	0.3414941162
2.3350000000	0.3456676279
2.3400000000	0.3536356034
2.3450000000	0.3657441071
2.3500000000	0.3823597877
2.3550000000	0.4040323119
2.3600000000	0.4304058281
2.3650000000	0.4616444408
2.3700000000	0.4976612950
2.3750000000	0.5388473846
2.3800000000	0.5866894253
2.3850000000	0.6429515248
2.3900000000	0.7080237625
2.3950000000	0.7790085886
2.4000000000	0.8484571137
2.4050000000	0.9083064615
2.4100000000	0.9414796670
2.4150000000	0.9446509173
2.4200000000	0.9259304122
2.4250000000	0.8991481344
2.4300000000	0.8765785146
2.4350000000	0.8656310030
2.4400000000	0.8692623830
2.4450000000	0.8879505075
2.4500000000	0.9217552317
2.4550000000	0.9714298473
2.4600000000	1.0401588740
2.4650000000	1.1312067938
2.4700000000	1.2482088533
2.4750000000	1.3934355154
2.4800000000	1.5657409332
2.4850000000	1.7577733091
2.4900000000	1.9527156017
2.4950000000	2.1226608437
2.5000000000	2.2326875302
2.5050000000	2.2468327699
2.5100000000	2.1507368564
2.5150000000	1.9706293797
2.5200000000	1.7484206045
2.5250000000	1.5209298229
2.5300000000	1.3106006588
2.5350000000	1.1268631709
2.5400000000	0.9711056594
2.5450000000	0.8410172162
2.5500000000	0.7332489570
2.5550000000	0.6447919509
2.5600000000	0.5708267514
2.5650000000	0.5154726625
2.5700000000	0.4756990800
2.5750000000	0.4500875784
2.5800000000	0.4357954052
2.5850000000	0.4289346105
2.5900000000	0.4258564452
2.5950000000	0.4242888628
2.6000000000	0.4234992814
2.6050000000	0.4268759081
2.6100000000	0.4322259875
2.6150000000	0.4403687260
2.6200000000	0.4517393584
2.6250000000	0.4663646975
2.6300000000	0.4838319187
2.6350000000	0.5032648476
2.6400000000	0.5233247458
2.6450000000	0.5423139830
2.6500000000	0.5584346759
2.6550000000	0.5702127429
2.6600000000	0.5769634559
2.6650000000	0.5790889970
2.6700000000	0.5779933855
2.6750000000	0.5757289661
2.6800000000	0.5742844369
2.6850000000	0.5755178429
2.6900000000	0.5807231384
2.6950000000	0.5906955376
2.7000000000	0.6058163261
2.7050000000	0.6284501080
2.7100000000	0.6575787087
2.7150000000	0.6927312196
2.7200000000	0.7329342192
2.7250000000	0.7765352866
2.7300000000	0.8210397983
2.7350000000	0.8630844840
2.7400000000	0.8986687596
2.7450000000	0.9237306860
2.7500000000	0.9349962792
2.7550000000	0.9308160503
2.7600000000	0.9116114325
2.7650000000	0.8797226644
2.7700000000	0.8387308238
2.7750000000	0.7926035104
2.7800000000	0.7449788376
2.7850000000	0.6987672257
2.7900000000	0.6556559720
2.7950000000	0.6174914559
2.8000000000	0.5846556580
2.8050000000	0.5542435279
2.8100000000	0.5302655875
2.8150000000	0.5117778780
2.8200000000	0.4977549328
2.8250000000	0.4872557487
2.8300000000	0.4794805498
2.8350000000	0.4737659481
2.8400000000	0.4695513927
2.8450000000	0.4663609683
2.8500000000	0.4638125155
2.8550000000	0.4616523348
2.8600000000	0.4597945327
2.8650000000	0.4583337091
2.8700000000	0.4575209232
2.8750000000	0.4577014747
2.8800000000	0.4592384398
2.8850000000	0.4624437072
2.8900000000	0.4675299495
2.8950000000	0.4745816635
2.9000000000	0.4835409128
2.9050000000	0.4969420310
2.9100000000	0.5116378968
2.9150000000	0.5266473349
2.9200000000	0.5407303516
2.9250000000	0.5525548930
2.9300000000	0.5608841843
2.9350000000	0.5647935049
2.9400000000	0.5638491368
2.9450000000	0.5581911864
2.9500000000	0.5484811999
2.9550000000	0.5357335547
2.9600000000	0.5211016690
2.9650000000	0.5056780887
2.9700000000	0.4903613112
2.9750000000	0.4757975298
2.9800000000	0.4623845797
2.9850000000	0.4503149008
2.9900000000	0.4396332478
2.9950000000	0.4302927846
3.0000000000	0.4222008661
