# energy (eV)    P(omega), $W$ = 300 nm, $h$ = 300 nm, $s$ = 20 nm, $d/W = 5$, $E_{\rm e}$ = 200 keV
0.2000000000	0.0829661178
0.2050000000	0.0841578302
0.2100000000	0.0852780708
0.2150000000	0.0863290733
0.2200000000	0.0873127633
0.2250000000	0.0882307324
0.2300000000	0.0890841492
0.2350000000	0.0898737433
0.2400000000	0.0905997220
0.2450000000	0.0912615910
0.2500000000	0.0918582547
0.2550000000	0.0923876101
0.2600000000	0.0928465840
0.2650000000	0.0932308941
0.2700000000	0.0935346699
0.2750000000	0.0937502271
0.2800000000	0.0938676058
0.2850000000	0.0938740714
0.2900000000	0.0937532631
0.2950000000	0.0934845509
0.3000000000	0.0930413695
0.3050000000	0.0923901576
0.3100000000	0.0914878286
0.3150000000	0.0964155148
0.3200000000	0.1022686727
0.3250000000	0.1096677014
0.3300000000	0.1195687808
0.3350000000	0.1318971369
0.3400000000	0.1480430001
0.3450000000	0.1676438130
0.3500000000	0.1932958875
0.3550000000	0.2272554144
0.3600000000	0.2716296546
0.3650000000	0.3335214792
0.3700000000	0.4152109534
0.3750000000	0.5289312550
0.3800000000	0.6935222435
0.3850000000	0.9501450196
0.3900000000	1.3558622417
0.3950000000	2.0455308553
0.4000000000	3.3611744320
0.4050000000	6.3127991937
0.4100000000	14.3725024998
0.4150000000	46.1636391482
0.4200000000	29.3842285276
0.4250000000	-55.4692952106
0.4300000000	15.4577093159
0.4350000000	9.6450536375
0.4400000000	5.9050171471
0.4450000000	3.8903783690
0.4500000000	2.7298354347
0.4550000000	2.0152104052
0.4600000000	1.5495118803
0.4650000000	1.2320005914
0.4700000000	1.0074859600
0.4750000000	0.8450593200
0.4800000000	0.7246077267
0.4850000000	0.6339701096
0.4900000000	0.5648000758
0.4950000000	0.5114922129
0.5000000000	0.4702161847
0.5050000000	0.4381583317
0.5100000000	0.4135105914
0.5150000000	0.3949425611
0.5200000000	0.3810553359
0.5250000000	0.3712259067
0.5300000000	0.3647799947
0.5350000000	0.3612258581
0.5400000000	0.3602015734
0.5450000000	0.3614049848
0.5500000000	0.3647461284
0.5550000000	0.3700564679
0.5600000000	0.3772539180
0.5650000000	0.3863038286
0.5700000000	0.3971768905
0.5750000000	0.4099509201
0.5800000000	0.4247524026
0.5850000000	0.4416644573
0.5900000000	0.4608452021
0.5950000000	0.4824907086
0.6000000000	0.5068504206
0.6050000000	0.5342818784
0.6100000000	0.5651295137
0.6150000000	0.5998607663
0.6200000000	0.6390995622
0.6250000000	0.6834432811
0.6300000000	0.7337748784
0.6350000000	0.7911949009
0.6400000000	0.8568489489
0.6450000000	0.9323897934
0.6500000000	1.0199912539
0.6550000000	1.1219167126
0.6600000000	1.2416435157
0.6650000000	1.3836370763
0.6700000000	1.5531470692
0.6750000000	1.7581756513
0.6800000000	2.0094969383
0.6850000000	2.3212146213
0.6900000000	2.7151906833
0.6950000000	3.2219908840
0.7000000000	3.8901975465
0.7050000000	4.7940781776
0.7100000000	6.0595094231
0.7150000000	7.9105944384
0.7200000000	10.7646354866
0.7250000000	15.5039204075
0.7300000000	24.2062376085
0.7350000000	42.8338628332
0.7400000000	93.9411369365
0.7450000000	311.8765839293
0.7500000000	966.9138431756
0.7550000000	243.4318160892
0.7600000000	80.6807534730
0.7650000000	38.6876341620
0.7700000000	22.5170779845
0.7750000000	14.7079920489
0.7800000000	10.3590056240
0.7850000000	7.6999418757
0.7900000000	5.9537795884
0.7950000000	4.7490551823
0.8000000000	3.8827253940
0.8050000000	3.2372835708
0.8100000000	2.7449293035
0.8150000000	2.3544780050
0.8200000000	2.0462262820
0.8250000000	1.7979555909
0.8300000000	1.5945146871
0.8350000000	1.4272118838
0.8400000000	1.2869303189
0.8450000000	1.1691902327
0.8500000000	1.0696576386
0.8550000000	0.9837410522
0.8600000000	0.9103955811
0.8650000000	0.8477609157
0.8700000000	0.7924012757
0.8750000000	0.7453347064
0.8800000000	0.7054339357
0.8850000000	0.6696569134
0.8900000000	0.6410340471
0.8950000000	0.6149929509
0.9000000000	0.5944378728
0.9050000000	0.5804393428
0.9100000000	0.5676187814
0.9150000000	0.5600351775
0.9200000000	0.5595873394
0.9250000000	0.5593526782
0.9300000000	0.5515327882
0.9350000000	0.5270434045
0.9400000000	0.3887920737
0.9450000000	-0.2412075932
0.9500000000	-3.5693066207
0.9550000000	-20.4620894785
0.9600000000	4.8331388527
0.9650000000	8.4947995279
0.9700000000	3.7703162110
0.9750000000	1.9802226101
0.9800000000	1.2413313185
0.9850000000	0.8956536905
0.9900000000	0.6963801373
0.9950000000	0.5755048563
1.0000000000	0.4983112516
1.0050000000	0.4493934985
1.0100000000	0.4114274100
1.0150000000	0.3836744980
1.0200000000	0.3649897829
1.0250000000	0.3492656469
1.0300000000	0.3372936673
1.0350000000	0.3282043728
1.0400000000	0.3223986020
1.0450000000	0.3175171016
1.0500000000	0.3142318501
1.0550000000	0.3123547293
1.0600000000	0.3123197394
1.0650000000	0.3129192567
1.0700000000	0.3146408702
1.0750000000	0.3174902928
1.0800000000	0.3217871175
1.0850000000	0.3272497218
1.0900000000	0.3353922601
1.0950000000	0.3450755127
1.1000000000	0.3566394550
1.1050000000	0.3699354194
1.1100000000	0.3853977455
1.1150000000	0.4033690899
1.1200000000	0.4242699548
1.1250000000	0.4485800334
1.1300000000	0.4770245861
1.1350000000	0.5104793781
1.1400000000	0.5499581602
1.1450000000	0.5972373496
1.1500000000	0.6543101402
1.1550000000	0.7240291186
1.1600000000	0.8104181200
1.1650000000	0.9187137669
1.1700000000	1.0586468781
1.1750000000	1.2432043542
1.1800000000	1.4938247537
1.1850000000	1.8457267928
1.1900000000	2.3653849452
1.1950000000	3.1802074967
1.2000000000	4.5611539043
1.2050000000	7.1694324320
1.2100000000	12.9057689963
1.2150000000	28.4130033505
1.2200000000	69.6854081219
1.2250000000	62.6699530708
1.2300000000	25.0731165122
1.2350000000	11.8218712629
1.2400000000	6.8052041833
1.2450000000	4.5061791180
1.2500000000	3.2983548412
1.2550000000	2.6069318196
1.2600000000	2.1926091848
1.2650000000	1.9404533047
1.2700000000	1.7996809177
1.2750000000	1.7375293479
1.2800000000	1.7391867235
1.2850000000	1.7992268596
1.2900000000	1.9192869637
1.2950000000	2.1062093377
1.3000000000	2.3814731868
1.3050000000	2.7730410826
1.3100000000	3.3314854073
1.3150000000	4.1439367994
1.3200000000	5.3663901205
1.3250000000	7.2967461518
1.3300000000	10.5852083577
1.3350000000	16.7414521003
1.3400000000	29.8981805653
1.3450000000	62.5672155882
1.3500000000	132.9151157900
1.3550000000	124.0431603048
1.3600000000	57.2240868936
1.3650000000	28.1204436602
1.3700000000	16.1267154761
1.3750000000	10.3699539341
1.3800000000	7.2309384652
1.3850000000	5.3403431371
1.3900000000	4.1224747307
1.3950000000	3.2921015824
1.4000000000	2.7024437400
1.4050000000	2.2706666167
1.4100000000	1.9470990787
1.4150000000	1.7029548124
1.4200000000	1.5193768700
1.4250000000	1.3964602460
1.4300000000	1.3515540920
1.4350000000	1.3768443892
1.4400000000	1.0607464436
1.4450000000	0.0922735387
1.4500000000	-1.4797304905
1.4550000000	-0.4145900849
1.4600000000	1.7929155709
1.4650000000	0.9704511033
1.4700000000	-0.9174822026
1.4750000000	-4.0138829228
1.4800000000	-1.7864882366
1.4850000000	2.9358844156
1.4900000000	2.3798452014
1.4950000000	1.5403902803
1.5000000000	1.0822942888
1.5050000000	0.8356285183
1.5100000000	0.6950373078
1.5150000000	0.6096576359
1.5200000000	0.5545049493
1.5250000000	0.5202377715
1.5300000000	0.4940628216
1.5350000000	0.4760218864
1.5400000000	0.4641398621
1.5450000000	0.4573571914
1.5500000000	0.4549897930
1.5550000000	0.4570555046
1.5600000000	0.4647735332
1.5650000000	0.4775192389
1.5700000000	0.4981541465
1.5750000000	0.5301695117
1.5800000000	0.5801205237
1.5850000000	0.6607672013
1.5900000000	0.7989929835
1.5950000000	1.0542891091
1.6000000000	1.5523196245
1.6050000000	2.3758028464
1.6100000000	2.7571911541
1.6150000000	2.0422506263
1.6200000000	1.3715446929
1.6250000000	1.0174979636
1.6300000000	0.8397245397
1.6350000000	0.7481940367
1.6400000000	0.7017933301
1.6450000000	0.6814137231
1.6500000000	0.6774859752
1.6550000000	0.6855273020
1.6600000000	0.7028620062
1.6650000000	0.7282679884
1.6700000000	0.7612802310
1.6750000000	0.8019007811
1.6800000000	0.8504921443
1.6850000000	0.9076169091
1.6900000000	0.9737718354
1.6950000000	1.0480138819
1.7000000000	1.1290911748
1.7050000000	1.2121582525
1.7100000000	1.3069308747
1.7150000000	1.5426576900
1.7200000000	1.9563338781
1.7250000000	2.3352491322
1.7300000000	2.7418180223
1.7350000000	3.1885709038
1.7400000000	3.6270012128
1.7450000000	4.1901609194
1.7500000000	5.0417729639
1.7550000000	6.3092879430
1.7600000000	8.2057138835
1.7650000000	11.1290656398
1.7700000000	15.8380728392
1.7750000000	23.7715316399
1.7800000000	37.2900060833
1.7850000000	57.2266390724
1.7900000000	71.1175006825
1.7950000000	60.5580598102
1.8000000000	40.3031806432
1.8050000000	25.4524540817
1.8100000000	16.7814661691
1.8150000000	11.6990544409
1.8200000000	8.5712678689
1.8250000000	6.5435138738
1.8300000000	5.1667405015
1.8350000000	4.1949586559
1.8400000000	3.4869725569
1.8450000000	2.9571302768
1.8500000000	2.5514522935
1.8550000000	2.2361624391
1.8600000000	1.9876991401
1.8650000000	1.7900499078
1.8700000000	1.6318268389
1.8750000000	1.5046702047
1.8800000000	1.4019499268
1.8850000000	1.3178088596
1.8900000000	1.2454991174
1.8950000000	1.1749516855
1.9000000000	1.0887785277
1.9050000000	0.9256019381
1.9100000000	0.7010589431
1.9150000000	0.5824508707
1.9200000000	1.4227426624
1.9250000000	3.7441284649
1.9300000000	5.5851268872
1.9350000000	5.4990582162
1.9400000000	4.3250528031
1.9450000000	3.1868410912
1.9500000000	2.3876943861
1.9550000000	1.8640741679
1.9600000000	1.5180528554
1.9650000000	1.2864539449
1.9700000000	1.1192616323
1.9750000000	0.9967034045
1.9800000000	0.9031346048
1.9850000000	0.8272045493
1.9900000000	0.7602275100
1.9950000000	0.6946228076
2.0000000000	0.6292855173
2.0050000000	0.5875411769
2.0100000000	0.6114553344
2.0150000000	0.6773361102
2.0200000000	0.7179547511
2.0250000000	0.7287390432
2.0300000000	0.7311591956
2.0350000000	0.7355671956
2.0400000000	0.7458084130
2.0450000000	0.7628622745
2.0500000000	0.7873634103
2.0550000000	0.8198879031
2.0600000000	0.8604361347
2.0650000000	0.9065544563
2.0700000000	0.9521579091
2.0750000000	0.9926871253
2.0800000000	1.0321677566
2.0850000000	1.0789236800
2.0900000000	1.1385356166
2.0950000000	1.2133550276
2.1000000000	1.3059134127
2.1050000000	1.4153738818
2.1100000000	1.5494294831
2.1150000000	1.7137042340
2.1200000000	1.9160848300
2.1250000000	2.1676333644
2.1300000000	2.4839428098
2.1350000000	2.8872749955
2.1400000000	3.4097753099
2.1450000000	4.0984404810
2.1500000000	5.0217465153
2.1550000000	6.2766057963
2.1600000000	7.9870510222
2.1650000000	10.2581229349
2.1700000000	13.0478003865
2.1750000000	15.8213165540
2.1800000000	17.5349756451
2.1850000000	17.6239512192
2.1900000000	16.8446712436
2.1950000000	16.2382142364
2.2000000000	15.9692393183
2.2050000000	15.2223875241
2.2100000000	13.6368919292
2.2150000000	11.6875725061
2.2200000000	9.9376730960
2.2250000000	8.4914139444
2.2300000000	7.2178192038
2.2350000000	6.0662216006
2.2400000000	5.0770097713
2.2450000000	4.2855034690
2.2500000000	3.6787523127
2.2550000000	3.2229685637
2.2600000000	2.8817213294
2.2650000000	2.6184997948
2.2700000000	2.3938305939
2.2750000000	2.1688191346
2.2800000000	1.9265433556
2.2850000000	1.6959776855
2.2900000000	1.5366242300
2.2950000000	1.4821707259
2.3000000000	1.5015925017
2.3050000000	1.5312713258
2.3100000000	1.5337508048
2.3150000000	1.5093338123
2.3200000000	1.4742342208
2.3250000000	1.4451992625
2.3300000000	1.4307976715
2.3350000000	1.4325001985
2.3400000000	1.4455040310
2.3450000000	1.4589407228
2.3500000000	1.4591250049
2.3550000000	1.4373257563
2.3600000000	1.3960139195
2.3650000000	1.3459869901
2.3700000000	1.2983747956
2.3750000000	1.2598248780
2.3800000000	1.2324971668
2.3850000000	1.2157818692
2.3900000000	1.2082872202
2.3950000000	1.2084006668
2.4000000000	1.2165610772
2.4050000000	1.2354560541
2.4100000000	1.2659858280
2.4150000000	1.3093969099
2.4200000000	1.3664383495
2.4250000000	1.4384221296
2.4300000000	1.5272620820
2.4350000000	1.6355255738
2.4400000000	1.7665255908
2.4450000000	1.9244922693
2.4500000000	2.1147625051
2.4550000000	2.3440442687
2.4600000000	2.6205791291
2.4650000000	2.9542552633
2.4700000000	3.3564133217
2.4750000000	3.8384128915
2.4800000000	4.4119854202
2.4850000000	5.0817743732
2.4900000000	5.8412322866
2.4950000000	6.6631813069
2.5000000000	7.4901470275
2.5050000000	8.2637437979
2.5100000000	8.7863788647
2.5150000000	8.9440834125
2.5200000000	8.7096892190
2.5250000000	8.1555497044
2.5300000000	7.4077299758
2.5350000000	6.5878233994
2.5400000000	5.7817401170
2.5450000000	5.0380234712
2.5500000000	4.3782616962
2.5550000000	3.8073701370
2.5600000000	3.3174997064
2.5650000000	2.9056437993
2.5700000000	2.5621048526
2.5750000000	2.2808119475
2.5800000000	2.0572304128
2.5850000000	1.8864312781
2.5900000000	1.7603082831
2.5950000000	1.6674650455
2.6000000000	1.5960355331
2.6050000000	1.5452717370
2.6100000000	1.5013178860
2.6150000000	1.4634771966
2.6200000000	1.4324970764
2.6250000000	1.4092057257
2.6300000000	1.3941562192
2.6350000000	1.3876307662
2.6400000000	1.3897933339
2.6450000000	1.4007964086
2.6500000000	1.4209385564
2.6550000000	1.4503034445
2.6600000000	1.4893416492
2.6650000000	1.5385083963
2.6700000000	1.5983629024
2.6750000000	1.6695827661
2.6800000000	1.7529190167
2.6850000000	1.8491398481
2.6900000000	1.9588743923
2.6950000000	2.0824873581
2.7000000000	2.2198532033
2.7050000000	2.3865945713
2.7100000000	2.5685669955
2.7150000000	2.7622257407
2.7200000000	2.9624156757
2.7250000000	3.1626612744
2.7300000000	3.3556567225
2.7350000000	3.5336873144
2.7400000000	3.6887310004
2.7450000000	3.8136680878
2.7500000000	3.8974538848
2.7550000000	3.9334029781
2.7600000000	3.9164425035
2.7650000000	3.8459832267
2.7700000000	3.7267463826
2.7750000000	3.5681905466
2.7800000000	3.3826441810
2.7850000000	3.1831860665
2.7900000000	2.9815511381
2.7950000000	2.7871497324
2.8000000000	2.6066358908
2.8050000000	2.4239987899
2.8100000000	2.2676862472
2.8150000000	2.1372790331
2.8200000000	2.0306779142
2.8250000000	1.9451161576
2.8300000000	1.8778067281
2.8350000000	1.8263643845
2.8400000000	1.7882782510
2.8450000000	1.7636356686
2.8500000000	1.7506118674
2.8550000000	1.7485115290
2.8600000000	1.7568154233
2.8650000000	1.7750557530
2.8700000000	1.8027091859
2.8750000000	1.8391116928
2.8800000000	1.8833927453
2.8850000000	1.9344201942
2.8900000000	1.9908330959
2.8950000000	2.0510923317
2.9000000000	2.1135793933
2.9050000000	2.1886656128
2.9100000000	2.2606939746
2.9150000000	2.3273991554
2.9200000000	2.3864039106
2.9250000000	2.4350110557
2.9300000000	2.4707370526
2.9350000000	2.4897191404
2.9400000000	2.4902903320
2.9450000000	2.4717406437
2.9500000000	2.4351402357
2.9550000000	2.3832705660
2.9600000000	2.3201462270
2.9650000000	2.2503160526
2.9700000000	2.1781786631
2.9750000000	2.1074931116
2.9800000000	2.0411396965
2.9850000000	1.9810835428
2.9900000000	1.9285065817
2.9950000000	1.8839635857
3.0000000000	1.8475712432
