# energy (eV)    P(omega), $W$ = 300 nm, $h$ = 300 nm, $s$ = 20 nm, $d/W = 5$, $E_{\rm e}$ = 200 keV
0.2000000000	0.0677831557
0.2050000000	0.0687988858
0.2100000000	0.0697486040
0.2150000000	0.0706344614
0.2200000000	0.0714582918
0.2250000000	0.0722216537
0.2300000000	0.0729257368
0.2350000000	0.0735713297
0.2400000000	0.0741587292
0.2450000000	0.0746877101
0.2500000000	0.0751573999
0.2550000000	0.0755661337
0.2600000000	0.0759114142
0.2650000000	0.0761896136
0.2700000000	0.0763958193
0.2750000000	0.0765235206
0.2800000000	0.0765642660
0.2850000000	0.0765071902
0.2900000000	0.0763383754
0.2950000000	0.0760401624
0.3000000000	0.0755899933
0.3050000000	0.0749591230
0.3100000000	0.0741107503
0.3150000000	0.0783236272
0.3200000000	0.0833269594
0.3250000000	0.0896551656
0.3300000000	0.0981299984
0.3350000000	0.1086789938
0.3400000000	0.1224930648
0.3450000000	0.1392481664
0.3500000000	0.1611664474
0.3550000000	0.1901678286
0.3600000000	0.2280340267
0.3650000000	0.2808226244
0.3700000000	0.3504265148
0.3750000000	0.4472461001
0.3800000000	0.5872719995
0.3850000000	0.8054554349
0.3900000000	1.1501310737
0.3950000000	1.7355942920
0.4000000000	2.8516800118
0.4050000000	5.3538872084
0.4100000000	12.1813893681
0.4150000000	39.0925842673
0.4200000000	24.9077815708
0.4250000000	-46.8821668584
0.4300000000	13.0364530311
0.4350000000	8.1236453926
0.4400000000	4.9658940780
0.4450000000	3.2661300324
0.4500000000	2.2876276371
0.4550000000	1.6854691191
0.4600000000	1.2932900691
0.4650000000	1.0260445564
0.4700000000	0.8371608761
0.4750000000	0.7005562843
0.4800000000	0.5992752103
0.4850000000	0.5230634803
0.4900000000	0.4648885091
0.4950000000	0.4200293370
0.5000000000	0.3852590305
0.5050000000	0.3582100369
0.5100000000	0.3373577925
0.5150000000	0.3215798844
0.5200000000	0.3097032738
0.5250000000	0.3011992915
0.5300000000	0.2955006111
0.5350000000	0.2921922963
0.5400000000	0.2909684341
0.5450000000	0.2915734713
0.5500000000	0.2939264789
0.5550000000	0.2978833816
0.5600000000	0.3033705206
0.5650000000	0.3103547836
0.5700000000	0.3188059883
0.5750000000	0.3287831656
0.5800000000	0.3403822848
0.5850000000	0.3536659467
0.5900000000	0.3687555194
0.5950000000	0.3858037108
0.6000000000	0.4050050449
0.6050000000	0.4266415109
0.6100000000	0.4509821143
0.6150000000	0.4783944064
0.6200000000	0.5093686817
0.6250000000	0.5443750146
0.6300000000	0.5841082260
0.6350000000	0.6294343114
0.6400000000	0.6812543291
0.6450000000	0.7408689335
0.6500000000	0.8099882367
0.6550000000	0.8903924086
0.6600000000	0.9848175065
0.6650000000	1.0967741877
0.6700000000	1.2303897275
0.6750000000	1.3919579350
0.6800000000	1.5899426248
0.6850000000	1.8354313376
0.6900000000	2.1455966490
0.6950000000	2.5444557797
0.7000000000	3.0701600241
0.7050000000	3.7810327777
0.7100000000	4.7758957811
0.7150000000	6.2306629663
0.7200000000	8.4728318698
0.7250000000	12.1946826345
0.7300000000	19.0261785961
0.7350000000	33.6435993154
0.7400000000	73.7322809118
0.7450000000	244.6054812209
0.7500000000	757.7890641508
0.7550000000	190.6382740605
0.7600000000	63.1349944534
0.7650000000	30.2506960254
0.7700000000	17.5927249461
0.7750000000	11.4822756715
0.7800000000	8.0805614551
0.7850000000	6.0014371270
0.7900000000	4.6365997052
0.7950000000	3.6953018683
0.8000000000	3.0186371620
0.8050000000	2.5146728467
0.8100000000	2.1303719592
0.8150000000	1.8257305001
0.8200000000	1.5852989683
0.8250000000	1.3917063415
0.8300000000	1.2331236387
0.8350000000	1.1027393652
0.8400000000	0.9934393481
0.8450000000	0.9017224863
0.8500000000	0.8241953330
0.8550000000	0.7572926494
0.8600000000	0.7001800838
0.8650000000	0.6513963669
0.8700000000	0.6082919409
0.8750000000	0.5716255603
0.8800000000	0.5405134642
0.8850000000	0.5126197513
0.8900000000	0.4902445515
0.8950000000	0.4698899992
0.9000000000	0.4537586305
0.9050000000	0.4426499820
0.9100000000	0.4324700294
0.9150000000	0.4262965248
0.9200000000	0.4255569871
0.9250000000	0.4250093929
0.9300000000	0.4187781223
0.9350000000	0.4000719561
0.9400000000	0.2958462473
0.9450000000	-0.1779018760
0.9500000000	-2.6780862359
0.9550000000	-15.3594798550
0.9600000000	3.6242994488
0.9650000000	6.3666392832
0.9700000000	2.8238504888
0.9750000000	1.4824538820
0.9800000000	0.9290730451
0.9850000000	0.6702551403
0.9900000000	0.5211295427
0.9950000000	0.4307032691
1.0000000000	0.3729658468
1.0050000000	0.3363619008
1.0100000000	0.3079846180
1.0150000000	0.2872531908
1.0200000000	0.2732895649
1.0250000000	0.2615689797
1.0300000000	0.2526649811
1.0350000000	0.2459290797
1.0400000000	0.2416466619
1.0450000000	0.2380856013
1.0500000000	0.2357363590
1.0550000000	0.2344598406
1.0600000000	0.2345704224
1.0650000000	0.2351930949
1.0700000000	0.2366845825
1.0750000000	0.2390510893
1.0800000000	0.2425266813
1.0850000000	0.2469373179
1.0900000000	0.2534437990
1.0950000000	0.2611706617
1.1000000000	0.2703772196
1.1050000000	0.2809879070
1.1100000000	0.2933379590
1.1150000000	0.3077050436
1.1200000000	0.3244184202
1.1250000000	0.3439081034
1.1300000000	0.3667505213
1.1350000000	0.3936631231
1.1400000000	0.4254630049
1.1450000000	0.4636416053
1.1500000000	0.5098208800
1.1550000000	0.5663455811
1.1600000000	0.6365237280
1.1650000000	0.7246477475
1.1700000000	0.8387582491
1.1750000000	0.9895296167
1.1800000000	1.1946081567
1.1850000000	1.4830000372
1.1900000000	1.9093722319
1.1950000000	2.5786884979
1.2000000000	3.7139420691
1.2050000000	5.8592701265
1.2100000000	10.5785674611
1.2150000000	23.3348247400
1.2200000000	57.2684563873
1.2250000000	51.4526636009
1.2300000000	20.5245516614
1.2350000000	9.6266201435
1.2400000000	5.4987487239
1.2450000000	3.6034506130
1.2500000000	2.6036200640
1.2550000000	2.0266174099
1.2600000000	1.6755320394
1.2650000000	1.4556479654
1.2700000000	1.3245746563
1.2750000000	1.2548275110
1.2800000000	1.2333269133
1.2850000000	1.2543651093
1.2900000000	1.3174912689
1.2950000000	1.4259906776
1.3000000000	1.5932531524
1.3050000000	1.8364509594
1.3100000000	2.1875934199
1.3150000000	2.7020626973
1.3200000000	3.4794189350
1.3250000000	4.7094235837
1.3300000000	6.8076682296
1.3350000000	10.7377067624
1.3400000000	19.1373432493
1.3450000000	39.9896221323
1.3500000000	84.8681648518
1.3550000000	79.1521405522
1.3600000000	36.5009432386
1.3650000000	17.9342656242
1.3700000000	10.2850946155
1.3750000000	6.6142473100
1.3800000000	4.6127009184
1.3850000000	3.4069913347
1.3900000000	2.6298985044
1.3950000000	2.0997135947
1.4000000000	1.7225858832
1.4050000000	1.4455993850
1.4100000000	1.2367070854
1.4150000000	1.0767672051
1.4200000000	0.9522803388
1.4250000000	0.8596760880
1.4300000000	0.8008370604
1.4350000000	0.7620685469
1.4400000000	0.5241590887
1.4450000000	-0.1350540429
1.4500000000	-1.2818837867
1.4550000000	-0.4281346246
1.4600000000	1.3045114757
1.4650000000	0.7555273020
1.4700000000	-0.4828547616
1.4750000000	-2.4421904860
1.4800000000	-1.0774985090
1.4850000000	1.8458510736
1.4900000000	1.4942733535
1.4950000000	0.9694667084
1.5000000000	0.6825464566
1.5050000000	0.5272228759
1.5100000000	0.4383111198
1.5150000000	0.3837974866
1.5200000000	0.3480915990
1.5250000000	0.3254278223
1.5300000000	0.3075678084
1.5350000000	0.2945930031
1.5400000000	0.2851930728
1.5450000000	0.2785865910
1.5500000000	0.2742331476
1.5550000000	0.2719073910
1.5600000000	0.2720741675
1.5650000000	0.2737932536
1.5700000000	0.2780661983
1.5750000000	0.2856788772
1.5800000000	0.2981969175
1.5850000000	0.3187035204
1.5900000000	0.3537215733
1.5950000000	0.4176715881
1.6000000000	0.5409453813
1.6050000000	0.7432704778
1.6100000000	0.8376384085
1.6150000000	0.6671555999
1.6200000000	0.5090754184
1.6250000000	0.4287404619
1.6300000000	0.3918945982
1.6350000000	0.3767379634
1.6400000000	0.3733962479
1.6450000000	0.3773531988
1.6500000000	0.3864107635
1.6550000000	0.3996671677
1.6600000000	0.4166632108
1.6650000000	0.4373380981
1.6700000000	0.4618642004
1.6750000000	0.4905955633
1.6800000000	0.5240494597
1.6850000000	0.5629162269
1.6900000000	0.6079978465
1.6950000000	0.6597593251
1.7000000000	0.7193408939
1.7050000000	0.7882728804
1.7100000000	0.8718207666
1.7150000000	1.0122810911
1.7200000000	1.2244458202
1.7250000000	1.4537451698
1.7300000000	1.7263717755
1.7350000000	2.0213480174
1.7400000000	2.2936937230
1.7450000000	2.6369401247
1.7500000000	3.1631074237
1.7550000000	3.9522899716
1.7600000000	5.1363138022
1.7650000000	6.9629616609
1.7700000000	9.9054901778
1.7750000000	14.8615779849
1.7800000000	23.3026705737
1.7850000000	35.7415997090
1.7900000000	44.3879305888
1.7950000000	37.7671870004
1.8000000000	25.1109980494
1.8050000000	15.8397975212
1.8100000000	10.4290931676
1.8150000000	7.2585248483
1.8200000000	5.3074586105
1.8250000000	4.0423508319
1.8300000000	3.1829175699
1.8350000000	2.5756397971
1.8400000000	2.1324024999
1.8450000000	1.7996866980
1.8500000000	1.5437283558
1.8550000000	1.3433580922
1.8600000000	1.1836864329
1.8650000000	1.0544790010
1.8700000000	0.9482787739
1.8750000000	0.8593663537
1.8800000000	0.7828740655
1.8850000000	0.7140567777
1.8900000000	0.6470424918
1.8950000000	0.5729360285
1.9000000000	0.4766648037
1.9050000000	0.3090379725
1.9100000000	0.0683306468
1.9150000000	-0.1632904809
1.9200000000	0.1173597308
1.9250000000	1.2387279619
1.9300000000	2.1345104667
1.9350000000	2.1544431552
1.9400000000	1.7294071590
1.9450000000	1.3106435966
1.9500000000	1.0138413460
1.9550000000	0.8175231367
1.9600000000	0.6867008338
1.9650000000	0.5995284298
1.9700000000	0.5353603342
1.9750000000	0.4883070396
1.9800000000	0.4525938147
1.9850000000	0.4240793907
1.9900000000	0.3996809351
1.9950000000	0.3767851224
2.0000000000	0.3549224099
2.0050000000	0.3419212232
2.0100000000	0.3506597140
2.0150000000	0.3734487023
2.0200000000	0.3888436418
2.0250000000	0.3955311964
2.0300000000	0.4006272450
2.0350000000	0.4074243042
2.0400000000	0.4175228856
2.0450000000	0.4316015911
2.0500000000	0.4503499027
2.0550000000	0.4744534190
2.0600000000	0.5039514268
2.0650000000	0.5364916838
2.0700000000	0.5662186755
2.0750000000	0.5885600229
2.0800000000	0.6069165103
2.0850000000	0.6286777346
2.0900000000	0.6585445605
2.0950000000	0.6981472193
2.1000000000	0.7487355862
2.1050000000	0.8095482143
2.1100000000	0.8848220377
2.1150000000	0.9775942256
2.1200000000	1.0922324441
2.1250000000	1.2349340330
2.1300000000	1.4144797915
2.1350000000	1.6434331733
2.1400000000	1.9399391269
2.1450000000	2.3305199309
2.1500000000	2.8537986940
2.1550000000	3.5644034644
2.1600000000	4.5322276866
2.1650000000	5.8165034442
2.1700000000	7.3946537278
2.1750000000	8.9683193982
2.1800000000	9.9565958488
2.1850000000	10.0491907307
2.1900000000	9.6739207630
2.1950000000	9.4076742044
2.2000000000	9.3146530449
2.2050000000	8.8770235172
2.2100000000	7.8731987132
2.2150000000	6.6101638910
2.2200000000	5.4613682693
2.2250000000	4.5304789955
2.2300000000	3.7662046444
2.2350000000	3.1265177468
2.2400000000	2.6012581772
2.2450000000	2.1864938752
2.2500000000	1.8650753936
2.2550000000	1.6163216985
2.2600000000	1.4210859393
2.2650000000	1.2621079058
2.2700000000	1.1230478280
2.2750000000	0.9900952958
2.2800000000	0.8600399339
2.2850000000	0.7487594755
2.2900000000	0.6833026120
2.2950000000	0.6757967437
2.3000000000	0.7053670869
2.3050000000	0.7365328220
2.3100000000	0.7475427822
2.3150000000	0.7390803963
2.3200000000	0.7205497825
2.3250000000	0.7016164728
2.3300000000	0.6874118036
2.3350000000	0.6794336340
2.3400000000	0.6765547616
2.3450000000	0.6754959427
2.3500000000	0.6720333505
2.3550000000	0.6634686784
2.3600000000	0.6505484359
2.3650000000	0.6365639549
2.3700000000	0.6248605576
2.3750000000	0.6172976606
2.3800000000	0.6141738826
2.3850000000	0.6147424132
2.3900000000	0.6180493016
2.3950000000	0.6231802422
2.4000000000	0.6305905214
2.4050000000	0.6422134307
2.4100000000	0.6588703194
2.4150000000	0.6816955969
2.4200000000	0.7114715909
2.4250000000	0.7490371799
2.4300000000	0.7954219014
2.4350000000	0.8519456731
2.4400000000	0.9203071470
2.4450000000	1.0026844050
2.4500000000	1.1018379592
2.4550000000	1.2212508901
2.4600000000	1.3652059496
2.4650000000	1.5388662537
2.4700000000	1.7481729923
2.4750000000	1.9991167635
2.4800000000	2.2980192905
2.4850000000	2.6475060549
2.4900000000	3.0443022889
2.4950000000	3.4739332601
2.5000000000	3.9051502502
2.5050000000	4.3048144970
2.5100000000	4.5668713874
2.5150000000	4.6318301797
2.5200000000	4.4897459845
2.5250000000	4.1846844489
2.5300000000	3.7866654704
2.5350000000	3.3592119379
2.5400000000	2.9442460357
2.5450000000	2.5636442357
2.5500000000	2.2262158923
2.5550000000	1.9334740167
2.5600000000	1.6812428267
2.5650000000	1.4686040956
2.5700000000	1.2910430093
2.5750000000	1.1458316573
2.5800000000	1.0308846586
2.5850000000	0.9437411617
2.5900000000	0.8800982526
2.5950000000	0.8337800731
2.6000000000	0.7983308868
2.6050000000	0.7730360854
2.6100000000	0.7506097822
2.6150000000	0.7307511895
2.6200000000	0.7139265319
2.6250000000	0.7006138047
2.6300000000	0.6911195625
2.6350000000	0.6855907706
2.6400000000	0.6841048140
2.6450000000	0.6867402302
2.6500000000	0.6936584080
2.6550000000	0.7048953887
2.6600000000	0.7206978060
2.6650000000	0.7413002743
2.6700000000	0.7669791466
2.6750000000	0.7980575767
2.6800000000	0.8348810623
2.6850000000	0.8778031981
2.6900000000	0.9271367878
2.6950000000	0.9831212580
2.7000000000	1.0458445979
2.7050000000	1.1226458975
2.7100000000	1.2076860117
2.7150000000	1.2999271710
2.7200000000	1.3976255355
2.7250000000	1.4983013096
2.7300000000	1.5987445446
2.7350000000	1.6950263255
2.7400000000	1.7824729046
2.7450000000	1.8564205023
2.7500000000	1.9099435688
2.7550000000	1.9384578239
2.7600000000	1.9385012385
2.7650000000	1.9093112720
2.7700000000	1.8532129046
2.7750000000	1.7752263681
2.7800000000	1.6819775302
2.7850000000	1.5805138058
2.7900000000	1.4771488871
2.7950000000	1.3769434749
2.8000000000	1.2834784079
2.8050000000	1.1885417686
2.8100000000	1.1068172425
2.8150000000	1.0381219523
2.8200000000	0.9813827962
2.8250000000	0.9351730774
2.8300000000	0.8980537870
2.8350000000	0.8688000277
2.8400000000	0.8461088026
2.8450000000	0.8300594239
2.8500000000	0.8196946543
2.8550000000	0.8146525467
2.8600000000	0.8146662315
2.8650000000	0.8195091980
2.8700000000	0.8289606802
2.8750000000	0.8427685001
2.8800000000	0.8606246566
2.8850000000	0.8821388580
2.8900000000	0.9068453081
2.8950000000	0.9341919125
2.9000000000	0.9635714634
2.9050000000	1.0007229414
2.9100000000	1.0378528307
2.9150000000	1.0736354194
2.9200000000	1.1065487187
2.9250000000	1.1348363789
2.9300000000	1.1568623785
2.9350000000	1.1703320683
2.9400000000	1.1741520510
2.9450000000	1.1677880581
2.9500000000	1.1516764859
2.9550000000	1.1271876297
2.9600000000	1.0963594936
2.9650000000	1.0615384474
2.9700000000	1.0250196061
2.9750000000	0.9887818849
2.9800000000	0.9543555602
2.9850000000	0.9227982049
2.9900000000	0.8947615159
2.9950000000	0.8705614613
3.0000000000	0.8502896769
