# energy (eV)    P(omega), $W$ = 400 nm, $h$ = 300 nm, $s$ = 20 nm, $d/W = 5$, $E_{\rm e}$ = 200 keV
0.2000000000	0.0535387631
0.2050000000	0.0540258071
0.2100000000	0.0543687757
0.2150000000	0.0545618926
0.2200000000	0.0545970817
0.2250000000	0.0544633718
0.2300000000	0.0541463281
0.2350000000	0.0536271564
0.2400000000	0.0528816881
0.2450000000	0.0518787739
0.2500000000	0.0505785908
0.2550000000	0.0489298980
0.2600000000	0.0468666656
0.2650000000	0.0490287905
0.2700000000	0.0545207952
0.2750000000	0.0623797282
0.2800000000	0.0733295264
0.2850000000	0.0894724890
0.2900000000	0.1094749814
0.2950000000	0.1381504193
0.3000000000	0.1766987152
0.3050000000	0.2357843531
0.3100000000	0.3180894580
0.3150000000	0.4773464798
0.3200000000	0.7260767784
0.3250000000	0.8963724174
0.3300000000	1.1319473684
0.3350000000	1.4659102790
0.3400000000	1.9901663279
0.3450000000	2.8896243730
0.3500000000	4.6832272191
0.3550000000	8.8352104351
0.3600000000	21.7137598740
0.3650000000	0.0979686854
0.3700000000	10.0637392890
0.3750000000	13.2335015798
0.3800000000	6.1664053822
0.3850000000	3.4736215710
0.3900000000	2.2280404995
0.3950000000	1.5700678813
0.4000000000	1.1891014469
0.4050000000	0.9407374066
0.4100000000	0.7790469430
0.4150000000	0.6724035016
0.4200000000	0.6050034982
0.4250000000	0.5520695127
0.4300000000	0.4895188739
0.4350000000	0.4400137266
0.4400000000	0.4008607433
0.4450000000	0.3697296071
0.4500000000	0.3451519003
0.4550000000	0.3256626536
0.4600000000	0.3104596778
0.4650000000	0.2986944963
0.4700000000	0.2898054100
0.4750000000	0.2833994249
0.4800000000	0.2791335940
0.4850000000	0.2767072048
0.4900000000	0.2759424342
0.4950000000	0.2767024699
0.5000000000	0.2788704286
0.5050000000	0.2823942160
0.5100000000	0.2872311601
0.5150000000	0.2933559141
0.5200000000	0.3007811854
0.5250000000	0.3095174062
0.5300000000	0.3196928254
0.5350000000	0.3313644765
0.5400000000	0.3446350350
0.5450000000	0.3596391398
0.5500000000	0.3765672910
0.5550000000	0.3956278520
0.5600000000	0.4170744473
0.5650000000	0.4412331931
0.5700000000	0.4685542899
0.5750000000	0.4993714133
0.5800000000	0.5343088911
0.5850000000	0.5742197501
0.5900000000	0.6196794017
0.5950000000	0.6718985917
0.6000000000	0.7324768787
0.6050000000	0.8026131472
0.6100000000	0.8850555418
0.6150000000	0.9820830592
0.6200000000	1.0976078196
0.6250000000	1.2372423673
0.6300000000	1.4067106729
0.6350000000	1.6167683207
0.6400000000	1.8792817850
0.6450000000	2.2157842285
0.6500000000	2.6537822328
0.6550000000	3.2398691323
0.6600000000	4.0527167932
0.6650000000	5.2166203863
0.6700000000	6.9790497687
0.6750000000	9.8127730945
0.6800000000	14.8219178634
0.6850000000	24.8731012405
0.6900000000	49.8497805502
0.6950000000	139.9360826325
0.7000000000	678.7032882776
0.7050000000	329.9690681311
0.7100000000	84.7623648479
0.7150000000	36.0458327895
0.7200000000	19.6851480639
0.7250000000	12.3658289665
0.7300000000	8.4812757206
0.7350000000	6.1849202667
0.7400000000	4.7144158786
0.7450000000	3.7162943882
0.7500000000	3.0092430304
0.7550000000	2.4897923901
0.7600000000	2.0982703468
0.7650000000	1.7946502682
0.7700000000	1.5549730538
0.7750000000	1.3625569088
0.7800000000	1.2061929076
0.7850000000	1.0774430148
0.7900000000	0.9695803980
0.7950000000	0.8794952306
0.8000000000	0.8028984881
0.8050000000	0.7372746498
0.8100000000	0.6814090558
0.8150000000	0.6324451613
0.8200000000	0.5898168293
0.8250000000	0.5540442322
0.8300000000	0.5227313591
0.8350000000	0.4955093667
0.8400000000	0.4738311801
0.8450000000	0.4549158239
0.8500000000	0.4388776518
0.8550000000	0.4287402755
0.8600000000	0.4206201539
0.8650000000	0.4148062277
0.8700000000	0.4168309369
0.8750000000	0.4175403643
0.8800000000	0.4152933202
0.8850000000	0.3972362315
0.8900000000	0.3082676740
0.8950000000	-0.1376012109
0.9000000000	-2.5284765325
0.9050000000	-16.6139453586
0.9100000000	3.1636240563
0.9150000000	7.4940501983
0.9200000000	3.1109250438
0.9250000000	1.6183903327
0.9300000000	0.9879000482
0.9350000000	0.6866713631
0.9400000000	0.5241702822
0.9450000000	0.4340957891
0.9500000000	0.3701272593
0.9550000000	0.3273059216
0.9600000000	0.3008207243
0.9650000000	0.2789654626
0.9700000000	0.2633671288
0.9750000000	0.2527317977
0.9800000000	0.2462492998
0.9850000000	0.2450436297
0.9900000000	0.2473723561
0.9950000000	0.2568480890
1.0000000000	0.2795314806
1.0050000000	0.3325149699
1.0100000000	0.4713853988
1.0150000000	0.9473646298
1.0200000000	1.8187807198
1.0250000000	0.8271943496
1.0300000000	0.4239780846
1.0350000000	0.3038011328
1.0400000000	0.2565440030
1.0450000000	0.2343768065
1.0500000000	0.2232686583
1.0550000000	0.2174438651
1.0600000000	0.2148336579
1.0650000000	0.2143518825
1.0700000000	0.2153963533
1.0750000000	0.2177554260
1.0800000000	0.2210078935
1.0850000000	0.2254319304
1.0900000000	0.2318227152
1.0950000000	0.2392723059
1.1000000000	0.2478537935
1.1050000000	0.2575827573
1.1100000000	0.2686131748
1.1150000000	0.2810918581
1.1200000000	0.2951930027
1.1250000000	0.3110607458
1.1300000000	0.3291062045
1.1350000000	0.3496064209
1.1400000000	0.3729763777
1.1450000000	0.3997436966
1.1500000000	0.4303189196
1.1550000000	0.4659805397
1.1600000000	0.5075369265
1.1650000000	0.5560468941
1.1700000000	0.6117304093
1.1750000000	0.6682056538
1.1800000000	0.7216619779
1.1850000000	1.0030068801
1.1900000000	1.2447121729
1.1950000000	1.7062677779
1.2000000000	2.3237827729
1.2050000000	2.0384077600
1.2100000000	1.9508394263
1.2150000000	2.1718694487
1.2200000000	2.5975915374
1.2250000000	3.2513575196
1.2300000000	4.2454520322
1.2350000000	5.8180047357
1.2400000000	8.4669710649
1.2450000000	13.4549603936
1.2500000000	24.2575482741
1.2550000000	52.5100704095
1.2600000000	126.8339217801
1.2650000000	128.4777158039
1.2700000000	53.4442038585
1.2750000000	24.6699397872
1.2800000000	13.6626803567
1.2850000000	8.5919237747
1.2900000000	5.8889922586
1.2950000000	4.2919953923
1.3000000000	3.2747786440
1.3050000000	2.5898899047
1.3100000000	2.1069333200
1.3150000000	1.7579737966
1.3200000000	1.4992905249
1.3250000000	1.3046231407
1.3300000000	1.1580214732
1.3350000000	1.0496985757
1.3400000000	0.9745737590
1.3450000000	0.9312548896
1.3500000000	0.9260650057
1.3550000000	0.9733983593
1.3600000000	1.1098787201
1.3650000000	1.4287022829
1.3700000000	2.1900799689
1.3750000000	4.0844346670
1.3800000000	6.6717101392
1.3850000000	4.6606782633
1.3900000000	2.3750798211
1.3950000000	1.3780781949
1.4000000000	0.9024904571
1.4050000000	0.6102042021
1.4100000000	0.3456770344
1.4150000000	-0.0489199615
1.4200000000	-0.9323342775
1.4250000000	-3.2731276069
1.4300000000	-4.4009586165
1.4350000000	2.0162987580
1.4400000000	2.5791497996
1.4450000000	1.5463194892
1.4500000000	0.9621875847
1.4550000000	0.6632805228
1.4600000000	0.4897929813
1.4650000000	0.3526786575
1.4700000000	0.2060068919
1.4750000000	0.2421079506
1.4800000000	0.3549693283
1.4850000000	0.3223230895
1.4900000000	0.2854071330
1.4950000000	0.2615297387
1.5000000000	0.2458442504
1.5050000000	0.2354728117
1.5100000000	0.2284169926
1.5150000000	0.2245664714
1.5200000000	0.2217274581
1.5250000000	0.2207017588
1.5300000000	0.2215832929
1.5350000000	0.2247762243
1.5400000000	0.2312892416
1.5450000000	0.2433626498
1.5500000000	0.2660318735
1.5550000000	0.3093338871
1.5600000000	0.3743320549
1.5650000000	0.3847503828
1.5700000000	0.3261025622
1.5750000000	0.2849513522
1.5800000000	0.2672040007
1.5850000000	0.2616259221
1.5900000000	0.2623596209
1.5950000000	0.2668614165
1.6000000000	0.2740232013
1.6050000000	0.2834636948
1.6100000000	0.2948981089
1.6150000000	0.3082842032
1.6200000000	0.3238353066
1.6250000000	0.3417354566
1.6300000000	0.3622870092
1.6350000000	0.3858797323
1.6400000000	0.4130120116
1.6450000000	0.4443203689
1.6500000000	0.4806037864
1.6550000000	0.5228747875
1.6600000000	0.5724451970
1.6650000000	0.6310082988
1.6700000000	0.7002105312
1.6750000000	0.7840921275
1.6800000000	0.8862244231
1.6850000000	1.0122257534
1.6900000000	1.1700730859
1.6950000000	1.3714724528
1.7000000000	1.6340459493
1.7050000000	1.9962744526
1.7100000000	2.5016500472
1.7150000000	3.2362286015
1.7200000000	4.3557590107
1.7250000000	6.1318607520
1.7300000000	8.8612392413
1.7350000000	12.3638091969
1.7400000000	16.7913862471
1.7450000000	24.5610904470
1.7500000000	34.6470028126
1.7550000000	35.2043301307
1.7600000000	24.6981131656
1.7650000000	15.3846481231
1.7700000000	9.8621827465
1.7750000000	6.7219009244
1.7800000000	4.8661260252
1.7850000000	3.7245930589
1.7900000000	3.0166683695
1.7950000000	2.6116016557
1.8000000000	2.4481050134
1.8050000000	2.3963403215
1.8100000000	2.1320523468
1.8150000000	1.6520337743
1.8200000000	1.2685342630
1.8250000000	1.0708081986
1.8300000000	0.9322535762
1.8350000000	0.8091145602
1.8400000000	0.7087033045
1.8450000000	0.6290206829
1.8500000000	0.5648050261
1.8550000000	0.5117558978
1.8600000000	0.4629583423
1.8650000000	0.4217052108
1.8700000000	0.3800134425
1.8750000000	0.3199110214
1.8800000000	0.1829032951
1.8850000000	-0.1173835554
1.8900000000	-0.5212910559
1.8950000000	-0.5905975076
1.9000000000	0.0632062119
1.9050000000	0.6727854652
1.9100000000	0.7439145704
1.9150000000	0.6284689498
1.9200000000	0.5153212336
1.9250000000	0.4350302775
1.9300000000	0.3864041782
1.9350000000	0.3492782043
1.9400000000	0.3245777422
1.9450000000	0.3082235786
1.9500000000	0.2967916625
1.9550000000	0.2872317684
1.9600000000	0.2789833388
1.9650000000	0.2731284725
1.9700000000	0.2700030232
1.9750000000	0.2693988080
1.9800000000	0.2711474826
1.9850000000	0.2753000438
1.9900000000	0.2821291247
1.9950000000	0.2919756228
2.0000000000	0.3045835842
2.0050000000	0.3188873701
2.0100000000	0.3291501853
2.0150000000	0.3359987259
2.0200000000	0.3442570657
2.0250000000	0.3570011155
2.0300000000	0.3751363323
2.0350000000	0.3991163542
2.0400000000	0.4297647510
2.0450000000	0.4685102146
2.0500000000	0.5174044210
2.0550000000	0.5787272167
2.0600000000	0.6535841897
2.0650000000	0.7407984682
2.0700000000	0.8416802581
2.0750000000	0.9674833255
2.0800000000	1.1367874510
2.0850000000	1.3677080654
2.0900000000	1.6707804655
2.0950000000	2.0242302053
2.1000000000	2.3392527137
2.1050000000	2.4919013172
2.1100000000	2.4194110616
2.1150000000	2.2526006204
2.1200000000	2.1346980836
2.1250000000	2.1296696982
2.1300000000	2.2564930059
2.1350000000	2.5302096308
2.1400000000	2.9809471534
2.1450000000	3.6620057338
2.1500000000	4.6480230826
2.1550000000	5.9950638863
2.1600000000	7.5944991373
2.1650000000	8.9387992570
2.1700000000	9.2564435196
2.1750000000	8.2860203077
2.1800000000	6.6895286334
2.1850000000	5.1612917158
2.1900000000	3.9664369625
2.1950000000	3.1031913760
2.2000000000	2.4975554587
2.2050000000	2.0797200094
2.2100000000	1.7896593109
2.2150000000	1.5671792628
2.2200000000	1.3678185380
2.2250000000	1.1781897943
2.2300000000	1.0064919207
2.2350000000	0.8590650128
2.2400000000	0.7341997791
2.2450000000	0.6263837104
2.2500000000	0.5301295724
2.2550000000	0.4423682875
2.2600000000	0.3546050568
2.2650000000	0.2907584004
2.2700000000	0.2560754936
2.2750000000	0.2648035337
2.2800000000	0.3151720811
2.2850000000	0.3793113471
2.2900000000	0.4262591045
2.2950000000	0.4470650982
2.3000000000	0.4494417471
2.3050000000	0.4422578186
2.3100000000	0.4327966200
2.3150000000	0.4244147083
2.3200000000	0.4184390603
2.3250000000	0.4155977383
2.3300000000	0.4164793543
2.3350000000	0.4215715492
2.3400000000	0.4312911517
2.3450000000	0.4460601547
2.3500000000	0.4663257540
2.3550000000	0.4927584017
2.3600000000	0.5249241732
2.3650000000	0.5630233373
2.3700000000	0.6069500814
2.3750000000	0.6571813513
2.3800000000	0.7155303532
2.3850000000	0.7841485316
2.3900000000	0.8635115386
2.3950000000	0.9500854492
2.4000000000	1.0347855212
2.4050000000	1.1077782123
2.4100000000	1.1482364593
2.4150000000	1.1521041201
2.4200000000	1.1292726025
2.4250000000	1.0966090711
2.4300000000	1.0690835641
2.4350000000	1.0557328500
2.4400000000	1.0601633022
2.4450000000	1.0829580460
2.4500000000	1.1241904222
2.4550000000	1.1847792598
2.4600000000	1.2686084023
2.4650000000	1.3796591092
2.4700000000	1.5223648957
2.4750000000	1.6994947574
2.4800000000	1.9096510979
2.4850000000	2.1438672300
2.4900000000	2.3816321617
2.4950000000	2.5889090442
2.5000000000	2.7231055602
2.5050000000	2.7403592945
2.5100000000	2.6231562175
2.5150000000	2.4034874094
2.5200000000	2.1324690970
2.5250000000	1.8550082474
2.5300000000	1.5984784845
2.5350000000	1.3743812946
2.5400000000	1.1844099394
2.5450000000	1.0257459696
2.5500000000	0.8943048637
2.5550000000	0.7864167569
2.5600000000	0.6962035639
2.5650000000	0.6286894638
2.5700000000	0.5801781532
2.5750000000	0.5489396616
2.5800000000	0.5315068407
2.5850000000	0.5231377587
2.5900000000	0.5193822480
2.5950000000	0.5174692288
2.6000000000	0.5165052171
2.6050000000	0.5206225383
2.6100000000	0.5271467337
2.6150000000	0.5370768222
2.6200000000	0.5509435638
2.6250000000	0.5687796439
2.6300000000	0.5900816146
2.6350000000	0.6137809761
2.6400000000	0.6382451456
2.6450000000	0.6614038529
2.6500000000	0.6810645604
2.6550000000	0.6954295833
2.6600000000	0.7036638608
2.6650000000	0.7062578319
2.6700000000	0.7049237325
2.6750000000	0.7021644705
2.6800000000	0.7004053520
2.6850000000	0.7019123833
2.6900000000	0.7082636318
2.6950000000	0.7204289411
2.7000000000	0.7388733435
2.7050000000	0.7664810886
2.7100000000	0.8020101297
2.7150000000	0.8448861441
2.7200000000	0.8939219129
2.7250000000	0.9471020366
2.7300000000	1.0013839147
2.7350000000	1.0526654912
2.7400000000	1.0960673103
2.7450000000	1.1266351481
2.7500000000	1.1403757864
2.7550000000	1.1352774051
2.7600000000	1.1118539604
2.7650000000	1.0729598028
2.7700000000	1.0229626794
2.7750000000	0.9667018109
2.7800000000	0.9086144566
2.7850000000	0.8522504549
2.7900000000	0.7996677721
2.7950000000	0.7531184101
2.8000000000	0.7130683025
2.8050000000	0.6759740920
2.8100000000	0.6467275435
2.8150000000	0.6241773926
2.8200000000	0.6070729507
2.8250000000	0.5942665453
2.8300000000	0.5847827348
2.8350000000	0.5778124150
2.8400000000	0.5726718973
2.8450000000	0.5687807155
2.8500000000	0.5656727495
2.8550000000	0.5630385588
2.8600000000	0.5607733593
2.8650000000	0.5589925001
2.8700000000	0.5580021463
2.8750000000	0.5582234098
2.8800000000	0.5600990713
2.8850000000	0.5640095025
2.8900000000	0.5702140552
2.8950000000	0.5788157759
2.9000000000	0.5897439770
2.9050000000	0.6060898107
2.9100000000	0.6240146599
2.9150000000	0.6423218065
2.9200000000	0.6594988603
2.9250000000	0.6739211470
2.9300000000	0.6840802022
2.9350000000	0.6888481751
2.9400000000	0.6876960828
2.9450000000	0.6807948305
2.9500000000	0.6689513167
2.9550000000	0.6534027854
2.9600000000	0.6355560707
2.9650000000	0.6167437594
2.9700000000	0.5980617569
2.9750000000	0.5802982368
2.9800000000	0.5639384445
2.9850000000	0.5492171035
2.9900000000	0.5361888078
2.9950000000	0.5247964299
3.0000000000	0.5149269644
