# energy (eV)    P(omega), $W$ = 300 nm, $h$ = 300 nm, $s$ = 20 nm, $d/W = 5$, $E_{\rm e}$ = 200 keV
0.2000000000	0.0612932990
0.2050000000	0.0622122135
0.2100000000	0.0630718612
0.2150000000	0.0638741689
0.2200000000	0.0646207652
0.2250000000	0.0653130405
0.2300000000	0.0659520478
0.2350000000	0.0665384860
0.2400000000	0.0670726029
0.2450000000	0.0675541832
0.2500000000	0.0679824222
0.2550000000	0.0683558029
0.2600000000	0.0686720596
0.2650000000	0.0689279021
0.2700000000	0.0691188820
0.2750000000	0.0692391059
0.2800000000	0.0692809279
0.2850000000	0.0692345247
0.2900000000	0.0690873092
0.2950000000	0.0688233193
0.3000000000	0.0684221605
0.3050000000	0.0678578479
0.3100000000	0.0670971125
0.3150000000	0.0709051278
0.3200000000	0.0754276023
0.3250000000	0.0811472520
0.3300000000	0.0888064783
0.3350000000	0.0983404226
0.3400000000	0.1108252238
0.3450000000	0.1259690413
0.3500000000	0.1457800580
0.3550000000	0.1719941281
0.3600000000	0.2062228676
0.3650000000	0.2539423042
0.3700000000	0.3168668011
0.3750000000	0.4044002320
0.3800000000	0.5310027896
0.3850000000	0.7282796255
0.3900000000	1.0399457380
0.3950000000	1.5693688295
0.4000000000	2.5786752914
0.4050000000	4.8416034605
0.4100000000	11.0165506055
0.4150000000	35.3569955215
0.4200000000	22.5272989463
0.4250000000	-42.4089239304
0.4300000000	11.7940594813
0.4350000000	7.3501182587
0.4400000000	4.4934954601
0.4450000000	2.9557401744
0.4500000000	2.0704575700
0.4550000000	1.5256402745
0.4600000000	1.1707920857
0.4650000000	0.9289755907
0.4700000000	0.7580590254
0.4750000000	0.6344455349
0.4800000000	0.5427948867
0.4850000000	0.4738297445
0.4900000000	0.4211871617
0.4950000000	0.3805955924
0.5000000000	0.3491353163
0.5050000000	0.3246640522
0.5100000000	0.3058023905
0.5150000000	0.2915349135
0.5200000000	0.2807999102
0.5250000000	0.2731192732
0.5300000000	0.2679795864
0.5350000000	0.2650054825
0.5400000000	0.2639202425
0.5450000000	0.2644926543
0.5500000000	0.2666498388
0.5550000000	0.2702615292
0.5600000000	0.2752613296
0.5650000000	0.2816195235
0.5700000000	0.2893091349
0.5750000000	0.2983839629
0.5800000000	0.3089314147
0.5850000000	0.3210086541
0.5900000000	0.3347261443
0.5950000000	0.3502227904
0.6000000000	0.3676755461
0.6050000000	0.3873406726
0.6100000000	0.4094628301
0.6150000000	0.4343761363
0.6200000000	0.4625262509
0.6250000000	0.4943405137
0.6300000000	0.5304504777
0.6350000000	0.5716432859
0.6400000000	0.6187380437
0.6450000000	0.6729169417
0.6500000000	0.7357344094
0.6550000000	0.8088086817
0.6600000000	0.8946266078
0.6650000000	0.9963795477
0.6700000000	1.1178191166
0.6750000000	1.2646666912
0.6800000000	1.4446155312
0.6850000000	1.6677448308
0.6900000000	1.9496649740
0.6950000000	2.3122091258
0.7000000000	2.7900585947
0.7050000000	3.4362336011
0.7100000000	4.3405707729
0.7150000000	5.6629910170
0.7200000000	7.7012219857
0.7250000000	11.0846214845
0.7300000000	17.2950195119
0.7350000000	30.5837660447
0.7400000000	67.0293529561
0.7450000000	222.3782294429
0.7500000000	688.9584083475
0.7550000000	173.3297941538
0.7600000000	57.4052512537
0.7650000000	27.5064815459
0.7700000000	15.9974556155
0.7750000000	10.4415191403
0.7800000000	7.3484395701
0.7850000000	5.4579127687
0.7900000000	4.2168538501
0.7950000000	3.3609060886
0.8000000000	2.7455840339
0.8050000000	2.2872973527
0.8100000000	1.9378213545
0.8150000000	1.6607795573
0.8200000000	1.4421268507
0.8250000000	1.2660669456
0.8300000000	1.1218438581
0.8350000000	1.0032641314
0.8400000000	0.9038581112
0.8450000000	0.8204426460
0.8500000000	0.7499320114
0.8550000000	0.6890833029
0.8600000000	0.6371386078
0.8650000000	0.5927692923
0.8700000000	0.5535647953
0.8750000000	0.5202165189
0.8800000000	0.4919208162
0.8850000000	0.4665520491
0.8900000000	0.4462044983
0.8950000000	0.4276944366
0.9000000000	0.4130274064
0.9050000000	0.4029318939
0.9100000000	0.3936807475
0.9150000000	0.3880765399
0.9200000000	0.3874195988
0.9250000000	0.3869366100
0.9300000000	0.3812759196
0.9350000000	0.3642501595
0.9400000000	0.2693244194
0.9450000000	-0.1622096532
0.9500000000	-2.4397318527
0.9550000000	-13.9921635462
0.9600000000	3.3016945273
0.9650000000	5.8001845887
0.9700000000	2.5726523246
0.9750000000	1.3505832011
0.9800000000	0.8464188836
0.9850000000	0.6106172269
0.9900000000	0.4747507228
0.9950000000	0.3923636943
1.0000000000	0.3397593164
1.0050000000	0.3064104679
1.0100000000	0.2805558895
1.0150000000	0.2616674063
1.0200000000	0.2489457065
1.0250000000	0.2382668116
1.0300000000	0.2301539368
1.0350000000	0.2240161450
1.0400000000	0.2201139736
1.0450000000	0.2168682151
1.0500000000	0.2147261638
1.0550000000	0.2135610705
1.0600000000	0.2136596864
1.0650000000	0.2142239311
1.0700000000	0.2155791060
1.0750000000	0.2177309042
1.0800000000	0.2208927009
1.0850000000	0.2249049277
1.0900000000	0.2308244465
1.0950000000	0.2378544825
1.1000000000	0.2462312184
1.1050000000	0.2558848952
1.1100000000	0.2671208708
1.1150000000	0.2801916575
1.1200000000	0.2953970877
1.1250000000	0.3131272449
1.1300000000	0.3339067707
1.1350000000	0.3583880593
1.1400000000	0.3873145190
1.1450000000	0.4220414278
1.1500000000	0.4640440776
1.1550000000	0.5154545178
1.1600000000	0.5792807266
1.1650000000	0.6594262995
1.1700000000	0.7632013639
1.1750000000	0.9003126436
1.1800000000	1.0868054186
1.1850000000	1.3490551987
1.1900000000	1.7367722379
1.1950000000	2.3453985921
1.2000000000	3.3777074873
1.2050000000	5.3284996950
1.2100000000	9.6198904582
1.2150000000	21.2197307892
1.2200000000	52.0781223729
1.2250000000	46.7916134931
1.2300000000	18.6669392541
1.2350000000	8.7565823204
1.2400000000	5.0027661741
1.2450000000	3.2792645121
1.2500000000	2.3701338871
1.2550000000	1.8455618145
1.2600000000	1.5264814849
1.2650000000	1.3267618612
1.2700000000	1.2078670374
1.2750000000	1.1448122004
1.2800000000	1.1257216143
1.2850000000	1.1454296302
1.2900000000	1.2035638180
1.2950000000	1.3031581417
1.3000000000	1.4564796192
1.3050000000	1.6792637044
1.3100000000	2.0008170728
1.3150000000	2.4718396394
1.3200000000	3.1834645332
1.3250000000	4.3093966632
1.3300000000	6.2300337443
1.3350000000	9.8273600631
1.3400000000	17.5158797739
1.3450000000	36.6029130920
1.3500000000	77.6828815565
1.3550000000	72.4520584617
1.3600000000	33.4115163001
1.3650000000	16.4163489241
1.3700000000	9.4145555626
1.3750000000	6.0543694450
1.3800000000	4.2222074291
1.3850000000	3.1185347568
1.3900000000	2.4072118620
1.3950000000	1.9219037812
1.4000000000	1.5767073031
1.4050000000	1.3231849626
1.4100000000	1.1320080457
1.4150000000	0.9856664469
1.4200000000	0.8718245886
1.4250000000	0.7872663452
1.4300000000	0.7338509853
1.4350000000	0.6991837684
1.4400000000	0.4821319342
1.4450000000	-0.1200957421
1.4500000000	-1.1666589080
1.4550000000	-0.3887235713
1.4600000000	1.1905909682
1.4650000000	0.6886308005
1.4700000000	-0.4441804343
1.4750000000	-2.2379239505
1.4800000000	-0.9876857316
1.4850000000	1.6899076813
1.4900000000	1.3680355076
1.4950000000	0.8874466427
1.5000000000	0.6247046225
1.5050000000	0.4824760673
1.5100000000	0.4010589423
1.5150000000	0.3511396993
1.5200000000	0.3184406198
1.5250000000	0.2976798974
1.5300000000	0.2813162024
1.5350000000	0.2694216679
1.5400000000	0.2607955730
1.5450000000	0.2547212458
1.5500000000	0.2507014950
1.5550000000	0.2485274831
1.5600000000	0.2486203147
1.5650000000	0.2501130526
1.5700000000	0.2539116033
1.5750000000	0.2607171148
1.5800000000	0.2719298322
1.5850000000	0.2903089828
1.5900000000	0.3216939531
1.5950000000	0.3789967408
1.6000000000	0.4894391075
1.6050000000	0.6707376353
1.6100000000	0.7554950365
1.6150000000	0.6030847579
1.6200000000	0.4617044132
1.6250000000	0.3899337593
1.6300000000	0.3571269299
1.6350000000	0.3437709772
1.6400000000	0.3410271100
1.6450000000	0.3448543074
1.6500000000	0.3532866488
1.6550000000	0.3655239436
1.6600000000	0.3811596665
1.6650000000	0.4001466133
1.6700000000	0.4226479047
1.6750000000	0.4489911701
1.6800000000	0.4796519109
1.6850000000	0.5152639719
1.6900000000	0.5565617677
1.6950000000	0.6039698126
1.7000000000	0.6585302712
1.7050000000	0.7216380426
1.7100000000	0.7981311803
1.7150000000	0.9268536770
1.7200000000	1.1213168575
1.7250000000	1.3312926782
1.7300000000	1.5808433050
1.7350000000	1.8509143252
1.7400000000	2.1004324633
1.7450000000	2.4149605748
1.7500000000	2.8970094024
1.7550000000	3.6199456477
1.7600000000	4.7045413169
1.7650000000	6.3777837110
1.7700000000	9.0732001861
1.7750000000	13.6131188457
1.7800000000	21.3454899682
1.7850000000	32.7402516910
1.7900000000	40.6612214370
1.7950000000	34.5969355156
1.8000000000	23.0035351385
1.8050000000	14.5106889671
1.8100000000	9.5541724809
1.8150000000	6.6497184130
1.8200000000	4.8623972584
1.8250000000	3.7034573437
1.8300000000	2.9161443641
1.8350000000	2.3598262745
1.8400000000	1.9537840129
1.8450000000	1.6489913091
1.8500000000	1.4145180442
1.8550000000	1.2309716274
1.8600000000	1.0847134000
1.8650000000	0.9663686748
1.8700000000	0.8691075125
1.8750000000	0.7876926355
1.8800000000	0.7176678132
1.8850000000	0.6546902876
1.8900000000	0.5933875593
1.8950000000	0.5256207674
1.9000000000	0.4375980420
1.9050000000	0.2842962476
1.9100000000	0.0641795698
1.9150000000	-0.1473819214
1.9200000000	0.1107563700
1.9250000000	1.1395337904
1.9300000000	1.9613419557
1.9350000000	1.9793215154
1.9400000000	1.5886252912
1.9450000000	1.2037335165
1.9500000000	0.9309548136
1.9550000000	0.7505386408
1.9600000000	0.6303202177
1.9650000000	0.5502111288
1.9700000000	0.4912507875
1.9750000000	0.4480166460
1.9800000000	0.4152010370
1.9850000000	0.3889975181
1.9900000000	0.3665718973
1.9950000000	0.3455212837
2.0000000000	0.3254146428
2.0050000000	0.3134521139
2.0100000000	0.3214860028
2.0150000000	0.3424409150
2.0200000000	0.3565849474
2.0250000000	0.3627091346
2.0300000000	0.3673588957
2.0350000000	0.3735629916
2.0400000000	0.3827899679
2.0450000000	0.3956594455
2.0500000000	0.4127994213
2.0550000000	0.4348342550
2.0600000000	0.4618003239
2.0650000000	0.4915565510
2.0700000000	0.5187717190
2.0750000000	0.5392844949
2.0800000000	0.5561960765
2.0850000000	0.5762412222
2.0900000000	0.6037069492
2.0950000000	0.6400839474
2.1000000000	0.6865218753
2.1050000000	0.7423276110
2.1100000000	0.8113888121
2.1150000000	0.8964939841
2.1200000000	1.0016505055
2.1250000000	1.1325441819
2.1300000000	1.2972295056
2.1350000000	1.5072309292
2.1400000000	1.7791919069
2.1450000000	2.1374397228
2.1500000000	2.6174021731
2.1550000000	3.2691873779
2.1600000000	4.1569075738
2.1650000000	5.3348995974
2.1700000000	6.7824653035
2.1750000000	8.2259430278
2.1800000000	9.1324938495
2.1850000000	9.2174619203
2.1900000000	8.8732346826
2.1950000000	8.6289872824
2.2000000000	8.5436965851
2.2050000000	8.1425306807
2.2100000000	7.2222654925
2.2150000000	6.0643753705
2.2200000000	5.0112393060
2.2250000000	4.1577678614
2.2300000000	3.4568015768
2.2350000000	2.8698539227
2.2400000000	2.3877688329
2.2450000000	2.0070578338
2.2500000000	1.7120350965
2.2550000000	1.4837332706
2.2600000000	1.3045791528
2.2650000000	1.1587230653
2.2700000000	1.0311530375
2.2750000000	0.9091718200
2.2800000000	0.7898128179
2.2850000000	0.6876422574
2.2900000000	0.6274952874
2.2950000000	0.6205212016
2.3000000000	0.6475808977
2.3050000000	0.6761194028
2.3100000000	0.6861804066
2.3150000000	0.6783864330
2.3200000000	0.6613629798
2.3250000000	0.6439762577
2.3300000000	0.6309334678
2.3350000000	0.6236073383
2.3400000000	0.6209620635
2.3450000000	0.6199863646
2.3500000000	0.6168020906
2.3550000000	0.6089317085
2.3600000000	0.5970606428
2.3650000000	0.5842110051
2.3700000000	0.5734547604
2.3750000000	0.5664999581
2.3800000000	0.5636222253
2.3850000000	0.5641380042
2.3900000000	0.5671737760
2.3950000000	0.5718915008
2.4000000000	0.5787080117
2.4050000000	0.5893963330
2.4100000000	0.6047071522
2.4150000000	0.6256798366
2.4200000000	0.6530321096
2.4250000000	0.6875338606
2.4300000000	0.7301307204
2.4350000000	0.7820351705
2.4400000000	0.8448072478
2.4450000000	0.9204470655
2.4500000000	1.0114894276
2.4550000000	1.1211332995
2.4600000000	1.2533105053
2.4650000000	1.4127625323
2.4700000000	1.6049433959
2.4750000000	1.8353532108
2.4800000000	2.1097935875
2.4850000000	2.4306719255
2.4900000000	2.7949769199
2.4950000000	3.1894154058
2.5000000000	3.5852989270
2.5050000000	3.9522073509
2.5100000000	4.1927917326
2.5150000000	4.2524440014
2.5200000000	4.1220302138
2.5250000000	3.8419933548
2.5300000000	3.4766058446
2.5350000000	3.0841831355
2.5400000000	2.7032157838
2.5450000000	2.3537923340
2.5500000000	2.0440039633
2.5550000000	1.7752410590
2.5600000000	1.5436701951
2.5650000000	1.3484479384
2.5700000000	1.1854287614
2.5750000000	1.0521081556
2.5800000000	0.9465719120
2.5850000000	0.8665608695
2.5900000000	0.8081250031
2.5950000000	0.7655948364
2.6000000000	0.7330435037
2.6050000000	0.7098155566
2.6100000000	0.6892219231
2.6150000000	0.6709865903
2.6200000000	0.6555378279
2.6250000000	0.6433150515
2.6300000000	0.6346002326
2.6350000000	0.6295290116
2.6400000000	0.6281723480
2.6450000000	0.6306022711
2.6500000000	0.6369668196
2.6550000000	0.6472987887
2.6600000000	0.6618248070
2.6650000000	0.6807605839
2.6700000000	0.7043598777
2.6750000000	0.7329197911
2.6800000000	0.7667581023
2.6850000000	0.8061991697
2.6900000000	0.8515300880
2.6950000000	0.9029705177
2.7000000000	0.9606004480
2.7050000000	1.0311623141
2.7100000000	1.1092897186
2.7150000000	1.1940284387
2.7200000000	1.2837753400
2.7250000000	1.3762514982
2.7300000000	1.4685079778
2.7350000000	1.5569365958
2.7400000000	1.6372460789
2.7450000000	1.7051550679
2.7500000000	1.7543049743
2.7550000000	1.7804869366
2.7600000000	1.7805224370
2.7650000000	1.7537111271
2.7700000000	1.7021879008
2.7750000000	1.6305626842
2.7800000000	1.5449201724
2.7850000000	1.4517324172
2.7900000000	1.3567978427
2.7950000000	1.2647644525
2.8000000000	1.1789212317
2.8050000000	1.0917244480
2.8100000000	1.0166623536
2.8150000000	0.9535674094
2.8200000000	0.9014544350
2.8250000000	0.8590133246
2.8300000000	0.8249225548
2.8350000000	0.7980575441
2.8400000000	0.7772215070
2.8450000000	0.7624879398
2.8500000000	0.7529772566
2.8550000000	0.7483571974
2.8600000000	0.7483826456
2.8650000000	0.7528449563
2.8700000000	0.7615414229
2.8750000000	0.7742402885
2.8800000000	0.7906578378
2.8850000000	0.8104352376
2.8900000000	0.8331448754
2.8950000000	0.8582784179
2.9000000000	0.8852785118
2.9050000000	0.9194163261
2.9100000000	0.9535320446
2.9150000000	0.9864078004
2.9200000000	1.0166461709
2.9250000000	1.0426339511
2.9300000000	1.0628691795
2.9350000000	1.0752434941
2.9400000000	1.0787532844
2.9450000000	1.0729077697
2.9500000000	1.0581073339
2.9550000000	1.0356112220
2.9600000000	1.0072915989
2.9650000000	0.9753036100
2.9700000000	0.9417563103
2.9750000000	0.9084674849
2.9800000000	0.8768429822
2.9850000000	0.8478544344
2.9900000000	0.8221010039
2.9950000000	0.7998726002
3.0000000000	0.7812535680
