# energy (eV)    P(omega), $W$ = 300 nm, $h$ = 300 nm, $s$ = 20 nm, $d/W = 5$, $E_{\rm e}$ = 200 keV
0.2000000000	0.1161679347
0.2050000000	0.1178367206
0.2100000000	0.1194053430
0.2150000000	0.1208769340
0.2200000000	0.1222541939
0.2250000000	0.1235393552
0.2300000000	0.1247340578
0.2350000000	0.1258393264
0.2400000000	0.1268554538
0.2450000000	0.1277817505
0.2500000000	0.1286166847
0.2550000000	0.1293573127
0.2600000000	0.1299993335
0.2650000000	0.1305367505
0.2700000000	0.1309613448
0.2750000000	0.1312623560
0.2800000000	0.1314258371
0.2850000000	0.1314339550
0.2900000000	0.1312637984
0.2950000000	0.1308864779
0.3000000000	0.1302647907
0.3050000000	0.1293517375
0.3100000000	0.1280869804
0.3150000000	0.1349878058
0.3200000000	0.1431846791
0.3250000000	0.1535464810
0.3300000000	0.1674123276
0.3350000000	0.1846773904
0.3400000000	0.2072886152
0.3450000000	0.2347380803
0.3500000000	0.2706617662
0.3550000000	0.3182191921
0.3600000000	0.3803611595
0.3650000000	0.4670345271
0.3700000000	0.5814316387
0.3750000000	0.7406834202
0.3800000000	0.9711722121
0.3850000000	1.3305380478
0.3900000000	1.8986872120
0.3950000000	2.8644640618
0.4000000000	4.7068143424
0.4050000000	8.8400746332
0.4100000000	20.1262847707
0.4150000000	64.6439723223
0.4200000000	41.1475590605
0.4250000000	-77.6736358093
0.4300000000	21.6451061106
0.4350000000	13.5056332998
0.4400000000	8.2684981367
0.4450000000	5.4474359080
0.4500000000	3.8223571873
0.4550000000	2.8216907628
0.4600000000	2.1695910674
0.4650000000	1.7249940792
0.4700000000	1.4106172949
0.4750000000	1.1831798560
0.4800000000	1.0145181402
0.4850000000	0.8876033028
0.4900000000	0.7907481683
0.4950000000	0.7161036851
0.5000000000	0.6583063708
0.5050000000	0.6134163861
0.5100000000	0.5789019533
0.5150000000	0.5529001382
0.5200000000	0.5334521685
0.5250000000	0.5196856219
0.5300000000	0.5106563457
0.5350000000	0.5056757583
0.5400000000	0.5042370591
0.5450000000	0.5059171413
0.5500000000	0.5105899689
0.5550000000	0.5180195247
0.5600000000	0.5280908119
0.5650000000	0.5407552626
0.5700000000	0.5559717731
0.5750000000	0.5738492248
0.5800000000	0.5945646082
0.5850000000	0.6182342174
0.5900000000	0.6450793221
0.5950000000	0.6753743222
0.6000000000	0.7094683163
0.6050000000	0.7478617201
0.6100000000	0.7910365801
0.6150000000	0.8396471180
0.6200000000	0.8945665708
0.6250000000	0.9566310304
0.6300000000	1.0270762708
0.6350000000	1.1074426225
0.6400000000	1.1993334514
0.6450000000	1.3050619735
0.6500000000	1.4276706571
0.6550000000	1.5703273141
0.6600000000	1.7378988432
0.6650000000	1.9366349460
0.6700000000	2.1738830581
0.6750000000	2.4608428933
0.6800000000	2.8125937746
0.6850000000	3.2488750240
0.6900000000	3.8002843539
0.6950000000	4.5096010338
0.7000000000	5.4448200098
0.7050000000	6.7098845622
0.7100000000	8.4809687716
0.7150000000	11.0717222602
0.7200000000	15.0661907744
0.7250000000	21.6992001401
0.7300000000	33.8787634087
0.7350000000	59.9494996637
0.7400000000	131.4777305553
0.7450000000	436.4929274698
0.7500000000	1353.2569794894
0.7550000000	340.6966712196
0.7600000000	112.9167968635
0.7650000000	54.1450584558
0.7700000000	31.5135066199
0.7750000000	20.5843012042
0.7800000000	14.4976914866
0.7850000000	10.7762154717
0.7900000000	8.3323903244
0.7950000000	6.6463330946
0.8000000000	5.4338743761
0.8050000000	4.5305579467
0.8100000000	3.8414938231
0.8150000000	3.2950471606
0.8200000000	2.8636417498
0.8250000000	2.5161817611
0.8300000000	2.2314625673
0.8350000000	1.9973195798
0.8400000000	1.8009935902
0.8450000000	1.6362149090
0.8500000000	1.4969179395
0.8550000000	1.3766769094
0.8600000000	1.2740293186
0.8650000000	1.1863714853
0.8700000000	1.1088952633
0.8750000000	1.0430250837
0.8800000000	0.9871832802
0.8850000000	0.9371127597
0.8900000000	0.8970540587
0.8950000000	0.8606086520
0.9000000000	0.8318405157
0.9050000000	0.8122475583
0.9100000000	0.7943032663
0.9150000000	0.7836874581
0.9200000000	0.7830570651
0.9250000000	0.7827252085
0.9300000000	0.7717797656
0.9350000000	0.7375097893
0.9400000000	0.5440570753
0.9450000000	-0.3374785143
0.9500000000	-4.9943411820
0.9550000000	-28.6315800461
0.9600000000	6.7627497203
0.9650000000	11.8862689571
0.9700000000	5.2755659302
0.9750000000	2.7707975005
0.9800000000	1.7369148073
0.9850000000	1.2532310920
0.9900000000	0.9744014941
0.9950000000	0.8052693584
1.0000000000	0.6972579247
1.0050000000	0.6288106769
1.0100000000	0.5756875772
1.0150000000	0.5368550754
1.0200000000	0.5107109031
1.0250000000	0.4887094806
1.0300000000	0.4719582460
1.0350000000	0.4592406268
1.0400000000	0.4511173666
1.0450000000	0.4442876024
1.0500000000	0.4396914815
1.0550000000	0.4370657908
1.0600000000	0.4370177134
1.0650000000	0.4378577330
1.0700000000	0.4402680329
1.0750000000	0.4442566091
1.0800000000	0.4502706063
1.0850000000	0.4579162571
1.0900000000	0.4693124218
1.0950000000	0.4828648680
1.1000000000	0.4990493312
1.1050000000	0.5176580552
1.1100000000	0.5392988420
1.1150000000	0.5644512946
1.1200000000	0.5937038827
1.1250000000	0.6277283212
1.1300000000	0.6675396416
1.1350000000	0.7143636654
1.1400000000	0.7696192575
1.1450000000	0.8357931871
1.1500000000	0.9156752723
1.1550000000	1.0132583895
1.1600000000	1.1341748602
1.1650000000	1.2857544893
1.1700000000	1.4816181624
1.1750000000	1.7399441532
1.1800000000	2.0907409377
1.1850000000	2.5833058259
1.1900000000	3.3106855997
1.1950000000	4.4512198282
1.2000000000	6.3841815672
1.2050000000	10.0350905964
1.2100000000	18.0644660209
1.2150000000	39.7705190648
1.2200000000	97.5408456711
1.2250000000	87.7206063581
1.2300000000	35.0949484819
1.2350000000	16.5467414212
1.2400000000	9.5247372959
1.2450000000	6.3066886162
1.2500000000	4.6160147392
1.2550000000	3.6481504825
1.2600000000	3.0681379867
1.2650000000	2.7150997083
1.2700000000	2.5179481721
1.2750000000	2.4308206481
1.2800000000	2.4329781021
1.2850000000	2.5168164375
1.2900000000	2.6846144938
1.2950000000	2.9459330180
1.3000000000	3.3308064208
1.3050000000	3.8783332095
1.3100000000	4.6592326498
1.3150000000	5.7953478732
1.3200000000	7.5048242482
1.3250000000	10.2042483336
1.3300000000	14.8028778206
1.3350000000	23.4118656232
1.3400000000	41.8104450026
1.3450000000	87.4953134193
1.3500000000	185.8707053315
1.3550000000	173.4636616382
1.3600000000	80.0228578300
1.3650000000	39.3239553747
1.3700000000	22.5517903361
1.3750000000	14.5014742308
1.3800000000	10.1118429023
1.3850000000	7.4680139161
1.3900000000	5.7649312275
1.3950000000	4.6037248801
1.4000000000	3.7791347156
1.4050000000	3.1753234992
1.4100000000	2.7228283285
1.4150000000	2.3813895198
1.4200000000	2.1246287116
1.4250000000	1.9526576185
1.4300000000	1.8896837092
1.4350000000	1.9247274244
1.4400000000	1.4824597459
1.4450000000	0.1278304001
1.4500000000	-2.0714386541
1.4550000000	-0.5808068028
1.4600000000	2.5083003955
1.4650000000	1.3579917054
1.4700000000	-1.2823447967
1.4750000000	-5.6122970765
1.4800000000	-2.4978322615
1.4850000000	4.1054344986
1.4900000000	3.3278810915
1.4950000000	2.1540438885
1.5000000000	1.5134707937
1.5050000000	1.1685445871
1.5100000000	0.9719468540
1.5150000000	0.8525529858
1.5200000000	0.7754264860
1.5250000000	0.7275053949
1.5300000000	0.6908991427
1.5350000000	0.6656666682
1.5400000000	0.6490459239
1.5450000000	0.6395549386
1.5500000000	0.6362369682
1.5550000000	0.6391162991
1.5600000000	0.6498971439
1.5650000000	0.6677045552
1.5700000000	0.6965380819
1.5750000000	0.7412762755
1.5800000000	0.8110793146
1.5850000000	0.9237780035
1.5900000000	1.1169391197
1.5950000000	1.4736950524
1.6000000000	2.1696457942
1.6050000000	3.3203730357
1.6100000000	3.8533031405
1.6150000000	2.8542440803
1.6200000000	1.9170168892
1.6250000000	1.4222920567
1.6300000000	1.1738915420
1.6350000000	1.0460073439
1.6400000000	0.9811886992
1.6450000000	0.9527337489
1.6500000000	0.9472710781
1.6550000000	0.9585368095
1.6600000000	0.9827926067
1.6650000000	1.0183313818
1.6700000000	1.0645041154
1.6750000000	1.1213146587
1.6800000000	1.1892708780
1.6850000000	1.2691606016
1.6900000000	1.3616804106
1.6950000000	1.4655160013
1.7000000000	1.5789246835
1.7050000000	1.6951497901
1.7100000000	1.8277720444
1.7150000000	2.1573579079
1.7200000000	2.7356102806
1.7250000000	3.2654314489
1.7300000000	3.8340375731
1.7350000000	4.4588165022
1.7400000000	5.0718666792
1.7450000000	5.8592916903
1.7500000000	7.0500785013
1.7550000000	8.8224447837
1.7600000000	11.4742350660
1.7650000000	15.5619932558
1.7700000000	22.1466542437
1.7750000000	33.2400950900
1.7800000000	52.1430970161
1.7850000000	80.0206025730
1.7900000000	99.4441398890
1.7950000000	84.6786029382
1.8000000000	56.3559724276
1.8050000000	35.5900852441
1.8100000000	23.4653924310
1.8150000000	16.3586337009
1.8200000000	11.9850379910
1.8250000000	9.1496219720
1.8300000000	7.2244732100
1.8350000000	5.8656235235
1.8400000000	4.8756380842
1.8450000000	4.1347490116
1.8500000000	3.5674761596
1.8550000000	3.1265897125
1.8600000000	2.7791426210
1.8650000000	2.5027434704
1.8700000000	2.2814669723
1.8750000000	2.1036214454
1.8800000000	1.9599327901
1.8850000000	1.8422061661
1.8900000000	1.7409986727
1.8950000000	1.6422193017
1.9000000000	1.5215357637
1.9050000000	1.2930759073
1.9100000000	0.9786545973
1.9150000000	0.8121109507
1.9200000000	1.9860131501
1.9250000000	5.2305512185
1.9300000000	7.8036906450
1.9350000000	7.6836636542
1.9400000000	6.0434138627
1.9450000000	4.4531442985
1.9500000000	3.3365924967
1.9550000000	2.6049927836
1.9600000000	2.1215286670
1.9650000000	1.7979382673
1.9700000000	1.5643314016
1.9750000000	1.3930887224
1.9800000000	1.2623519640
1.9850000000	1.1562624599
1.9900000000	1.0626852746
1.9950000000	0.9710296582
2.0000000000	0.8797515843
2.0050000000	0.8214376323
2.0100000000	0.8548496201
2.0150000000	0.9468904956
2.0200000000	1.0036442626
2.0250000000	1.0187242761
2.0300000000	1.0221247873
2.0350000000	1.0283072133
2.0400000000	1.0426451534
2.0450000000	1.0665087452
2.0500000000	1.1007869598
2.0550000000	1.1462870960
2.0600000000	1.2030097894
2.0650000000	1.2675191252
2.0700000000	1.3312941582
2.0750000000	1.3879491352
2.0800000000	1.4431184567
2.0850000000	1.5084545955
2.0900000000	1.5917683505
2.0950000000	1.6963488227
2.1000000000	1.8257339304
2.1050000000	1.9787519170
2.1100000000	2.1661570440
2.1150000000	2.3958108260
2.1200000000	2.6787383108
2.1250000000	3.0304039035
2.1300000000	3.4726063042
2.1350000000	4.0364673979
2.1400000000	4.7669261361
2.1450000000	5.7296836186
2.1500000000	7.0204687210
2.1550000000	8.7747638522
2.1600000000	11.1659652219
2.1650000000	14.3409178389
2.1700000000	18.2408794742
2.1750000000	22.1182616441
2.1800000000	24.5140151314
2.1850000000	24.6385534166
2.1900000000	23.5493636310
2.1950000000	22.7018236885
2.2000000000	22.3260090080
2.2050000000	21.2818199467
2.2100000000	19.0648379103
2.2150000000	16.3390154828
2.2200000000	13.8919918789
2.2250000000	11.8696561139
2.2300000000	10.0890054393
2.2350000000	8.4791482710
2.2400000000	7.0964031105
2.2450000000	5.9900416817
2.2500000000	5.1419169502
2.2550000000	4.5047877684
2.2600000000	4.0277308494
2.2650000000	3.6597190186
2.2700000000	3.3455937583
2.2750000000	3.0310140766
2.2800000000	2.6923490057
2.2850000000	2.3701026063
2.2900000000	2.1474315980
2.2950000000	2.0714030685
2.3000000000	2.0986315983
2.3050000000	2.1401824568
2.3100000000	2.1436903564
2.3150000000	2.1095812781
2.3200000000	2.0605232272
2.3250000000	2.0199294968
2.3300000000	1.9997801954
2.3350000000	2.0021338628
2.3400000000	2.0202817311
2.3450000000	2.0390396385
2.3500000000	2.0392876455
2.3550000000	2.0088273947
2.3600000000	1.9511111073
2.3650000000	1.8812240964
2.3700000000	1.8147158091
2.3750000000	1.7608729502
2.3800000000	1.7227117731
2.3850000000	1.6993780615
2.3900000000	1.6889252329
2.3950000000	1.6890987424
2.4000000000	1.7005128954
2.4050000000	1.7269264290
2.4100000000	1.7695994387
2.4150000000	1.8302761346
2.4200000000	1.9100048980
2.4250000000	2.0106200932
2.4300000000	2.1347968162
2.4350000000	2.2861235751
2.4400000000	2.4692310236
2.4450000000	2.6900317366
2.4500000000	2.9559853513
2.4550000000	3.2764679718
2.4600000000	3.6629993498
2.4650000000	4.1294009314
2.4700000000	4.6915244745
2.4750000000	5.3652485962
2.4800000000	6.1669723924
2.4850000000	7.1031878975
2.4900000000	8.1647448315
2.4950000000	9.3136544878
2.5000000000	10.4695761917
2.5050000000	11.5508900755
2.5100000000	12.2813907951
2.5150000000	12.5017724059
2.5200000000	12.1740732289
2.5250000000	11.3994504147
2.5300000000	10.3541313765
2.5350000000	9.2080787339
2.5400000000	8.0813661532
2.5450000000	7.0418351480
2.5500000000	6.1196529388
2.5550000000	5.3216865516
2.5600000000	4.6369644282
2.5650000000	4.0612862813
2.5700000000	3.5810988828
2.5750000000	3.1879178352
2.5800000000	2.8754055986
2.5850000000	2.6366728277
2.5900000000	2.4603884055
2.5950000000	2.3306218201
2.6000000000	2.2307859863
2.6050000000	2.1598342877
2.6100000000	2.0983991303
2.6150000000	2.0455066965
2.6200000000	2.0022020036
2.6250000000	1.9696427500
2.6300000000	1.9486019900
2.6350000000	1.9394741748
2.6400000000	1.9424883733
2.6450000000	1.9578577752
2.6500000000	1.9859996247
2.6550000000	2.0270307853
2.6600000000	2.0815809607
2.6650000000	2.1502862546
2.6700000000	2.2339280815
2.6750000000	2.3334534072
2.6800000000	2.4499117843
2.6850000000	2.5843768845
2.6900000000	2.7377282072
2.6950000000	2.9104759001
2.7000000000	3.1024451662
2.7050000000	3.3354696826
2.7100000000	3.5897847683
2.7150000000	3.8604386576
2.7200000000	4.1402291710
2.7250000000	4.4201083439
2.7300000000	4.6898665375
2.7350000000	4.9387207775
2.7400000000	5.1554564003
2.7450000000	5.3301183163
2.7500000000	5.4472645704
2.7550000000	5.4975466694
2.7600000000	5.4738711047
2.7650000000	5.3754127221
2.7700000000	5.2087702277
2.7750000000	4.9871647621
2.7800000000	4.7278292363
2.7850000000	4.4490454376
2.7900000000	4.1672165544
2.7950000000	3.8954964396
2.8000000000	3.6431861448
2.8050000000	3.3879072027
2.8100000000	3.1694217087
2.8150000000	2.9871436139
2.8200000000	2.8381387445
2.8250000000	2.7185398560
2.8300000000	2.6244513520
2.8350000000	2.5525393365
2.8400000000	2.4992941845
2.8450000000	2.4648381013
2.8500000000	2.4466205011
2.8550000000	2.4436695466
2.8600000000	2.4552595537
2.8650000000	2.4807367951
2.8700000000	2.5193700159
2.8750000000	2.5702314876
2.8800000000	2.6321049598
2.8850000000	2.7034086897
2.8900000000	2.7822413338
2.8950000000	2.8664524660
2.9000000000	2.9537806448
2.9050000000	3.0587234702
2.9100000000	3.1593978815
2.9150000000	3.2526370337
2.9200000000	3.3351172345
2.9250000000	3.4030672315
2.9300000000	3.4530144659
2.9350000000	3.4795588045
2.9400000000	3.4803694104
2.9450000000	3.4544533543
2.9500000000	3.4033059636
2.9550000000	3.3308146966
2.9600000000	3.2425907297
2.9650000000	3.1449920072
2.9700000000	3.0441666422
2.9750000000	2.9453688529
2.9800000000	2.8526246164
2.9850000000	2.7686807550
2.9900000000	2.6951894019
2.9950000000	2.6329261250
3.0000000000	2.5820541256
