# energy (eV)    P(omega), $W$ = 300 nm, $h$ = 300 nm, $s$ = 20 nm, $d/W = 5$, $E_{\rm e}$ = 200 keV
0.2000000000	0.0649370265
0.2050000000	0.0658698668
0.2100000000	0.0667467158
0.2150000000	0.0675693244
0.2200000000	0.0683392021
0.2250000000	0.0690575968
0.2300000000	0.0697254252
0.2350000000	0.0703432603
0.2400000000	0.0709112656
0.2450000000	0.0714290557
0.2500000000	0.0718957745
0.2550000000	0.0723097764
0.2600000000	0.0726686571
0.2650000000	0.0729690647
0.2700000000	0.0732064047
0.2750000000	0.0733746624
0.2800000000	0.0734660413
0.2850000000	0.0734705729
0.2900000000	0.0733754499
0.2950000000	0.0731645233
0.3000000000	0.0728169969
0.3050000000	0.0723065985
0.3100000000	0.0715995996
0.3150000000	0.0754571185
0.3200000000	0.0800391201
0.3250000000	0.0858313040
0.3300000000	0.0935822280
0.3350000000	0.1032332930
0.3400000000	0.1158728299
0.3450000000	0.1312169125
0.3500000000	0.1512980317
0.3550000000	0.1778823386
0.3600000000	0.2126193115
0.3650000000	0.2610691822
0.3700000000	0.3250164464
0.3750000000	0.4140371817
0.3800000000	0.5428789448
0.3850000000	0.7437621404
0.3900000000	1.0613538532
0.3950000000	1.6012168349
0.4000000000	2.6310785994
0.4050000000	4.9415439354
0.4100000000	11.2504607795
0.4150000000	36.1355520308
0.4200000000	23.0012139172
0.4250000000	-43.4190391384
0.4300000000	12.0994663455
0.4350000000	7.5495557934
0.4400000000	4.6220327665
0.4450000000	3.0450782266
0.4500000000	2.1366703658
0.4550000000	1.5773047289
0.4600000000	1.2127855120
0.4650000000	0.9642588847
0.4700000000	0.7885244540
0.4750000000	0.6613885152
0.4800000000	0.5671077967
0.4850000000	0.4961632911
0.4900000000	0.4420219479
0.4950000000	0.4002962014
0.5000000000	0.3679879022
0.5050000000	0.3428947073
0.5100000000	0.3236013705
0.5150000000	0.3090665242
0.5200000000	0.2981952288
0.5250000000	0.2904998058
0.5300000000	0.2854524807
0.5350000000	0.2826683408
0.5400000000	0.2818640881
0.5450000000	0.2828032088
0.5500000000	0.2854152491
0.5550000000	0.2895682770
0.5600000000	0.2951980096
0.5650000000	0.3022772975
0.5700000000	0.3107831637
0.5750000000	0.3207764713
0.5800000000	0.3323561563
0.5850000000	0.3455872255
0.5900000000	0.3605933661
0.5950000000	0.3775279650
0.6000000000	0.3965861643
0.6050000000	0.4180476916
0.6100000000	0.4421820058
0.6150000000	0.4693548102
0.6200000000	0.5000542353
0.6250000000	0.5347476482
0.6300000000	0.5741258339
0.6350000000	0.6190498216
0.6400000000	0.6704158766
0.6450000000	0.7295170633
0.6500000000	0.7980540907
0.6550000000	0.8777977333
0.6600000000	0.9714685387
0.6650000000	1.0825600262
0.6700000000	1.2151793381
0.6750000000	1.3755870005
0.6800000000	1.5722122019
0.6850000000	1.8160890226
0.6900000000	2.1243212726
0.6950000000	2.5208221279
0.7000000000	3.0436000707
0.7050000000	3.7507583348
0.7100000000	4.7407764328
0.7150000000	6.1889813016
0.7200000000	8.4218485446
0.7250000000	12.1296331655
0.7300000000	18.9378846923
0.7350000000	33.5111596988
0.7400000000	73.4947082749
0.7450000000	243.9950743069
0.7500000000	756.4567456924
0.7550000000	190.4459279741
0.7600000000	63.1193223061
0.7650000000	30.2665263774
0.7700000000	17.6157225555
0.7750000000	11.5064097323
0.7800000000	8.1040579264
0.7850000000	6.0237914233
0.7900000000	4.6577185428
0.7950000000	3.7152300837
0.8000000000	3.0374782844
0.8050000000	2.5325338186
0.8100000000	2.1473541672
0.8150000000	1.8418961964
0.8200000000	1.6007450880
0.8250000000	1.4065185957
0.8300000000	1.2473635541
0.8350000000	1.1164800830
0.8400000000	1.0067359189
0.8450000000	0.9146263698
0.8500000000	0.8367608301
0.8550000000	0.7695473613
0.8600000000	0.7121684400
0.8650000000	0.6631686344
0.8700000000	0.6198602432
0.8750000000	0.5830395063
0.8800000000	0.5518245243
0.8850000000	0.5238356292
0.8900000000	0.5014432324
0.8950000000	0.4810706296
0.9000000000	0.4649895370
0.9050000000	0.4540372674
0.9100000000	0.4440065851
0.9150000000	0.4380724433
0.9200000000	0.4377200357
0.9250000000	0.4375345080
0.9300000000	0.4314161111
0.9350000000	0.4122595767
0.9400000000	0.3041217595
0.9450000000	-0.1886463006
0.9500000000	-2.7917777687
0.9550000000	-16.0047157226
0.9600000000	3.7802972319
0.9650000000	6.6442836831
0.9700000000	2.9489788286
0.9750000000	1.5488429405
0.9800000000	0.9709147774
0.9850000000	0.7005413213
0.9900000000	0.5446788897
0.9950000000	0.4501360374
1.0000000000	0.3897589309
1.0050000000	0.3514977325
1.0100000000	0.3218025525
1.0150000000	0.3000956469
1.0200000000	0.2854813657
1.0250000000	0.2731828338
1.0300000000	0.2638190949
1.0350000000	0.2567100997
1.0400000000	0.2521692961
1.0450000000	0.2483515431
1.0500000000	0.2457823709
1.0550000000	0.2443146467
1.0600000000	0.2442877781
1.0650000000	0.2447573469
1.0700000000	0.2461046853
1.0750000000	0.2483342627
1.0800000000	0.2516960276
1.0850000000	0.2559698706
1.0900000000	0.2623402109
1.0950000000	0.2699158900
1.1000000000	0.2789628388
1.1050000000	0.2893649258
1.1100000000	0.3014619055
1.1150000000	0.3155218713
1.1200000000	0.3318737713
1.1250000000	0.3508930897
1.1300000000	0.3731472186
1.1350000000	0.3993213806
1.1400000000	0.4302087069
1.1450000000	0.4671992798
1.1500000000	0.5118525805
1.1550000000	0.5664005894
1.1600000000	0.6339917213
1.1650000000	0.7187232673
1.1700000000	0.8282091766
1.1750000000	0.9726109330
1.1800000000	1.1687029930
1.1850000000	1.4440420916
1.1900000000	1.8506405037
1.1950000000	2.4881883800
1.2000000000	3.5686957957
1.2050000000	5.6095196100
1.2100000000	10.0978649779
1.2150000000	22.2313443328
1.2200000000	54.5244118666
1.2250000000	49.0349875101
1.2300000000	19.6177402863
1.2350000000	9.2494674742
1.2400000000	5.3242333325
1.2450000000	3.5253742850
1.2500000000	2.5803032444
1.2550000000	2.0392758669
1.2600000000	1.7150538650
1.2650000000	1.5177082013
1.2700000000	1.4075016171
1.2750000000	1.3587972536
1.2800000000	1.3600021427
1.2850000000	1.4068656057
1.2900000000	1.5006614051
1.2950000000	1.6467337946
1.3000000000	1.8618715172
1.3050000000	2.1679299858
1.3100000000	2.6044401359
1.3150000000	3.2395103345
1.3200000000	4.1950803829
1.3250000000	5.7040155460
1.3300000000	8.2745764802
1.3350000000	13.0868641934
1.3400000000	23.3713784415
1.3450000000	48.9084955418
1.3500000000	103.8987787187
1.3550000000	96.9634354966
1.3600000000	44.7315076274
1.3650000000	21.9814669145
1.3700000000	12.6060928870
1.3750000000	8.1060939982
1.3800000000	5.6523597863
1.3850000000	4.1745013551
1.3900000000	3.2225051535
1.3950000000	2.5734092156
1.4000000000	2.1124763614
1.4050000000	1.7749554125
1.4100000000	1.5220176936
1.4150000000	1.3311586493
1.4200000000	1.1876331350
1.4250000000	1.0915034520
1.4300000000	1.0563008211
1.4350000000	1.0758874831
1.4400000000	0.8286652763
1.4450000000	0.0714468900
1.4500000000	-1.1579161748
1.4550000000	-0.3246689085
1.4600000000	1.4021074063
1.4650000000	0.7591019792
1.4700000000	-0.7168057822
1.4750000000	-3.1371797592
1.4800000000	-1.3962457600
1.4850000000	2.2948717515
1.4900000000	1.8602318640
1.4950000000	1.2040759534
1.5000000000	0.8460059912
1.5050000000	0.6531978123
1.5100000000	0.5433028448
1.5150000000	0.4765635807
1.5200000000	0.4334510881
1.5250000000	0.4066639474
1.5300000000	0.3862016120
1.5350000000	0.3720970311
1.5400000000	0.3628062637
1.5450000000	0.3575009094
1.5500000000	0.3556461624
1.5550000000	0.3572555936
1.5600000000	0.3632818252
1.5650000000	0.3732357652
1.5700000000	0.3893530825
1.5750000000	0.4143607832
1.5800000000	0.4533792125
1.5850000000	0.5163754115
1.5900000000	0.6243484114
1.5950000000	0.8237674503
1.6000000000	1.2127891811
1.6050000000	1.8560212588
1.6100000000	2.1539177467
1.6150000000	1.5954649164
1.6200000000	1.0715749141
1.6250000000	0.7950343668
1.6300000000	0.6561838912
1.6350000000	0.5846994856
1.6400000000	0.5484673967
1.6450000000	0.5325618556
1.6500000000	0.5295085296
1.6550000000	0.5358060469
1.6600000000	0.5493647616
1.6650000000	0.5692304526
1.6700000000	0.5950403378
1.6750000000	0.6267965769
1.6800000000	0.6647830661
1.6850000000	0.7094401965
1.6900000000	0.7611573596
1.6950000000	0.8191999118
1.7000000000	0.8825937728
1.7050000000	0.9475622088
1.7100000000	1.0216965879
1.7150000000	1.2059294599
1.7200000000	1.5291617000
1.7250000000	1.8253229163
1.7300000000	2.1431651046
1.7350000000	2.4924068557
1.7400000000	2.8350917947
1.7450000000	3.2752491657
1.7500000000	3.9408792914
1.7550000000	4.9316029492
1.7600000000	6.4139103095
1.7650000000	8.6989002790
1.7700000000	12.3796180682
1.7750000000	18.5806699862
1.7800000000	29.1471385842
1.7850000000	44.7302073437
1.7900000000	55.5876454919
1.7950000000	47.3339508590
1.8000000000	31.5020637257
1.8050000000	19.8942728670
1.8100000000	13.1167682661
1.8150000000	9.1442066395
1.8200000000	6.6994383491
1.8250000000	5.1144872848
1.8300000000	4.0383606820
1.8350000000	3.2787859626
1.8400000000	2.7254002928
1.8450000000	2.3112553881
1.8500000000	1.9941590819
1.8550000000	1.7477106781
1.8600000000	1.5534933108
1.8650000000	1.3989905386
1.8700000000	1.2753003756
1.8750000000	1.1758873480
1.8800000000	1.0955673634
1.8850000000	1.0297596071
1.8900000000	0.9731856011
1.8950000000	0.9179686225
1.9000000000	0.8505071904
1.9050000000	0.7227998472
1.9100000000	0.5470403908
1.9150000000	0.4539403603
1.9200000000	1.1101248671
1.9250000000	2.9237581938
1.9300000000	4.3620929923
1.9350000000	4.2950021386
1.9400000000	3.3781389729
1.9450000000	2.4892134422
1.9500000000	1.8650855839
1.9550000000	1.4561374061
1.9600000000	1.1858915456
1.9650000000	1.0050116059
1.9700000000	0.8744304507
1.9750000000	0.7787095182
1.9800000000	0.7056305204
1.9850000000	0.6463288141
1.9900000000	0.5940212420
1.9950000000	0.5427878139
2.0000000000	0.4917654513
2.0050000000	0.4591693103
2.0100000000	0.4778458723
2.0150000000	0.5292946481
2.0200000000	0.5610187685
2.0250000000	0.5694482505
2.0300000000	0.5713491952
2.0350000000	0.5748052006
2.0400000000	0.5828199968
2.0450000000	0.5961594722
2.0500000000	0.6153205580
2.0550000000	0.6407545330
2.0600000000	0.6724617535
2.0650000000	0.7085215651
2.0700000000	0.7441708147
2.0750000000	0.7758398997
2.0800000000	0.8066783940
2.0850000000	0.8431999294
2.0900000000	0.8897706641
2.0950000000	0.9482291590
2.1000000000	1.0205530391
2.1050000000	1.1060873014
2.1100000000	1.2108433812
2.1150000000	1.3392157186
2.1200000000	1.4973671140
2.1250000000	1.6939418904
2.1300000000	1.9411251288
2.1350000000	2.2563134050
2.1400000000	2.6646267861
2.1450000000	3.2027910084
2.1500000000	3.9243167956
2.1550000000	4.9049363812
2.1600000000	6.2415751318
2.1650000000	8.0163167650
2.1700000000	10.1963254513
2.1750000000	12.3637127226
2.1800000000	13.7028964526
2.1850000000	13.7725121994
2.1900000000	13.1636763426
2.1950000000	12.6899187292
2.2000000000	12.4798465669
2.2050000000	11.8961629557
2.2100000000	10.6569064606
2.2150000000	9.1332157791
2.2200000000	7.7653687149
2.2250000000	6.6349159456
2.2300000000	5.6395629225
2.2350000000	4.7396821070
2.2400000000	3.9667535174
2.2450000000	3.3483184271
2.2500000000	2.8742326708
2.2550000000	2.5180892509
2.2600000000	2.2514230111
2.2650000000	2.0457107791
2.2700000000	1.8701201087
2.2750000000	1.6942755959
2.2800000000	1.5049681368
2.2850000000	1.3248387607
2.2900000000	1.2003703930
2.2950000000	1.1578724928
2.3000000000	1.1730932956
2.3050000000	1.1963199035
2.3100000000	1.1982810485
2.3150000000	1.1792148644
2.3200000000	1.1517923673
2.3250000000	1.1291011737
2.3300000000	1.1178379570
2.3350000000	1.1191534213
2.3400000000	1.1292975256
2.3450000000	1.1397826665
2.3500000000	1.1399212268
2.3550000000	1.1228945987
2.3600000000	1.0906324967
2.3650000000	1.0515672716
2.3700000000	1.0143907136
2.3750000000	0.9842938774
2.3800000000	0.9629627708
2.3850000000	0.9499198902
2.3900000000	0.9440771244
2.3950000000	0.9441742221
2.4000000000	0.9505545745
2.4050000000	0.9653192588
2.4100000000	0.9891726567
2.4150000000	1.0230897618
2.4200000000	1.0676566091
2.4250000000	1.1238985772
2.4300000000	1.1933109938
2.4350000000	1.2778997660
2.4400000000	1.3802533400
2.4450000000	1.5036767315
2.4500000000	1.6523397347
2.4550000000	1.8314834126
2.4600000000	2.0475470867
2.4650000000	2.3082566824
2.4700000000	2.6224730314
2.4750000000	2.9990719819
2.4800000000	3.4472203245
2.4850000000	3.9705469934
2.4900000000	4.5639371666
2.4950000000	5.2061558776
2.5000000000	5.8522941858
2.5050000000	6.4567280674
2.5100000000	6.8650638832
2.5150000000	6.9882526203
2.5200000000	6.8050745188
2.5250000000	6.3720746687
2.5300000000	5.7877609607
2.5350000000	5.1471392825
2.5400000000	4.5173284618
2.5450000000	3.9362505337
2.5500000000	3.4207683412
2.5550000000	2.9747203957
2.5600000000	2.5919738029
2.5650000000	2.2701806981
2.5700000000	2.0017650976
2.5750000000	1.7819843945
2.5800000000	1.6072960313
2.5850000000	1.4738489967
2.5900000000	1.3753094092
2.5950000000	1.3027724090
2.6000000000	1.2469661236
2.6050000000	1.2073055067
2.6100000000	1.1729644392
2.6150000000	1.1433985765
2.6200000000	1.1191920658
2.6250000000	1.1009920388
2.6300000000	1.0892306181
2.6350000000	1.0841282944
2.6400000000	1.0858131120
2.6450000000	1.0944042401
2.6500000000	1.1101349100
2.6550000000	1.1330704455
2.6600000000	1.1635628383
2.6650000000	1.2019676571
2.6700000000	1.2487216960
2.6750000000	1.3043542900
2.6800000000	1.3694521173
2.6850000000	1.4446153393
2.6900000000	1.5303355801
2.6950000000	1.6268980051
2.7000000000	1.7342049108
2.7050000000	1.8644608845
2.7100000000	2.0066178885
2.7150000000	2.1579080012
2.7200000000	2.3143053664
2.7250000000	2.4707523680
2.7300000000	2.6215420280
2.7350000000	2.7606468721
2.7400000000	2.8817981048
2.7450000000	2.9794309962
2.7500000000	3.0449137587
2.7550000000	3.0730207353
2.7600000000	3.0597867695
2.7650000000	3.0047506048
2.7700000000	2.9116007887
2.7750000000	2.7877276886
2.7800000000	2.6427641778
2.7850000000	2.4869294320
2.7900000000	2.3293925246
2.7950000000	2.1775062115
2.8000000000	2.0364696054
2.8050000000	1.8937735756
2.8100000000	1.7716443671
2.8150000000	1.6697543892
2.8200000000	1.5864634953
2.8250000000	1.5196099693
2.8300000000	1.4670162473
2.8350000000	1.4268187459
2.8400000000	1.3970556515
2.8450000000	1.3777952755
2.8500000000	1.3676118891
2.8550000000	1.3659622540
2.8600000000	1.3724407274
2.8650000000	1.3866818889
2.8700000000	1.4082769827
2.8750000000	1.4367074293
2.8800000000	1.4712933719
2.8850000000	1.5111506514
2.8900000000	1.5552164599
2.8950000000	1.6022887566
2.9000000000	1.6511034449
2.9050000000	1.7097644135
2.9100000000	1.7660394611
2.9150000000	1.8181583783
2.9200000000	1.8642632783
2.9250000000	1.9022460941
2.9300000000	1.9301657232
2.9350000000	1.9450035877
2.9400000000	1.9454567885
2.9450000000	1.9309702933
2.9500000000	1.9023799579
2.9550000000	1.8618587949
2.9600000000	1.8125433430
2.9650000000	1.7579875700
2.9700000000	1.7016281532
2.9750000000	1.6464021001
2.9800000000	1.5945598551
2.9850000000	1.5476368399
2.9900000000	1.5065565660
2.9950000000	1.4717525619
3.0000000000	1.4433160548
