# energy (eV)    P(omega), $W$ = 400 nm, $h$ = 300 nm, $s$ = 20 nm, $d/W = 5$, $E_{\rm e}$ = 200 keV
0.2000000000	0.2929081045
0.2050000000	0.2956461794
0.2100000000	0.2975141606
0.2150000000	0.2984811395
0.2200000000	0.2985028284
0.2250000000	0.2975180355
0.2300000000	0.2954455629
0.2350000000	0.2921790033
0.2400000000	0.2875807247
0.2450000000	0.2814732948
0.2500000000	0.2736288763
0.2550000000	0.2637544987
0.2600000000	0.2514718375
0.2650000000	0.2639912709
0.2700000000	0.2959524466
0.2750000000	0.3416371241
0.2800000000	0.4052012085
0.2850000000	0.4988024808
0.2900000000	0.6145440107
0.2950000000	0.7802651604
0.3000000000	1.0026905343
0.3050000000	1.3432609914
0.3100000000	1.8169422509
0.3150000000	2.7330715748
0.3200000000	4.1618937314
0.3250000000	5.1353108164
0.3300000000	6.4805108084
0.3350000000	8.3855869107
0.3400000000	11.3741010530
0.3450000000	16.4980067741
0.3500000000	26.7090729416
0.3550000000	50.3280499481
0.3600000000	123.5311161120
0.3650000000	0.7630993587
0.3700000000	57.0222720772
0.3750000000	74.9125271981
0.3800000000	34.8442781356
0.3850000000	19.5902339787
0.3900000000	12.5397075134
0.3950000000	8.8175895743
0.4000000000	6.6633886464
0.4050000000	5.2597093038
0.4100000000	4.3458478678
0.4150000000	3.7426369203
0.4200000000	3.3603776956
0.4250000000	3.0599249662
0.4300000000	2.7069683930
0.4350000000	2.4276217224
0.4400000000	2.2065951894
0.4450000000	2.0307038842
0.4500000000	1.8916075284
0.4550000000	1.7810477792
0.4600000000	1.6944639279
0.4650000000	1.6270729502
0.4700000000	1.5756999625
0.4750000000	1.5381117560
0.4800000000	1.5123645371
0.4850000000	1.4967601758
0.4900000000	1.4902788587
0.4950000000	1.4921337211
0.5000000000	1.5016474529
0.5050000000	1.5185036233
0.5100000000	1.5424362694
0.5150000000	1.5732790506
0.5200000000	1.6110692543
0.5250000000	1.6558292158
0.5300000000	1.7082254159
0.5350000000	1.7685289355
0.5400000000	1.8372568255
0.5450000000	1.9150997002
0.5500000000	2.0030397528
0.5550000000	2.1021503009
0.5600000000	2.2137415149
0.5650000000	2.3395046068
0.5700000000	2.4817806159
0.5750000000	2.6422797708
0.5800000000	2.8242495982
0.5850000000	3.0321359533
0.5900000000	3.2688836359
0.5950000000	3.5407943491
0.6000000000	3.8561902713
0.6050000000	4.2212305970
0.6100000000	4.6502217817
0.6150000000	5.1549270624
0.6200000000	5.7556357694
0.6250000000	6.4814758992
0.6300000000	7.3620126513
0.6350000000	8.4530396514
0.6400000000	9.8158827582
0.6450000000	11.5621261572
0.6500000000	13.8339723208
0.6550000000	16.8725171187
0.6600000000	21.0847584002
0.6650000000	27.1131459310
0.6700000000	36.2371590657
0.6750000000	50.8996623141
0.6800000000	76.8053139091
0.6850000000	128.7592631924
0.6900000000	257.7930812782
0.6950000000	722.9277325273
0.7000000000	3502.6767405077
0.7050000000	1701.1608040136
0.7100000000	436.5408723788
0.7150000000	185.4486327844
0.7200000000	101.1698387881
0.7250000000	63.4857944881
0.7300000000	43.4963231074
0.7350000000	31.6854524802
0.7400000000	24.1259840596
0.7450000000	18.9974647118
0.7500000000	15.3662415928
0.7550000000	12.6997620408
0.7600000000	10.6908372499
0.7650000000	9.1336658197
0.7700000000	7.9049760280
0.7750000000	6.9189547234
0.7800000000	6.1179821937
0.7850000000	5.4586782252
0.7900000000	4.9065495202
0.7950000000	4.4455199380
0.8000000000	4.0536144785
0.8050000000	3.7179368207
0.8100000000	3.4321703255
0.8150000000	3.1817658855
0.8200000000	2.9637795875
0.8250000000	2.7806958844
0.8300000000	2.6203854651
0.8350000000	2.4809376616
0.8400000000	2.3695179392
0.8450000000	2.2721550482
0.8500000000	2.1893855506
0.8550000000	2.1361676122
0.8600000000	2.0931176660
0.8650000000	2.0616631640
0.8700000000	2.0691317748
0.8750000000	2.0701962897
0.8800000000	2.0569322225
0.8850000000	1.9663581716
0.8900000000	1.5288043856
0.8950000000	-0.6553371807
0.9000000000	-12.3493313646
0.9050000000	-81.1700900537
0.9100000000	15.4276503600
0.9150000000	36.5329726534
0.9200000000	15.1526069848
0.9250000000	7.8784164937
0.9300000000	4.8084940872
0.9350000000	3.3431805890
0.9400000000	2.5536406600
0.9450000000	2.1166333253
0.9500000000	1.8073359129
0.9550000000	1.6013673788
0.9600000000	1.4752898634
0.9650000000	1.3728731466
0.9700000000	1.3021953700
0.9750000000	1.2575378900
0.9800000000	1.2359593655
0.9850000000	1.2444722117
0.9900000000	1.2780606797
0.9950000000	1.3604800232
1.0000000000	1.5358058778
1.0050000000	1.9261740525
1.0100000000	2.9350236882
1.0150000000	6.3563853523
1.0200000000	12.5313600726
1.0250000000	5.3946951275
1.0300000000	2.5241117732
1.0350000000	1.6725531726
1.0400000000	1.3374352175
1.0450000000	1.1784754666
1.0500000000	1.0957497527
1.0550000000	1.0494534326
1.0600000000	1.0244549548
1.0650000000	1.0130802254
1.0700000000	1.0110610328
1.0750000000	1.0166419013
1.0800000000	1.0272693929
1.0850000000	1.0439345503
1.0900000000	1.0700797665
1.0950000000	1.1014015679
1.1000000000	1.1382044269
1.1050000000	1.1803371317
1.1100000000	1.2285315922
1.1150000000	1.2833831543
1.1200000000	1.3456626000
1.1250000000	1.4160921174
1.1300000000	1.4963697458
1.1350000000	1.5878871886
1.1400000000	1.6924624443
1.1450000000	1.8126093600
1.1500000000	1.9504879011
1.1550000000	2.1119932612
1.1600000000	2.3016932948
1.1650000000	2.5269306669
1.1700000000	2.7959973506
1.1750000000	3.1115051380
1.1800000000	3.4925040729
1.1850000000	4.4128052757
1.1900000000	5.5608329221
1.1950000000	7.8970091781
1.2000000000	10.9512273841
1.2050000000	9.3981394696
1.2100000000	8.7990307559
1.2150000000	9.6982321320
1.2200000000	11.5458548272
1.2250000000	14.4169839416
1.2300000000	18.7963321370
1.2350000000	25.7297539226
1.2400000000	37.4094060680
1.2450000000	59.3960380924
1.2500000000	106.9910601861
1.2550000000	231.4000241576
1.2600000000	558.4102506656
1.2650000000	565.0770955928
1.2700000000	234.7982056646
1.2750000000	108.2465092062
1.2800000000	59.8620260685
1.2850000000	37.5815431343
1.2900000000	25.7073174145
1.2950000000	18.6910324537
1.3000000000	14.2196416240
1.3050000000	11.2053753360
1.3100000000	9.0748115997
1.3150000000	7.5288142308
1.3200000000	6.3743342692
1.3250000000	5.4942810455
1.3300000000	4.8162141069
1.3350000000	4.2932861219
1.3400000000	3.8968261667
1.3450000000	3.6098008824
1.3500000000	3.4400525809
1.3550000000	3.4117189341
1.3600000000	3.6005752891
1.3650000000	4.2095062679
1.3700000000	5.8132799235
1.3750000000	9.9439062570
1.3800000000	15.6325854822
1.3850000000	11.1154544441
1.3900000000	5.9736611756
1.3950000000	3.6826289984
1.4000000000	2.5265952351
1.4050000000	1.7225398489
1.4100000000	0.8426476211
1.4150000000	-0.6941221198
1.4200000000	-4.3830004813
1.4250000000	-14.3526005451
1.4300000000	-19.1201644315
1.4350000000	8.4279038393
1.4400000000	10.8574450981
1.4450000000	6.4565383251
1.4500000000	3.9790075294
1.4550000000	2.7267595936
1.4600000000	2.0295271083
1.4650000000	1.5499164424
1.4700000000	1.1375629280
1.4750000000	1.1278161071
1.4800000000	1.3016886813
1.4850000000	1.1924610831
1.4900000000	1.0854659590
1.4950000000	1.0131670715
1.5000000000	0.9636516202
1.5050000000	0.9308535425
1.5100000000	0.9090504887
1.5150000000	0.8994441428
1.5200000000	0.8938197551
1.5250000000	0.8964923684
1.5300000000	0.9089503538
1.5350000000	0.9346964716
1.5400000000	0.9812029828
1.5450000000	1.0646218090
1.5500000000	1.2209798149
1.5550000000	1.5221882313
1.5600000000	1.9768536925
1.5650000000	2.0443420915
1.5700000000	1.6152455683
1.5750000000	1.3056286136
1.5800000000	1.1594564875
1.5850000000	1.0970396267
1.5900000000	1.0764653222
1.5950000000	1.0792879311
1.6000000000	1.0971966324
1.6050000000	1.1267570133
1.6100000000	1.1656528207
1.6150000000	1.2130583334
1.6200000000	1.2694642243
1.6250000000	1.3352789273
1.6300000000	1.4114662083
1.6350000000	1.4993777792
1.6400000000	1.6007819566
1.6450000000	1.7179829182
1.6500000000	1.8538901770
1.6550000000	2.0122019974
1.6600000000	2.1977126841
1.6650000000	2.4165971969
1.6700000000	2.6746051356
1.6750000000	2.9868129650
1.6800000000	3.3658612762
1.6850000000	3.8318507790
1.6900000000	4.4130960738
1.6950000000	5.1507764153
1.7000000000	6.1061664626
1.7050000000	7.4131384093
1.7100000000	9.2167228012
1.7150000000	11.8020506822
1.7200000000	15.6770628057
1.7250000000	21.7318296037
1.7300000000	31.0826230410
1.7350000000	44.0738532381
1.7400000000	62.5431591176
1.7450000000	94.6220475826
1.7500000000	135.2912728470
1.7550000000	137.8579878364
1.7600000000	96.5733367873
1.7650000000	59.9552217882
1.7700000000	38.2584251089
1.7750000000	25.9191852876
1.7800000000	18.6043884511
1.7850000000	14.0552266348
1.7900000000	11.1410951297
1.7950000000	9.3010489713
1.8000000000	8.2471764662
1.8050000000	7.6023478560
1.8100000000	6.6410738709
1.8150000000	5.3181904280
1.8200000000	4.2644356277
1.8250000000	3.6504595716
1.8300000000	3.1984655995
1.8350000000	2.8071584897
1.8400000000	2.4852845270
1.8450000000	2.2236478194
1.8500000000	2.0075320436
1.8550000000	1.8248738138
1.8600000000	1.6516812265
1.8650000000	1.5023189345
1.8700000000	1.3464793575
1.8750000000	1.1158511548
1.8800000000	0.5894778264
1.8850000000	-0.5573105946
1.8900000000	-2.0941949037
1.8950000000	-2.3430975223
1.9000000000	0.1765948225
1.9050000000	2.5148837219
1.9100000000	2.7870572843
1.9150000000	2.3464294670
1.9200000000	1.9159599017
1.9250000000	1.6122450455
1.9300000000	1.4309150158
1.9350000000	1.2954722003
1.9400000000	1.2102817224
1.9450000000	1.1593020097
1.9500000000	1.1242658987
1.9550000000	1.0852035260
1.9600000000	1.0420066452
1.9650000000	1.0078759495
1.9700000000	0.9879504812
1.9750000000	0.9814682740
1.9800000000	0.9874134709
1.9850000000	1.0062294734
1.9900000000	1.0399426218
1.9950000000	1.0910365640
2.0000000000	1.1573459176
2.0050000000	1.2247909882
2.0100000000	1.2539076832
2.0150000000	1.2462097926
2.0200000000	1.2366897858
2.0250000000	1.2468873060
2.0300000000	1.2807412611
2.0350000000	1.3373930672
2.0400000000	1.4170465232
2.0450000000	1.5221839111
2.0500000000	1.6573251336
2.0550000000	1.8272809317
2.0600000000	2.0325087829
2.0650000000	2.2657001284
2.0700000000	2.5261202698
2.0750000000	2.8422270718
2.0800000000	3.2629077801
2.0850000000	3.8336859642
2.0900000000	4.5814459609
2.0950000000	5.4582893302
2.1000000000	6.2648453543
2.1050000000	6.7227899497
2.1100000000	6.6972438244
2.1150000000	6.4946133738
2.1200000000	6.4529972039
2.1250000000	6.7357673416
2.1300000000	7.4125771133
2.1350000000	8.5568760704
2.1400000000	10.2947171486
2.1450000000	12.8277914049
2.1500000000	16.4223048629
2.1550000000	21.2657768682
2.1600000000	26.9646594832
2.1650000000	31.7289189434
2.1700000000	32.8343508301
2.1750000000	29.3645390821
2.1800000000	23.6827726655
2.1850000000	18.2584422988
2.1900000000	14.0308275307
2.1950000000	10.9912482796
2.2000000000	8.8760210824
2.2050000000	7.4363014118
2.2100000000	6.4509105741
2.2150000000	5.6902472304
2.2200000000	4.9818557288
2.2250000000	4.2818751527
2.2300000000	3.6362183452
2.2350000000	3.0799385198
2.2400000000	2.6110506294
2.2450000000	2.2095460469
2.2500000000	1.8540834365
2.2550000000	1.5314388348
2.2600000000	1.2092145164
2.2650000000	0.9703995596
2.2700000000	0.8349720945
2.2750000000	0.8557718909
2.2800000000	1.0269202687
2.2850000000	1.2476897275
2.2900000000	1.4065635302
2.2950000000	1.4712740754
2.3000000000	1.4694437879
2.3050000000	1.4327571034
2.3100000000	1.3877946631
2.3150000000	1.3470911427
2.3200000000	1.3155158367
2.3250000000	1.2949651398
2.3300000000	1.2862986551
2.3350000000	1.2900052403
2.3400000000	1.3065301944
2.3450000000	1.3364903795
2.3500000000	1.3806800571
2.3550000000	1.4407555805
2.3600000000	1.5150252970
2.3650000000	1.6042093764
2.3700000000	1.7080200254
2.3750000000	1.8275703838
2.3800000000	1.9670798380
2.3850000000	2.1316421238
2.3900000000	2.3226526912
2.3950000000	2.5325310359
2.4000000000	2.7412635403
2.4050000000	2.9289001346
2.4100000000	3.0476204392
2.4150000000	3.0883494200
2.4200000000	3.0734144766
2.4250000000	3.0414080193
2.4300000000	3.0273192962
2.4350000000	3.0531444408
2.4400000000	3.1287049768
2.4450000000	3.2572377012
2.4500000000	3.4415319377
2.4550000000	3.6872421818
2.4600000000	4.0080454739
2.4650000000	4.4175323185
2.4700000000	4.9294848776
2.4750000000	5.5514749634
2.4800000000	6.2769873815
2.4850000000	7.0744851669
2.4900000000	7.8748240300
2.4950000000	8.5651394205
2.5000000000	9.0054637722
2.5050000000	9.0520458972
2.5100000000	8.6499427127
2.5150000000	7.9080328197
2.5200000000	6.9975277974
2.5250000000	6.0679054196
2.5300000000	5.2097660248
2.5350000000	4.4607855724
2.5400000000	3.8260620446
2.5450000000	3.2957715393
2.5500000000	2.8559552367
2.5550000000	2.4940845222
2.5600000000	2.1904124282
2.5650000000	1.9611406692
2.5700000000	1.7937582362
2.5750000000	1.6822887434
2.5800000000	1.6151425127
2.5850000000	1.5766939037
2.5900000000	1.5524042564
2.5950000000	1.5332771166
2.6000000000	1.5163430609
2.6050000000	1.5128465694
2.6100000000	1.5152339220
2.6150000000	1.5262014668
2.6200000000	1.5471706826
2.6250000000	1.5783523867
2.6300000000	1.6187595434
2.6350000000	1.6662134568
2.6400000000	1.7173851451
2.6450000000	1.7680776478
2.6500000000	1.8138686556
2.6550000000	1.8511539348
2.6600000000	1.8783087687
2.6650000000	1.8964541815
2.6700000000	1.9092708404
2.6750000000	1.9221518638
2.6800000000	1.9403202036
2.6850000000	1.9687772959
2.6900000000	2.0110982704
2.6950000000	2.0695934492
2.7000000000	2.1454653428
2.7050000000	2.2497729437
2.7100000000	2.3764333273
2.7150000000	2.5238402957
2.7200000000	2.6884289694
2.7250000000	2.8639706961
2.7300000000	3.0409538556
2.7350000000	3.2064992803
2.7400000000	3.3452803795
2.7450000000	3.4417792890
2.7500000000	3.4835740014
2.7550000000	3.4645550827
2.7600000000	3.3866354581
2.7650000000	3.2590941235
2.7700000000	3.0959444462
2.7750000000	2.9126062466
2.7800000000	2.7231639132
2.7850000000	2.5388278288
2.7900000000	2.3660855035
2.7950000000	2.2119924082
2.8000000000	2.0780241757
2.8050000000	1.9520825789
2.8100000000	1.8505735385
2.8150000000	1.7700756006
2.8200000000	1.7069063842
2.8250000000	1.6577291722
2.8300000000	1.6197582592
2.8350000000	1.5907416214
2.8400000000	1.5688285694
2.8450000000	1.5524851475
2.8500000000	1.5404904956
2.8550000000	1.5320119227
2.8600000000	1.5266849407
2.8650000000	1.5246463627
2.8700000000	1.5264523474
2.8750000000	1.5329183835
2.8800000000	1.5449076368
2.8850000000	1.5631438080
2.8900000000	1.5880649879
2.8950000000	1.6197308555
2.9000000000	1.6577529531
2.9050000000	1.7121703397
2.9100000000	1.7700945687
2.9150000000	1.8279166601
2.9200000000	1.8810900446
2.9250000000	1.9247655165
2.9300000000	1.9544746903
2.9350000000	1.9669315530
2.9400000000	1.9606923712
2.9450000000	1.9364427298
2.9500000000	1.8968011358
2.9550000000	1.8456859631
2.9600000000	1.7875145419
2.9650000000	1.7264630705
2.9700000000	1.6659718658
2.9750000000	1.6085304117
2.9800000000	1.5556941404
2.9850000000	1.5082458008
2.9900000000	1.4664092926
2.9950000000	1.4300597636
3.0000000000	1.3988869418
