# energy (eV)    P(omega), $W$ = 300 nm, $h$ = 300 nm, $s$ = 20 nm, $d/W = 5$, $E_{\rm e}$ = 200 keV
0.2000000000	0.0895704803
0.2050000000	0.0909140539
0.2100000000	0.0921717222
0.2150000000	0.0933462702
0.2200000000	0.0944400291
0.2250000000	0.0954549989
0.2300000000	0.0963926816
0.2350000000	0.0972540738
0.2400000000	0.0980395046
0.2450000000	0.0987486395
0.2500000000	0.0993802763
0.2550000000	0.0999321795
0.2600000000	0.1004010256
0.2650000000	0.1007819899
0.2700000000	0.1010685620
0.2750000000	0.1012521196
0.2800000000	0.1013214833
0.2850000000	0.1012623006
0.2900000000	0.1010561744
0.2950000000	0.1006797889
0.3000000000	0.1001033471
0.3050000000	0.0992888888
0.3100000000	0.0981878111
0.3150000000	0.1037501517
0.3200000000	0.1103560433
0.3250000000	0.1187100150
0.3300000000	0.1298958570
0.3350000000	0.1438198943
0.3400000000	0.1620534946
0.3450000000	0.1841721302
0.3500000000	0.2131084512
0.3550000000	0.2513987353
0.3600000000	0.3013989207
0.3650000000	0.3711087697
0.3700000000	0.4630380386
0.3750000000	0.5909278020
0.3800000000	0.7759103755
0.3850000000	1.0641723413
0.3900000000	1.5196098638
0.3950000000	2.2933045492
0.4000000000	3.7683825704
0.4050000000	7.0757895274
0.4100000000	16.1014125910
0.4150000000	51.6809094278
0.4200000000	32.9273006935
0.4250000000	-61.9997256858
0.4300000000	17.2447657116
0.4350000000	10.7481329600
0.4400000000	6.5716167862
0.4450000000	4.3232081637
0.4500000000	3.0287314906
0.4550000000	2.2320479531
0.4600000000	1.7131307135
0.4650000000	1.3594910185
0.4700000000	1.1095282425
0.4750000000	0.9287403541
0.4800000000	0.7946966085
0.4850000000	0.6938314214
0.4900000000	0.6168402100
0.4950000000	0.5574764744
0.5000000000	0.5114705989
0.5050000000	0.4756896360
0.5100000000	0.4481164415
0.5150000000	0.4272663613
0.5200000000	0.4115862389
0.5250000000	0.4003773011
0.5300000000	0.3928885941
0.5350000000	0.3885713133
0.5400000000	0.3870209179
0.5450000000	0.3878993173
0.5500000000	0.3911005092
0.5550000000	0.3964341521
0.5600000000	0.4038035671
0.5650000000	0.4131657011
0.5700000000	0.4244816577
0.5750000000	0.4378307513
0.5800000000	0.4533417515
0.5850000000	0.4710991168
0.5900000000	0.4912654563
0.5950000000	0.5140451138
0.6000000000	0.5396984260
0.6050000000	0.5686019842
0.6100000000	0.6011156567
0.6150000000	0.6377306168
0.6200000000	0.6791019496
0.6250000000	0.7258579095
0.6300000000	0.7789268097
0.6350000000	0.8394656645
0.6400000000	0.9086786228
0.6450000000	0.9883033213
0.6500000000	1.0806246532
0.6550000000	1.1880215081
0.6600000000	1.3141491549
0.6650000000	1.4636991478
0.6700000000	1.6421861931
0.6750000000	1.8580211621
0.6800000000	2.1225124950
0.6850000000	2.4504775327
0.6900000000	2.8648642292
0.6950000000	3.3977696118
0.7000000000	4.1001777963
0.7050000000	5.0500349964
0.7100000000	6.3794127967
0.7150000000	8.3234182974
0.7200000000	11.3197615813
0.7250000000	16.2937162110
0.7300000000	25.4238761917
0.7350000000	44.9606919228
0.7400000000	98.5435413846
0.7450000000	326.9462666430
0.7500000000	1012.9731616360
0.7550000000	254.8583231851
0.7600000000	84.4107526437
0.7650000000	40.4484202659
0.7700000000	23.5254389688
0.7750000000	15.3557336060
0.7800000000	10.8074195106
0.7850000000	8.0273708571
0.7900000000	6.2023318701
0.7950000000	4.9435897315
0.8000000000	4.0386872127
0.8050000000	3.3647086852
0.8100000000	2.8507411220
0.8150000000	2.4432902890
0.8200000000	2.1217075218
0.8250000000	1.8627624958
0.8300000000	1.6506383566
0.8350000000	1.4762278056
0.8400000000	1.3300157828
0.8450000000	1.2073220172
0.8500000000	1.1036087428
0.8550000000	1.0141054599
0.8600000000	0.9376988885
0.8650000000	0.8724353898
0.8700000000	0.8147679830
0.8750000000	0.7657158119
0.8800000000	0.7240970160
0.8850000000	0.6867831341
0.8900000000	0.6568584406
0.8950000000	0.6296360251
0.9000000000	0.6080696749
0.9050000000	0.5932330685
0.9100000000	0.5796379718
0.9150000000	0.5714122005
0.9200000000	0.5704716914
0.9250000000	0.5697860279
0.9300000000	0.5614706885
0.9350000000	0.5364070056
0.9400000000	0.3965632026
0.9450000000	-0.2392646270
0.9500000000	-3.5951931703
0.9550000000	-20.6183915705
0.9600000000	4.8653237707
0.9650000000	8.5474700532
0.9700000000	3.7912776704
0.9750000000	1.9903372421
0.9800000000	1.2473417493
0.9850000000	0.8998328017
0.9900000000	0.6995977594
0.9950000000	0.5781775505
1.0000000000	0.5006503069
1.0050000000	0.4515029229
1.0100000000	0.4133987717
1.0150000000	0.3855610771
1.0200000000	0.3668129471
1.0250000000	0.3510741117
1.0300000000	0.3391167564
1.0350000000	0.3300698059
1.0400000000	0.3243180933
1.0450000000	0.3195324539
1.0500000000	0.3163728174
1.0550000000	0.3146523503
1.0600000000	0.3147941922
1.0650000000	0.3156207332
1.0700000000	0.3176118741
1.0750000000	0.3207760717
1.0800000000	0.3254279887
1.0850000000	0.3313308143
1.0900000000	0.3400409170
1.0950000000	0.3503854328
1.1000000000	0.3627123172
1.1050000000	0.3769172647
1.1100000000	0.3934501860
1.1150000000	0.4126824569
1.1200000000	0.4350557112
1.1250000000	0.4611420543
1.1300000000	0.4917138079
1.1350000000	0.5277303716
1.1400000000	0.5702856522
1.1450000000	0.6213711796
1.1500000000	0.6831571645
1.1550000000	0.7587788139
1.1600000000	0.8526594717
1.1650000000	0.9705403371
1.1700000000	1.1231692676
1.1750000000	1.3248212160
1.1800000000	1.5990905635
1.1850000000	1.9847638702
1.1900000000	2.5549446099
1.1950000000	3.4499816392
1.2000000000	4.9680699974
1.2050000000	7.8368614282
1.2100000000	14.1477406323
1.2150000000	31.2067104057
1.2200000000	76.5893733783
1.2250000000	68.8183028350
1.2300000000	27.4569927160
1.2350000000	12.8819932775
1.2400000000	7.3612942444
1.2450000000	4.8266404389
1.2500000000	3.4897527608
1.2550000000	2.7185071129
1.2600000000	2.2495523538
1.2650000000	1.9562198505
1.2700000000	1.7818571417
1.2750000000	1.6897344565
1.2800000000	1.6624169217
1.2850000000	1.6923483649
1.2900000000	1.7790427721
1.2950000000	1.9270383875
1.3000000000	2.1545250186
1.3050000000	2.4848406931
1.3100000000	2.9614117714
1.3150000000	3.6593548767
1.3200000000	4.7136762206
1.3250000000	6.3817140046
1.3300000000	9.2269680301
1.3350000000	14.5560056336
1.3400000000	25.9456670678
1.3450000000	54.2211123469
1.3500000000	115.0777888119
1.3550000000	107.3310133433
1.3600000000	49.4965730299
1.3650000000	24.3196032976
1.3700000000	13.9469145349
1.3750000000	8.9689969971
1.3800000000	6.2547487497
1.3850000000	4.6197204272
1.3900000000	3.5659458463
1.3950000000	2.8470030139
1.4000000000	2.3356395284
1.4050000000	1.9600985875
1.4100000000	1.6769415150
1.4150000000	1.4602472224
1.4200000000	1.2917761206
1.4250000000	1.1668486275
1.4300000000	1.0884407486
1.4350000000	1.0384202753
1.4400000000	0.7180512104
1.4450000000	-0.1721591850
1.4500000000	-1.7173399486
1.4550000000	-0.5706859269
1.4600000000	1.7580448408
1.4650000000	1.0153407815
1.4700000000	-0.6615998222
1.4750000000	-3.3192918526
1.4800000000	-1.4654424821
1.4850000000	2.5039375143
1.4900000000	2.0270242305
1.4950000000	1.3147400431
1.5000000000	0.9253341561
1.5050000000	0.7145494766
1.5100000000	0.5938859443
1.5150000000	0.5199023435
1.5200000000	0.4714360739
1.5250000000	0.4406557375
1.5300000000	0.4163889864
1.5350000000	0.3987387268
1.5400000000	0.3859240641
1.5450000000	0.3768810289
1.5500000000	0.3708689376
1.5550000000	0.3675742061
1.5600000000	0.3676134486
1.5650000000	0.3696920213
1.5700000000	0.3751341000
1.5750000000	0.3849484661
1.5800000000	0.4011554829
1.5850000000	0.4277392187
1.5900000000	0.4731344014
1.5950000000	0.5559960696
1.6000000000	0.7156691503
1.6050000000	0.9778384238
1.6100000000	1.1007319054
1.6150000000	0.8809316972
1.6200000000	0.6769417703
1.6250000000	0.5735184677
1.6300000000	0.5264298920
1.6350000000	0.5074948673
1.6400000000	0.5039475869
1.6450000000	0.5099543453
1.6500000000	0.5226785136
1.6550000000	0.5409761563
1.6600000000	0.5642677337
1.6650000000	0.5924971918
1.6700000000	0.6259149558
1.6750000000	0.6650122214
1.6800000000	0.7104967200
1.6850000000	0.7633106411
1.6900000000	0.8245425157
1.6950000000	0.8948194638
1.7000000000	0.9756829866
1.7050000000	1.0691902554
1.7100000000	1.1825382272
1.7150000000	1.3734763188
1.7200000000	1.6619729229
1.7250000000	1.9731727682
1.7300000000	2.3428623767
1.7350000000	2.7430531736
1.7400000000	3.1130602678
1.7450000000	3.5795542636
1.7500000000	4.2943516193
1.7550000000	5.3662235947
1.7600000000	6.9742538420
1.7650000000	9.4549952102
1.7700000000	13.4512190037
1.7750000000	20.1821674885
1.7800000000	31.6464353680
1.7850000000	48.5410361348
1.7900000000	60.2858923841
1.7950000000	51.2957188655
1.8000000000	34.1072291754
1.8050000000	21.5153519789
1.8100000000	14.1664950785
1.8150000000	9.8601099933
1.8200000000	7.2100576292
1.8250000000	5.4916907835
1.8300000000	4.3243317710
1.8350000000	3.4994706417
1.8400000000	2.8974269623
1.8450000000	2.4455114787
1.8500000000	2.0978646355
1.8550000000	1.8257333357
1.8600000000	1.6088975557
1.8650000000	1.4334587143
1.8700000000	1.2892920982
1.8750000000	1.1686358346
1.8800000000	1.0648874031
1.8850000000	0.9716144825
1.8900000000	0.8808620758
1.8950000000	0.7805785020
1.9000000000	0.6503399767
1.9050000000	0.4234542526
1.9100000000	0.0977156309
1.9150000000	-0.2149646468
1.9200000000	0.1694579550
1.9250000000	1.6972795661
1.9300000000	2.9177186611
1.9350000000	2.9439251058
1.9400000000	2.3624911873
1.9450000000	1.7897576279
1.9500000000	1.3838792550
1.9550000000	1.1154497443
1.9600000000	0.9365959667
1.9650000000	0.8174104448
1.9700000000	0.7297033484
1.9750000000	0.6653905831
1.9800000000	0.6165740927
1.9850000000	0.5775895199
1.9900000000	0.5442183299
1.9950000000	0.5128834141
2.0000000000	0.4829442304
2.0050000000	0.4651227735
2.0100000000	0.4770811225
2.0150000000	0.5082776736
2.0200000000	0.5293153637
2.0250000000	0.5383922285
2.0300000000	0.5452563230
2.0350000000	0.5544186608
2.0400000000	0.5680604376
2.0450000000	0.5870970534
2.0500000000	0.6124537482
2.0550000000	0.6450502402
2.0600000000	0.6849411029
2.0650000000	0.7289741679
2.0700000000	0.7692983879
2.0750000000	0.7997882362
2.0800000000	0.8250187645
2.0850000000	0.8549191284
2.0900000000	0.8958142033
2.0950000000	0.9499097954
2.1000000000	1.0189181159
2.1050000000	1.1018186794
2.1100000000	1.2043859628
2.1150000000	1.3307646192
2.1200000000	1.4869065730
2.1250000000	1.6812561085
2.1300000000	1.9257728779
2.1350000000	2.2375691869
2.1400000000	2.6413569173
2.1450000000	3.1732563039
2.1500000000	3.8858710839
2.1550000000	4.8536017141
2.1600000000	6.1716448434
2.1650000000	7.9206888946
2.1700000000	10.0700190850
2.1750000000	12.2133215786
2.1800000000	13.5594412375
2.1850000000	13.6856617009
2.1900000000	13.1745476004
2.1950000000	12.8118469370
2.2000000000	12.6852677897
2.2050000000	12.0900302980
2.2100000000	10.7244329457
2.2150000000	9.0062308678
2.2200000000	7.4435138107
2.2250000000	6.1769165566
2.2300000000	5.1362363108
2.2350000000	4.2644308617
2.2400000000	3.5481689250
2.2450000000	2.9824615855
2.2500000000	2.5440905526
2.2550000000	2.2048971260
2.2600000000	1.9387715373
2.2650000000	1.7221518241
2.2700000000	1.5327093418
2.2750000000	1.3515437734
2.2800000000	1.1742152257
2.2850000000	1.0223551876
2.2900000000	0.9328782246
2.2950000000	0.9223795136
2.3000000000	0.9624549287
2.3050000000	1.0047508866
2.3100000000	1.0196283431
2.3150000000	1.0080045602
2.3200000000	0.9826858374
2.3250000000	0.9568373959
2.3300000000	0.9374492097
2.3350000000	0.9265576043
2.3400000000	0.9226216885
2.3450000000	0.9211650508
2.3500000000	0.9164234724
2.3550000000	0.9047144294
2.3600000000	0.8870567044
2.3650000000	0.8679423863
2.3700000000	0.8519381133
2.3750000000	0.8415839032
2.3800000000	0.8372917350
2.3850000000	0.8380490107
2.3900000000	0.8425611612
2.3950000000	0.8495848665
2.4000000000	0.8597377795
2.4050000000	0.8756520168
2.4100000000	0.8984378171
2.4150000000	0.9296365404
2.4200000000	0.9703140935
2.4250000000	1.0216142979
2.4300000000	1.0849433047
2.4350000000	1.1621042848
2.4400000000	1.2554167161
2.4450000000	1.3678540098
2.4500000000	1.5031842136
2.4550000000	1.6661637732
2.4600000000	1.8626362095
2.4650000000	2.0996507273
2.4700000000	2.3853125781
2.4750000000	2.7277967412
2.4800000000	3.1357222301
2.4850000000	3.6126621754
2.4900000000	4.1541332287
2.4950000000	4.7403715929
2.5000000000	5.3287395934
2.5050000000	5.8740314978
2.5100000000	6.2315910966
2.5150000000	6.3202721610
2.5200000000	6.1264936240
2.5250000000	5.7103434695
2.5300000000	5.1673281983
2.5350000000	4.5841131400
2.5400000000	4.0179088828
2.5450000000	3.4985785426
2.5500000000	3.0381530968
2.5550000000	2.6387010770
2.5600000000	2.2945255074
2.5650000000	2.0043721950
2.5700000000	1.7620789815
2.5750000000	1.5639234666
2.5800000000	1.4070612360
2.5850000000	1.2881347828
2.5900000000	1.2012740247
2.5950000000	1.1380534323
2.6000000000	1.0896642155
2.6050000000	1.0551331970
2.6100000000	1.0245186737
2.6150000000	0.9974106460
2.6200000000	0.9744460262
2.6250000000	0.9562788408
2.6300000000	0.9433290334
2.6350000000	0.9357993641
2.6400000000	0.9337951559
2.6450000000	0.9374233387
2.6500000000	0.9469037235
2.6550000000	0.9622845704
2.6600000000	0.9839030279
2.6650000000	1.0120802004
2.6700000000	1.0471933033
2.6750000000	1.0896845882
2.6800000000	1.1400273016
2.6850000000	1.1987030769
2.6900000000	1.2661384725
2.6950000000	1.3426597200
2.7000000000	1.4283844267
2.7050000000	1.5333408932
2.7100000000	1.6495443393
2.7150000000	1.7755742383
2.7200000000	1.9090445114
2.7250000000	2.0465644903
2.7300000000	2.1837482023
2.7350000000	2.3152311676
2.7400000000	2.4346347961
2.7450000000	2.5355964360
2.7500000000	2.6086649241
2.7550000000	2.6475845447
2.7600000000	2.6476309989
2.7650000000	2.6077629077
2.7700000000	2.5311538543
2.7750000000	2.4246568901
2.7800000000	2.2973180369
2.7850000000	2.1587595855
2.7900000000	2.0176026288
2.7950000000	1.8807583209
2.8000000000	1.7531173466
2.8050000000	1.6234604707
2.8100000000	1.5118467163
2.8150000000	1.4180276548
2.8200000000	1.3405390912
2.8250000000	1.2774334200
2.8300000000	1.2267458794
2.8350000000	1.1868050202
2.8400000000	1.1558312607
2.8450000000	1.1339349438
2.8500000000	1.1198075414
2.8550000000	1.1129552904
2.8600000000	1.1130137160
2.8650000000	1.1196715936
2.8700000000	1.1326276175
2.8750000000	1.1515369592
2.8800000000	1.1759764211
2.8850000000	1.2054118697
2.8900000000	1.2392078260
2.8950000000	1.2766064175
2.9000000000	1.3167794773
2.9050000000	1.3675650945
2.9100000000	1.4183143044
2.9150000000	1.4672158077
2.9200000000	1.5121924769
2.9250000000	1.5508454575
2.9300000000	1.5809424968
2.9350000000	1.5993472590
2.9400000000	1.6045684667
2.9450000000	1.5958762237
2.9500000000	1.5738651605
2.9550000000	1.5404087834
2.9600000000	1.4982914035
2.9650000000	1.4507177133
2.9700000000	1.4008254784
2.9750000000	1.3513179817
2.9800000000	1.3042861832
2.9850000000	1.2611753079
2.9900000000	1.2228772520
2.9950000000	1.1898226107
3.0000000000	1.1621370956
