# energy (eV)    P(omega), $W$ = 300 nm, $h$ = 300 nm, $s$ = 20 nm, $d/W = 5$, $E_{\rm e}$ = 200 keV
0.2000000000	0.1938515711
0.2050000000	0.1966366150
0.2100000000	0.1992544165
0.2150000000	0.2017102066
0.2200000000	0.2040084951
0.2250000000	0.2061530114
0.2300000000	0.2081464958
0.2350000000	0.2099906614
0.2400000000	0.2116859992
0.2450000000	0.2132313613
0.2500000000	0.2146241934
0.2550000000	0.2158595840
0.2600000000	0.2169303574
0.2650000000	0.2178265065
0.2700000000	0.2185343151
0.2750000000	0.2190358264
0.2800000000	0.2193077647
0.2850000000	0.2193203674
0.2900000000	0.2190353964
0.2950000000	0.2184046385
0.3000000000	0.2173660031
0.3050000000	0.2158410512
0.3100000000	0.2137290818
0.3150000000	0.2252462965
0.3200000000	0.2389265629
0.3250000000	0.2562200740
0.3300000000	0.2793618227
0.3350000000	0.3081767381
0.3400000000	0.3459142395
0.3450000000	0.3917264292
0.3500000000	0.4516816678
0.3550000000	0.5310529751
0.3600000000	0.6347648531
0.3650000000	0.7794180818
0.3700000000	0.9703398002
0.3750000000	1.2361201704
0.3800000000	1.6207888320
0.3850000000	2.2205418192
0.3900000000	3.1687338936
0.3950000000	4.7805263367
0.4000000000	7.8552283381
0.4050000000	14.7532112008
0.4100000000	33.5886570591
0.4150000000	107.8835186982
0.4200000000	68.6708705942
0.4250000000	-129.6272721587
0.4300000000	36.1225357624
0.4350000000	22.5387973341
0.4400000000	13.7987353898
0.4450000000	9.0907852705
0.4500000000	6.3787698977
0.4550000000	4.7088110726
0.4600000000	3.6205597879
0.4650000000	2.8785996542
0.4700000000	2.3539570571
0.4750000000	1.9744023444
0.4800000000	1.6929347199
0.4850000000	1.4811355269
0.4900000000	1.3195006682
0.4950000000	1.1949313094
0.5000000000	1.0984766398
0.5050000000	1.0235616982
0.5100000000	0.9659613400
0.5150000000	0.9225665913
0.5200000000	0.8901086383
0.5250000000	0.8671314949
0.5300000000	0.8520595345
0.5350000000	0.8437436047
0.5400000000	0.8413379269
0.5450000000	0.8441363806
0.5500000000	0.8519285772
0.5550000000	0.8643206147
0.5600000000	0.8811205121
0.5650000000	0.9022471696
0.5700000000	0.9276319331
0.5750000000	0.9574564042
0.5800000000	0.9920158377
0.5850000000	1.0315041941
0.5900000000	1.0762906056
0.5950000000	1.1268328324
0.6000000000	1.1837132612
0.6050000000	1.2477667577
0.6100000000	1.3197975195
0.6150000000	1.4008969980
0.6200000000	1.4925220311
0.6250000000	1.5960675094
0.6300000000	1.7135950976
0.6350000000	1.8476745961
0.6400000000	2.0009809381
0.6450000000	2.1773733579
0.6500000000	2.3819276622
0.6550000000	2.6199288221
0.6600000000	2.8994965016
0.6650000000	3.2310571231
0.6700000000	3.6268687346
0.6750000000	4.1056160806
0.6800000000	4.6924563549
0.6850000000	5.4203211547
0.6900000000	6.3402574219
0.6950000000	7.5236346599
0.7000000000	9.0838902585
0.7050000000	11.1944348462
0.7100000000	14.1491826373
0.7150000000	18.4714006780
0.7200000000	25.1354617581
0.7250000000	36.2014421804
0.7300000000	56.5208173067
0.7350000000	100.0150081868
0.7400000000	219.3464139690
0.7450000000	728.2060090238
0.7500000000	2257.6469207896
0.7550000000	568.3846426468
0.7600000000	188.3786512909
0.7650000000	90.3297146794
0.7700000000	52.5735387134
0.7750000000	34.3403936036
0.7800000000	24.1861445000
0.7850000000	17.9776407663
0.7900000000	13.9006359086
0.7950000000	11.0878104689
0.8000000000	9.0650854234
0.8050000000	7.5580995251
0.8100000000	6.4085482875
0.8150000000	5.4969242137
0.8200000000	4.7772216693
0.8250000000	4.1975637467
0.8300000000	3.7225752088
0.8350000000	3.3319617271
0.8400000000	3.0044375530
0.8450000000	2.7295429819
0.8500000000	2.4971586955
0.8550000000	2.2965650381
0.8600000000	2.1253218984
0.8650000000	1.9790854525
0.8700000000	1.8498348088
0.8750000000	1.7399458775
0.8800000000	1.6467866463
0.8850000000	1.5632555045
0.8900000000	1.4964261410
0.8950000000	1.4356248112
0.9000000000	1.3876306451
0.9050000000	1.3549421849
0.9100000000	1.3250042482
0.9150000000	1.3072913527
0.9200000000	1.3062354083
0.9250000000	1.3056777493
0.9300000000	1.2874162415
0.9350000000	1.2302487170
0.9400000000	0.9075558171
0.9450000000	-0.5628945231
0.9500000000	-8.3307717156
0.9550000000	-47.7587522126
0.9600000000	11.2805358134
0.9650000000	19.8267249238
0.9700000000	8.7998151390
0.9750000000	4.6217741796
0.9800000000	2.8972250703
0.9850000000	2.0904260230
0.9900000000	1.6253306031
0.9950000000	1.3432138520
1.0000000000	1.1630480856
1.0050000000	1.0488761806
1.0100000000	0.9602656816
1.0150000000	0.8954923121
1.0200000000	0.8518832255
1.0250000000	0.8151846348
1.0300000000	0.7872435795
1.0350000000	0.7660308012
1.0400000000	0.7524814924
1.0450000000	0.7410900642
1.0500000000	0.7334245807
1.0550000000	0.7290460001
1.0600000000	0.7289670182
1.0650000000	0.7303697688
1.0700000000	0.7343920699
1.0750000000	0.7410472616
1.0800000000	0.7510811444
1.0850000000	0.7638372708
1.0900000000	0.7828502281
1.0950000000	0.8054605478
1.1000000000	0.8324618152
1.1050000000	0.8635078388
1.1100000000	0.8996125253
1.1150000000	0.9415760756
1.1200000000	0.9903801985
1.1250000000	1.0471460056
1.1300000000	1.1135669176
1.1350000000	1.1916882012
1.1400000000	1.2838771098
1.1450000000	1.3942831851
1.1500000000	1.5275611012
1.1550000000	1.6903730641
1.1600000000	1.8921167023
1.1650000000	2.1450218085
1.1700000000	2.4718154770
1.1750000000	2.9028284564
1.1800000000	3.4881306655
1.1850000000	4.3099760202
1.1900000000	5.5236148544
1.1950000000	7.4266119806
1.2000000000	10.6517931920
1.2050000000	16.7434089869
1.2100000000	30.1405918802
1.2150000000	66.3575719834
1.2200000000	162.7483013100
1.2250000000	146.3625312936
1.2300000000	58.5555924876
1.2350000000	27.6075872206
1.2400000000	15.8912350253
1.2450000000	10.5218249312
1.2500000000	7.7008469180
1.2550000000	6.0858708440
1.2600000000	5.1180129402
1.2650000000	4.5288444926
1.2700000000	4.1997488799
1.2750000000	4.0541982534
1.2800000000	4.0575807290
1.2850000000	4.1971967044
1.2900000000	4.4768315686
1.2950000000	4.9124151471
1.3000000000	5.5540196348
1.3050000000	6.4668259837
1.3100000000	7.7687391724
1.3150000000	9.6629013291
1.3200000000	12.5130176750
1.3250000000	17.0136435719
1.3300000000	24.6807537326
1.3350000000	39.0341933385
1.3400000000	69.7094531445
1.3450000000	145.8780729467
1.3500000000	309.8953476074
1.3550000000	289.2090620227
1.3600000000	133.4187963464
1.3650000000	65.5631784083
1.3700000000	37.5996542869
1.3750000000	24.1777068293
1.3800000000	16.8590635392
1.3850000000	12.4511195066
1.3900000000	9.6116383953
1.3950000000	7.6756028000
1.4000000000	6.3007890823
1.4050000000	5.2940659772
1.4100000000	4.5396175261
1.4150000000	3.9703137287
1.4200000000	3.5421619107
1.4250000000	3.2553165239
1.4300000000	3.1500567280
1.4350000000	3.2079992159
1.4400000000	2.4702934696
1.4450000000	0.2113756951
1.4500000000	-3.4567093300
1.4550000000	-0.9698447436
1.4600000000	4.1834704843
1.4650000000	2.2653819875
1.4700000000	-2.1370567850
1.4750000000	-9.3560652997
1.4800000000	-4.1639571770
1.4850000000	6.8445867816
1.4900000000	5.5482322152
1.4950000000	3.5912391133
1.5000000000	2.5232866428
1.5050000000	1.9482245078
1.5100000000	1.6204530391
1.5150000000	1.4213931313
1.5200000000	1.2927997852
1.5250000000	1.2128971079
1.5300000000	1.1518562798
1.5350000000	1.1097761254
1.5400000000	1.0820512635
1.5450000000	1.0662100559
1.5500000000	1.0606566484
1.5550000000	1.0654297187
1.5600000000	1.0833682961
1.5650000000	1.1130095069
1.5700000000	1.1610154377
1.5750000000	1.2355090292
1.5800000000	1.3517429191
1.5850000000	1.5394074789
1.5900000000	1.8610559114
1.5950000000	2.4551135043
1.6000000000	3.6139735114
1.6050000000	5.5300870900
1.6100000000	6.4174815359
1.6150000000	4.7539439076
1.6200000000	3.1933836412
1.6250000000	2.3696511867
1.6300000000	1.9560834457
1.6350000000	1.7431951602
1.6400000000	1.6353247448
1.6450000000	1.5880114087
1.6500000000	1.5789912235
1.6550000000	1.5978354288
1.6600000000	1.6383207364
1.6650000000	1.6976064586
1.6700000000	1.7746141598
1.6750000000	1.8693528348
1.6800000000	1.9826715409
1.6850000000	2.1158863712
1.6900000000	2.2701626510
1.6950000000	2.4433178834
1.7000000000	2.6324624649
1.7050000000	2.8263693373
1.7100000000	3.0476726358
1.7150000000	3.5970889965
1.7200000000	4.5607494769
1.7250000000	5.4439917728
1.7300000000	6.3921122218
1.7350000000	7.4338576935
1.7400000000	8.4558998916
1.7450000000	9.7685940897
1.7500000000	11.7537831858
1.7550000000	14.7085896574
1.7600000000	19.1295590205
1.7650000000	25.9445350807
1.7700000000	36.9222651970
1.7750000000	55.4168722218
1.7800000000	86.9312774332
1.7850000000	133.4075629950
1.7900000000	165.7895384502
1.7950000000	141.1727134024
1.8000000000	93.9541626516
1.8050000000	59.3340396668
1.8100000000	39.1202215897
1.8150000000	27.2721175063
1.8200000000	19.9806348374
1.8250000000	15.2535422565
1.8300000000	12.0440072969
1.8350000000	9.7785793440
1.8400000000	8.1281026283
1.8450000000	6.8929042572
1.8500000000	5.9471460359
1.8550000000	5.2120874359
1.8600000000	4.6327989040
1.8650000000	4.1719482793
1.8700000000	3.8029826977
1.8750000000	3.5064059447
1.8800000000	3.2667505639
1.8850000000	3.0703453405
1.8900000000	2.9014336281
1.8950000000	2.7365017274
1.9000000000	2.5349485110
1.9050000000	2.1535207993
1.9100000000	1.6284917891
1.9150000000	1.3495229792
1.9200000000	3.3045711437
1.9250000000	8.7109990225
1.9300000000	12.9987166602
1.9350000000	12.7992254718
1.9400000000	10.0672347805
1.9450000000	7.4184355705
1.9500000000	5.5586513221
1.9550000000	4.3400471612
1.9600000000	3.5347460632
1.9650000000	2.9957482624
1.9700000000	2.6066237296
1.9750000000	2.3213806393
1.9800000000	2.1036110181
1.9850000000	1.9269004885
1.9900000000	1.7710376546
1.9950000000	1.6183837849
2.0000000000	1.4663665625
2.0050000000	1.3692567609
2.0100000000	1.4249079635
2.0150000000	1.5782014701
2.0200000000	1.6727358374
2.0250000000	1.6978762628
2.0300000000	1.7035754831
2.0350000000	1.7139165468
2.0400000000	1.7378513978
2.0450000000	1.7776649620
2.0500000000	1.8348417847
2.0550000000	1.9107305781
2.0600000000	2.0053326795
2.0650000000	2.1129126844
2.0700000000	2.2192468059
2.0750000000	2.3136737085
2.0800000000	2.4055945988
2.0850000000	2.5144554351
2.0900000000	2.6532886520
2.0950000000	2.8275791807
2.1000000000	3.0432223779
2.1050000000	3.2982625904
2.1100000000	3.6106240220
2.1150000000	3.9934089906
2.1200000000	4.4649932154
2.1250000000	5.0511522685
2.1300000000	5.7882197057
2.1350000000	6.7280693833
2.1400000000	7.9456049324
2.1450000000	9.5503364663
2.1500000000	11.7018237994
2.1550000000	14.6258871253
2.1600000000	18.6115409416
2.1650000000	23.9035436889
2.1700000000	30.4039942241
2.1750000000	36.8668466891
2.1800000000	40.8602368842
2.1850000000	41.0681613284
2.1900000000	39.2532372526
2.1950000000	37.8411875082
2.2000000000	37.2152632817
2.2050000000	35.4746781468
2.2100000000	31.7785257980
2.2150000000	27.2337970894
2.2200000000	23.1537841431
2.2250000000	19.7820228349
2.2300000000	16.8136766106
2.2350000000	14.1304707616
2.2400000000	11.8260024112
2.2450000000	9.9821983857
2.2500000000	8.5687293572
2.2550000000	7.5068410480
2.2600000000	6.7116667707
2.2650000000	6.0981828494
2.2700000000	5.5745011615
2.2750000000	5.0501142716
2.2800000000	4.4856870594
2.2850000000	3.9487273775
2.2900000000	3.5777855405
2.2950000000	3.4512551351
2.3000000000	3.4967938829
2.3050000000	3.5661701368
2.3100000000	3.5720968670
2.3150000000	3.5152885399
2.3200000000	3.4335300800
2.3250000000	3.3658482372
2.3300000000	3.3322136571
2.3350000000	3.3360631027
2.3400000000	3.3662275868
2.3450000000	3.3974219112
2.3500000000	3.3978060419
2.3550000000	3.3470663357
2.3600000000	3.2509516740
2.3650000000	3.1345827304
2.3700000000	3.0238528982
2.3750000000	2.9342255297
2.3800000000	2.8707204053
2.3850000000	2.8319104147
2.3900000000	2.8145496856
2.3950000000	2.8148802621
2.4000000000	2.8339278249
2.4050000000	2.8779607722
2.4100000000	2.9490821391
2.4150000000	3.0502026551
2.4200000000	3.1830727725
2.4250000000	3.3507508186
2.4300000000	3.5576950157
2.4350000000	3.8098855878
2.4400000000	4.1150395635
2.4450000000	4.4830099455
2.4500000000	4.9262284235
2.4550000000	5.4603202672
2.4600000000	6.1044834264
2.4650000000	6.8817517567
2.4700000000	7.8185427363
2.4750000000	8.9413192405
2.4800000000	10.2774124101
2.4850000000	11.8376431264
2.4900000000	13.6067633716
2.4950000000	15.5214613238
2.5000000000	17.4478363818
2.5050000000	19.2498448149
2.5100000000	20.4671573265
2.5150000000	20.8342862267
2.5200000000	20.2880016998
2.5250000000	18.9969375963
2.5300000000	17.2548172478
2.5350000000	15.3448890957
2.5400000000	13.4672350977
2.5450000000	11.7348871527
2.5500000000	10.1980993377
2.5550000000	8.8683071427
2.5600000000	7.7272253853
2.5650000000	6.7678594220
2.5700000000	5.9676270514
2.5750000000	5.3123922000
2.5800000000	4.7915956266
2.5850000000	4.3937568434
2.5900000000	4.0999916588
2.5950000000	3.8837494666
2.6000000000	3.7173851972
2.6050000000	3.5991520738
2.6100000000	3.4967729324
2.6150000000	3.4086253217
2.6200000000	3.3364514396
2.6250000000	3.2821810342
2.6300000000	3.2471024494
2.6350000000	3.2318731732
2.6400000000	3.2368746905
2.6450000000	3.2624624740
2.6500000000	3.3093318409
2.6550000000	3.3776775045
2.6600000000	3.4685489735
2.6650000000	3.5830063161
2.6700000000	3.7223516176
2.6750000000	3.8881629133
2.6800000000	4.0821887771
2.6850000000	4.3062181563
2.6900000000	4.5617165804
2.6950000000	4.8495347701
2.7000000000	5.1693825403
2.7050000000	5.5576397231
2.7100000000	5.9813806448
2.7150000000	6.4323596068
2.7200000000	6.8985818771
2.7250000000	7.3649762018
2.7300000000	7.8145329097
2.7350000000	8.2292825859
2.7400000000	8.5905318241
2.7450000000	8.8816822105
2.7500000000	9.0769899072
2.7550000000	9.1608663132
2.7600000000	9.1214832964
2.7650000000	8.9574619222
2.7700000000	8.6797980378
2.7750000000	8.3105257083
2.7800000000	7.8783655410
2.7850000000	7.4137865966
2.7900000000	6.9441266720
2.7950000000	6.4913082765
2.8000000000	6.0708326998
2.8050000000	5.6454068596
2.8100000000	5.2812939953
2.8150000000	4.9775176027
2.8200000000	4.7291880867
2.8250000000	4.5298606821
2.8300000000	4.3730433184
2.8350000000	4.2531802700
2.8400000000	4.1644226620
2.8450000000	4.1069743862
2.8500000000	4.0765848006
2.8550000000	4.0716343747
2.8600000000	4.0909137598
2.8650000000	4.1333335981
2.8700000000	4.1976757075
2.8750000000	4.2823947741
2.8800000000	4.3854650998
2.8850000000	4.5042522780
2.8900000000	4.6355897252
2.8950000000	4.7758957853
2.9000000000	4.9214036250
2.9050000000	5.0962765239
2.9100000000	5.2640489413
2.9150000000	5.4194420337
2.9200000000	5.5569146112
2.9250000000	5.6701787588
2.9300000000	5.7534446983
2.9350000000	5.7977106307
2.9400000000	5.7990903068
2.9450000000	5.7559277622
2.9500000000	5.6707138879
2.9550000000	5.5499265695
2.9600000000	5.4029165454
2.9650000000	5.2402791891
2.9700000000	5.0722605218
2.9750000000	4.9076169930
2.9800000000	4.7530581215
2.9850000000	4.6131618874
2.9900000000	4.4906818231
2.9950000000	4.3869106911
3.0000000000	4.3021207254
