# energy (eV)    P(omega), $W$ = 300 nm, $h$ = 300 nm, $s$ = 20 nm, $d/W = 5$, $E_{\rm e}$ = 200 keV
0.2000000000	0.1866148130
0.2050000000	0.1894577161
0.2100000000	0.1921000096
0.2150000000	0.1945483766
0.2200000000	0.1968088410
0.2250000000	0.1988863700
0.2300000000	0.2007849262
0.2350000000	0.2025072688
0.2400000000	0.2040547938
0.2450000000	0.2054272887
0.2500000000	0.2066227433
0.2550000000	0.2076368416
0.2600000000	0.2084628820
0.2650000000	0.2090909072
0.2700000000	0.2095073831
0.2750000000	0.2096941995
0.2800000000	0.2096277315
0.2850000000	0.2092774989
0.2900000000	0.2086045133
0.2950000000	0.2075591016
0.3000000000	0.2060778679
0.3050000000	0.2040800190
0.3100000000	0.2014620736
0.3150000000	0.2133235853
0.3200000000	0.2274099087
0.3250000000	0.2452383453
0.3300000000	0.2691361367
0.3350000000	0.2988740505
0.3400000000	0.3378148617
0.3450000000	0.3850050771
0.3500000000	0.4467125603
0.3550000000	0.5283209354
0.3600000000	0.6347956241
0.3650000000	0.7831574852
0.3700000000	0.9785887955
0.3750000000	1.2502282079
0.3800000000	1.6428036199
0.3850000000	2.2541186833
0.3900000000	3.2191065380
0.3950000000	4.8570001921
0.4000000000	7.9772182547
0.4050000000	14.9678230407
0.4100000000	34.0282436279
0.4150000000	109.1011832676
0.4200000000	69.5596179381
0.4250000000	-130.5721628606
0.4300000000	36.2386409347
0.4350000000	22.5534280493
0.4400000000	13.7667510229
0.4450000000	9.0404764832
0.4500000000	6.3215343483
0.4550000000	4.6493725159
0.4600000000	3.5609436188
0.4650000000	2.8196408504
0.4700000000	2.2959412299
0.4750000000	1.9173162378
0.4800000000	1.6366525843
0.4850000000	1.4254592117
0.4900000000	1.2642076371
0.4950000000	1.1397939890
0.5000000000	1.0432597422
0.5050000000	0.9680389502
0.5100000000	0.9098965403
0.5150000000	0.8657115693
0.5200000000	0.8322421895
0.5250000000	0.8080101441
0.5300000000	0.7914436081
0.5350000000	0.7813880994
0.5400000000	0.7769913499
0.5450000000	0.7775417481
0.5500000000	0.7828001627
0.5550000000	0.7923610769
0.5600000000	0.8060084336
0.5650000000	0.8236391517
0.5700000000	0.8451537540
0.5750000000	0.8706993684
0.5800000000	0.9005139397
0.5850000000	0.9347497177
0.5900000000	0.9737119237
0.5950000000	1.0177914378
0.6000000000	1.0674842007
0.6050000000	1.1235219026
0.6100000000	1.1865933950
0.6150000000	1.2576474169
0.6200000000	1.3379504691
0.6250000000	1.4287154718
0.6300000000	1.5317389781
0.6350000000	1.6492593056
0.6400000000	1.7836025660
0.6450000000	1.9381319685
0.6500000000	2.1172659950
0.6550000000	2.3256016589
0.6600000000	2.5702106790
0.6650000000	2.8601571642
0.6700000000	3.2060956438
0.6750000000	3.6242817254
0.6800000000	4.1365649386
0.6850000000	4.7715574482
0.6900000000	5.5735717302
0.6950000000	6.6045686521
0.7000000000	7.9629561524
0.7050000000	9.7991356831
0.7100000000	12.3678963759
0.7150000000	16.1227295291
0.7200000000	21.9076640946
0.7250000000	31.5065194777
0.7300000000	49.1183539789
0.7350000000	86.7872262288
0.7400000000	190.0516855812
0.7450000000	629.9992376859
0.7500000000	1950.2099962082
0.7550000000	490.2319552799
0.7600000000	162.2253876900
0.7650000000	77.6677232207
0.7700000000	45.1329535935
0.7750000000	29.4336044991
0.7800000000	20.6971652942
0.7850000000	15.3595172447
0.7900000000	11.8569689753
0.7950000000	9.4422471063
0.8000000000	7.7070290328
0.8050000000	6.4151518065
0.8100000000	5.4303782318
0.8150000000	4.6500670584
0.8200000000	4.0344226143
0.8250000000	3.5388711860
0.8300000000	3.1330766150
0.8350000000	2.7995201059
0.8400000000	2.5199832437
0.8450000000	2.2854685627
0.8500000000	2.0872602476
0.8550000000	1.9162647984
0.8600000000	1.7702983303
0.8650000000	1.6456010000
0.8700000000	1.5354513467
0.8750000000	1.4417101226
0.8800000000	1.3621074396
0.8850000000	1.2907460233
0.8900000000	1.2333636365
0.8950000000	1.1811670877
0.9000000000	1.1396454384
0.9050000000	1.1107622418
0.9100000000	1.0842741827
0.9150000000	1.0678478571
0.9200000000	1.0650121794
0.9250000000	1.0627157298
0.9300000000	1.0464154404
0.9350000000	0.9994232240
0.9400000000	0.7411759304
0.9450000000	-0.4294075082
0.9500000000	-6.6003325683
0.9550000000	-37.8761457374
0.9600000000	8.9331984623
0.9650000000	15.6795689597
0.9700000000	6.9512051120
0.9750000000	3.6487568804
0.9800000000	2.2870858082
0.9850000000	1.6503975441
0.9900000000	1.2837248914
0.9950000000	1.0614495331
1.0000000000	0.9195447677
1.0050000000	0.8295394417
1.0100000000	0.7598310714
1.0150000000	0.7089260085
1.0200000000	0.6746175639
1.0250000000	0.6458848285
1.0300000000	0.6240945523
1.0350000000	0.6076565911
1.0400000000	0.5972401068
1.0450000000	0.5886601305
1.0500000000	0.5830946948
1.0550000000	0.5802047129
1.0600000000	0.5807392433
1.0650000000	0.5826107605
1.0700000000	0.5866760961
1.0750000000	0.5929531464
1.0800000000	0.6020075001
1.0850000000	0.6134892719
1.0900000000	0.6303171104
1.0950000000	0.6502758008
1.1000000000	0.6740140902
1.1050000000	0.7014191734
1.1100000000	0.7333316766
1.1150000000	0.7704765870
1.1200000000	0.8136865654
1.1250000000	0.8641655143
1.1300000000	0.9233905596
1.1350000000	0.9932467391
1.1400000000	1.0758506517
1.1450000000	1.1751911043
1.1500000000	1.2955030145
1.1550000000	1.4429554130
1.1600000000	1.6262523816
1.1650000000	1.8566580517
1.1700000000	2.1554116859
1.1750000000	2.5505867480
1.1800000000	3.0886359961
1.1850000000	3.8459460804
1.1900000000	4.9663143147
1.1950000000	6.7261947702
1.2000000000	9.7123839639
1.2050000000	15.3566053314
1.2100000000	27.7728043901
1.2150000000	61.3248368429
1.2200000000	150.5256178769
1.2250000000	135.1103405389
1.2300000000	53.7727722782
1.2350000000	25.1241572472
1.2400000000	14.2709630732
1.2450000000	9.2821581141
1.2500000000	6.6435276456
1.2550000000	5.1127963403
1.2600000000	4.1722233042
1.2650000000	3.5725450565
1.2700000000	3.2012032969
1.2750000000	2.9850368068
1.2800000000	2.8880744337
1.2850000000	2.8931018979
1.2900000000	2.9957177434
1.2950000000	3.2004477031
1.3000000000	3.5347769519
1.3050000000	4.0334836443
1.3100000000	4.7635954763
1.3150000000	5.8416440200
1.3200000000	7.4779844733
1.3250000000	10.0729240562
1.3300000000	14.5060206063
1.3350000000	22.8137498202
1.3400000000	40.5711888501
1.3450000000	84.6442017191
1.3500000000	179.4455923271
1.3550000000	167.2463550616
1.3600000000	77.0970277688
1.3650000000	37.8767381755
1.3700000000	21.7237390604
1.3750000000	13.9733151083
1.3800000000	9.7476278825
1.3850000000	7.2018264400
1.3900000000	5.5602971896
1.3950000000	4.4397515742
1.4000000000	3.6415365911
1.4050000000	3.0537859148
1.4100000000	2.6081458674
1.4150000000	2.2627554892
1.4200000000	1.9864662833
1.4250000000	1.7651989730
1.4300000000	1.5862585441
1.4350000000	1.4044064354
1.4400000000	0.8283412552
1.4450000000	-0.6635853237
1.4500000000	-3.3926459850
1.4550000000	-1.2318949452
1.4600000000	3.0964078055
1.4650000000	1.8839182722
1.4700000000	-0.8053392710
1.4750000000	-4.9169653234
1.4800000000	-2.1433590500
1.4850000000	3.8591129814
1.4900000000	3.1220518035
1.4950000000	2.0341676223
1.5000000000	1.4387029816
1.5050000000	1.1152269336
1.5100000000	0.9297784646
1.5150000000	0.8156309287
1.5200000000	0.7405439970
1.5250000000	0.6927454684
1.5300000000	0.6547664385
1.5350000000	0.6269628155
1.5400000000	0.6065921482
1.5450000000	0.5919785067
1.5500000000	0.5820217491
1.5550000000	0.5761640133
1.5600000000	0.5753350706
1.5650000000	0.5773861557
1.5700000000	0.5842590446
1.5750000000	0.5972655150
1.5800000000	0.6190707035
1.5850000000	0.6549250255
1.5900000000	0.7159030000
1.5950000000	0.8263406294
1.6000000000	1.0369507125
1.6050000000	1.3778629426
1.6100000000	1.5291494837
1.6150000000	1.2364792262
1.6200000000	0.9719043539
1.6250000000	0.8408156456
1.6300000000	0.7836604134
1.6350000000	0.7633989740
1.6400000000	0.7634478527
1.6450000000	0.7763087720
1.6500000000	0.7984438773
1.6550000000	0.8283801530
1.6600000000	0.8655513329
1.6650000000	0.9100329914
1.6700000000	0.9623348626
1.6750000000	1.0233384393
1.6800000000	1.0942922987
1.6850000000	1.1768578627
1.6900000000	1.2731657381
1.6950000000	1.3852426451
1.7000000000	1.5173645205
1.7050000000	1.6773306371
1.7100000000	1.8743737233
1.7150000000	2.1540193102
1.7200000000	2.5413860111
1.7250000000	3.0110491166
1.7300000000	3.6009611107
1.7350000000	4.2313641306
1.7400000000	4.7879302695
1.7450000000	5.4800319379
1.7500000000	6.5537677069
1.7550000000	8.1746214211
1.7600000000	10.6119031424
1.7650000000	14.3742805977
1.7700000000	20.4348598110
1.7750000000	30.6393709726
1.7800000000	48.0106938997
1.7850000000	73.5882936817
1.7900000000	91.3234255820
1.7950000000	77.6405471845
1.8000000000	51.5773002369
1.8050000000	32.5027797346
1.8100000000	21.3767614318
1.8150000000	14.8595613216
1.8200000000	10.8500315256
1.8250000000	8.2503809510
1.8300000000	6.4840960384
1.8350000000	5.2354677952
1.8400000000	4.3233311922
1.8450000000	3.6375631582
1.8500000000	3.1086647688
1.8550000000	2.6930350108
1.8600000000	2.3598410181
1.8650000000	2.0877762467
1.8700000000	1.8611105377
1.8750000000	1.6675103938
1.8800000000	1.4961304267
1.8850000000	1.3359709372
1.8900000000	1.1730525084
1.8950000000	0.9861184942
1.9000000000	0.7393952444
1.9050000000	0.3194656686
1.9100000000	-0.2903134119
1.9150000000	-0.9471272422
1.9200000000	-0.6539724640
1.9250000000	1.2635940630
1.9300000000	2.8038934949
1.9350000000	2.9290848687
1.9400000000	2.4146724667
1.9450000000	1.8948646330
1.9500000000	1.5210926778
1.9550000000	1.2703078124
1.9600000000	1.1011008698
1.9650000000	0.9890787134
1.9700000000	0.9042413823
1.9750000000	0.8419776296
1.9800000000	0.7950812081
1.9850000000	0.7584617090
1.9900000000	0.7284920204
1.9950000000	0.7022344048
2.0000000000	0.6789800170
2.0050000000	0.6671379207
2.0100000000	0.6780161960
2.0150000000	0.7040149510
2.0200000000	0.7244855891
2.0250000000	0.7384516837
2.0300000000	0.7533675392
2.0350000000	0.7724479396
2.0400000000	0.7981482722
2.0450000000	0.8320672724
2.0500000000	0.8761270406
2.0550000000	0.9322770329
2.0600000000	1.0006104611
2.0650000000	1.0746380021
2.0700000000	1.1382598654
2.0750000000	1.1786892084
2.0800000000	1.2046561635
2.0850000000	1.2356586953
2.0900000000	1.2837677966
2.0950000000	1.3526737484
2.1000000000	1.4443627144
2.1050000000	1.5567391780
2.1100000000	1.6976431811
2.1150000000	1.8725178621
2.1200000000	2.0894412330
2.1250000000	2.3600251225
2.1300000000	2.7008260100
2.1350000000	3.1355911159
2.1400000000	3.6986452655
2.1450000000	4.4401612573
2.1500000000	5.4331759470
2.1550000000	6.7809207234
2.1600000000	8.6153841283
2.1650000000	11.0481864198
2.1700000000	14.0370568781
2.1750000000	17.0200080233
2.1800000000	18.9061048870
2.1850000000	19.1185890664
2.1900000000	18.4695610656
2.1950000000	18.0387738614
2.2000000000	17.9148545001
2.2050000000	17.0533526018
2.2100000000	15.0164006134
2.2150000000	12.4289374837
2.2200000000	10.0614553380
2.2250000000	8.1652601182
2.2300000000	6.6728659100
2.2350000000	5.4875744044
2.2400000000	4.5472159460
2.2450000000	3.8132570620
2.2500000000	3.2408498742
2.2550000000	2.7892136832
2.2600000000	2.4243130704
2.2650000000	2.1178330864
2.2700000000	1.8459878533
2.2750000000	1.5920891535
2.2800000000	1.3573284425
2.2850000000	1.1711783227
2.2900000000	1.0772866328
2.2950000000	1.0906911195
2.3000000000	1.1683203557
2.3050000000	1.2441811234
2.3100000000	1.2769324268
2.3150000000	1.2686729188
2.3200000000	1.2375022917
2.3250000000	1.2018982050
2.3300000000	1.1718463310
2.3350000000	1.1508084883
2.3400000000	1.1380703228
2.3450000000	1.1299319016
2.3500000000	1.1214529327
2.3550000000	1.1094743429
2.3600000000	1.0948725075
2.3650000000	1.0814796730
2.3700000000	1.0730947985
2.3750000000	1.0715737877
2.3800000000	1.0765999709
2.3850000000	1.0862658775
2.3900000000	1.0984469958
2.3950000000	1.1113265491
2.4000000000	1.1259889081
2.4050000000	1.1464740924
2.4100000000	1.1748355564
2.4150000000	1.2136776271
2.4200000000	1.2647719044
2.4250000000	1.3297298088
2.4300000000	1.4103586423
2.4350000000	1.5089236787
2.4400000000	1.6283394599
2.4450000000	1.7723661447
2.4500000000	1.9457892682
2.4550000000	2.1546631880
2.4600000000	2.4064640579
2.4650000000	2.7102380897
2.4700000000	3.0764632398
2.4750000000	3.5158064837
2.4800000000	4.0398054855
2.4850000000	4.6536487249
2.4900000000	5.3522566309
2.4950000000	6.1103617231
2.5000000000	6.8718260250
2.5050000000	7.5755995115
2.5100000000	8.0302491235
2.5150000000	8.1297723844
2.5200000000	7.8604684953
2.5250000000	7.3066003877
2.5300000000	6.5963558024
2.5350000000	5.8421677035
2.5400000000	5.1152457834
2.5450000000	4.4507812256
2.5500000000	3.8619227699
2.5550000000	3.3503401755
2.5600000000	2.9086113399
2.5650000000	2.5357692740
2.5700000000	2.2243759765
2.5750000000	1.9700290512
2.5800000000	1.7692900336
2.5850000000	1.6178987642
2.5900000000	1.5081639719
2.5950000000	1.4289507686
2.6000000000	1.3686127502
2.6050000000	1.3255784971
2.6100000000	1.2869367337
2.6150000000	1.2522125027
2.6200000000	1.2222738640
2.6250000000	1.1979742756
2.6300000000	1.1798291657
2.6350000000	1.1680620397
2.6400000000	1.1627900845
2.6450000000	1.1641455263
2.6500000000	1.1724123473
2.6550000000	1.1876380062
2.6600000000	1.2102217827
2.6650000000	1.2405163095
2.6700000000	1.2789372431
2.6750000000	1.3259778509
2.6800000000	1.3821872038
2.6850000000	1.4481651222
2.6900000000	1.5244913888
2.6950000000	1.6116915960
2.7000000000	1.7101301836
2.7050000000	1.8316608710
2.7100000000	1.9678754928
2.7150000000	2.1178404644
2.7200000000	2.2795362268
2.7250000000	2.4495973430
2.7300000000	2.6230721444
2.7350000000	2.7932138916
2.7400000000	2.9513702693
2.7450000000	3.0884060871
2.7500000000	3.1910613817
2.7550000000	3.2502270320
2.7600000000	3.2590615439
2.7650000000	3.2158043784
2.7700000000	3.1243968630
2.7750000000	2.9936827563
2.7800000000	2.8353918593
2.7850000000	2.6620026346
2.7900000000	2.4846628191
2.7950000000	2.3122976272
2.8000000000	2.1512023232
2.8050000000	1.9873915405
2.8100000000	1.8459824770
2.8150000000	1.7266527364
2.8200000000	1.6275266779
2.8250000000	1.5461114824
2.8300000000	1.4799064922
2.8350000000	1.4267804782
2.8400000000	1.3844677712
2.8450000000	1.3531211285
2.8500000000	1.3310801165
2.8550000000	1.3177261211
2.8600000000	1.3126215004
2.8650000000	1.3154205439
2.8700000000	1.3258155789
2.8750000000	1.3434918048
2.8800000000	1.3680851824
2.8850000000	1.3991429530
2.8900000000	1.4361077554
2.8950000000	1.4782987600
2.9000000000	1.5249082410
2.9050000000	1.5861393119
2.9100000000	1.6490074949
2.9150000000	1.7110881347
2.9200000000	1.7694652488
2.9250000000	1.8207577363
2.9300000000	1.8617877901
2.9350000000	1.8883251291
2.9400000000	1.8982504948
2.9450000000	1.8904785087
2.9500000000	1.8656475215
2.9550000000	1.8260233145
2.9600000000	1.7750573241
2.9650000000	1.7167535998
2.9700000000	1.6550413692
2.9750000000	1.5933299094
2.9800000000	1.5342633861
2.9850000000	1.4796864219
2.9900000000	1.4307341793
2.9950000000	1.3879850060
3.0000000000	1.3516254043
