# energy (eV)    P(omega), $W$ = 300 nm, $h$ = 300 nm, $s$ = 20 nm, $d/W = 5$, $E_{\rm e}$ = 200 keV
0.2000000000	0.0523384288
0.2050000000	0.0531354366
0.2100000000	0.0538760879
0.2150000000	0.0545622647
0.2200000000	0.0551956612
0.2250000000	0.0557776761
0.2300000000	0.0563094266
0.2350000000	0.0567916903
0.2400000000	0.0572248633
0.2450000000	0.0576088901
0.2500000000	0.0579432103
0.2550000000	0.0582266175
0.2600000000	0.0584572346
0.2650000000	0.0586322713
0.2700000000	0.0587479358
0.2750000000	0.0587991496
0.2800000000	0.0587792905
0.2850000000	0.0586798112
0.2900000000	0.0584897797
0.2950000000	0.0581952663
0.3000000000	0.0577784931
0.3050000000	0.0572168037
0.3100000000	0.0564811792
0.3150000000	0.0598075508
0.3200000000	0.0637578499
0.3250000000	0.0687576636
0.3300000000	0.0754597244
0.3350000000	0.0837995994
0.3400000000	0.0947204049
0.3450000000	0.1079545085
0.3500000000	0.1252597386
0.3550000000	0.1481457824
0.3600000000	0.1780048464
0.3650000000	0.2196100900
0.3700000000	0.2744140597
0.3750000000	0.3505876312
0.3800000000	0.4606727387
0.3850000000	0.6320942759
0.3900000000	0.9026867464
0.3950000000	1.3619622263
0.4000000000	2.2368789376
0.4050000000	4.1970354325
0.4100000000	9.5414755708
0.4150000000	30.5912187534
0.4200000000	19.5040032524
0.4250000000	-36.6099850906
0.4300000000	10.1603280108
0.4350000000	6.3232177552
0.4400000000	3.8596325633
0.4450000000	2.5345112653
0.4500000000	1.7722023577
0.4550000000	1.3033845572
0.4600000000	0.9982292466
0.4650000000	0.7903973608
0.4700000000	0.6435740977
0.4750000000	0.5374243257
0.4800000000	0.4587389384
0.4850000000	0.3995299132
0.4900000000	0.3543221351
0.4950000000	0.3194417485
0.5000000000	0.2923771137
0.5050000000	0.2712873991
0.5100000000	0.2549852365
0.5150000000	0.2425955983
0.5200000000	0.2332096677
0.5250000000	0.2264129489
0.5300000000	0.2217647710
0.5350000000	0.2189414526
0.5400000000	0.2177040376
0.5450000000	0.2178530032
0.5500000000	0.2193212478
0.5550000000	0.2219950449
0.5600000000	0.2258137846
0.5650000000	0.2307484969
0.5700000000	0.2367712411
0.5750000000	0.2439231693
0.5800000000	0.2522708775
0.5850000000	0.2618569396
0.5900000000	0.2727668029
0.5950000000	0.2851098822
0.6000000000	0.2990250369
0.6050000000	0.3147171562
0.6100000000	0.3323791145
0.6150000000	0.3522765680
0.6200000000	0.3747641680
0.6250000000	0.4001815584
0.6300000000	0.4290318023
0.6350000000	0.4619416966
0.6400000000	0.4995625932
0.6450000000	0.5428362760
0.6500000000	0.5930000328
0.6550000000	0.6513411129
0.6600000000	0.7198397699
0.6650000000	0.8010341657
0.6700000000	0.8979077495
0.6750000000	1.0150124433
0.6800000000	1.1584666046
0.6850000000	1.3362821339
0.6900000000	1.5608673437
0.6950000000	1.8495723369
0.7000000000	2.2299530047
0.7050000000	2.7441241213
0.7100000000	3.4634304841
0.7150000000	4.5148562385
0.7200000000	6.1347406547
0.7250000000	8.8225758422
0.7300000000	13.7541474434
0.7350000000	24.3019227689
0.7400000000	53.2171453186
0.7450000000	176.4066474083
0.7500000000	546.0739007267
0.7550000000	137.2672174986
0.7600000000	45.4233621334
0.7650000000	21.7468481720
0.7700000000	12.6370249496
0.7750000000	8.2411897378
0.7800000000	5.7949910931
0.7850000000	4.3004604058
0.7900000000	3.3197593960
0.7950000000	2.6436494577
0.8000000000	2.1577997081
0.8050000000	1.7960844307
0.8100000000	1.5203570835
0.8150000000	1.3018786592
0.8200000000	1.1295058827
0.8250000000	0.9907583054
0.8300000000	0.8771419224
0.8350000000	0.7837515094
0.8400000000	0.7054860294
0.8450000000	0.6398262063
0.8500000000	0.5843316449
0.8550000000	0.5364563613
0.8600000000	0.4955887402
0.8650000000	0.4606760308
0.8700000000	0.4298364873
0.8750000000	0.4035908368
0.8800000000	0.3813035358
0.8850000000	0.3613236720
0.8900000000	0.3452572673
0.8950000000	0.3306428467
0.9000000000	0.3190168058
0.9050000000	0.3109286718
0.9100000000	0.3035111742
0.9150000000	0.2989101874
0.9200000000	0.2981133772
0.9250000000	0.2974676275
0.9300000000	0.2929025462
0.9350000000	0.2797476964
0.9400000000	0.2074670538
0.9450000000	-0.1201549857
0.9500000000	-1.8472447624
0.9550000000	-10.6004903948
0.9600000000	2.5001539982
0.9650000000	4.3882236012
0.9700000000	1.9454178136
0.9750000000	1.0211688651
0.9800000000	0.6400828980
0.9850000000	0.4618956372
0.9900000000	0.3592768783
0.9950000000	0.2970699053
1.0000000000	0.2573557637
1.0050000000	0.2321662346
1.0100000000	0.2126572498
1.0150000000	0.1984106178
1.0200000000	0.1888086573
1.0250000000	0.1807672535
1.0300000000	0.1746688101
1.0350000000	0.1700683046
1.0400000000	0.1671529371
1.0450000000	0.1647516481
1.0500000000	0.1631940565
1.0550000000	0.1623852656
1.0600000000	0.1625348472
1.0650000000	0.1630587213
1.0700000000	0.1641966261
1.0750000000	0.1659535563
1.0800000000	0.1684877801
1.0850000000	0.1717015193
1.0900000000	0.1764116591
1.0950000000	0.1819981347
1.1000000000	0.1886425016
1.1050000000	0.1963132926
1.1100000000	0.2052457706
1.1150000000	0.2156428629
1.1200000000	0.2277376035
1.1250000000	0.2418671000
1.1300000000	0.2584447890
1.1350000000	0.2779983174
1.1400000000	0.3011201269
1.1450000000	0.3289268964
1.1500000000	0.3626040098
1.1550000000	0.4038783246
1.1600000000	0.4551863086
1.1650000000	0.5196809676
1.1700000000	0.6033078147
1.1750000000	0.7139251390
1.1800000000	0.8645360660
1.1850000000	1.0765228894
1.1900000000	1.3901371539
1.1950000000	1.8827641951
1.2000000000	2.7186593849
1.2050000000	4.2985880543
1.2100000000	7.7741144007
1.2150000000	17.1659065766
1.2200000000	42.1345343176
1.2250000000	37.8191391160
1.2300000000	15.0514438383
1.2350000000	7.0322918792
1.2400000000	3.9943393912
1.2450000000	2.5979047528
1.2500000000	1.8593098163
1.2550000000	1.4308248995
1.2600000000	1.1675274176
1.2650000000	0.9996450243
1.2700000000	0.8956697206
1.2750000000	0.8351217892
1.2800000000	0.8079304223
1.2850000000	0.8092742894
1.2900000000	0.8379171959
1.2950000000	0.8951209565
1.3000000000	0.9885686539
1.3050000000	1.1279819520
1.3100000000	1.3321006192
1.3150000000	1.6335055566
1.3200000000	2.0910113311
1.3250000000	2.8165418943
1.3300000000	4.0560203674
1.3350000000	6.3788394107
1.3400000000	11.3437740991
1.3450000000	23.6664607157
1.3500000000	50.1725713645
1.3550000000	46.7615213441
1.3600000000	21.5560296283
1.3650000000	10.5901854356
1.3700000000	6.0738755703
1.3750000000	3.9068928359
1.3800000000	2.7254110581
1.3850000000	2.0136174134
1.3900000000	1.5546534487
1.3950000000	1.2413539303
1.4000000000	1.0181759864
1.4050000000	0.8538423401
1.4100000000	0.7292412306
1.4150000000	0.6326677139
1.4200000000	0.5554116629
1.4250000000	0.4935335486
1.4300000000	0.4434755280
1.4350000000	0.3925782119
1.4400000000	0.2314362330
1.4450000000	-0.1858725275
1.4500000000	-0.9492863425
1.4550000000	-0.3447629064
1.4600000000	0.8661462395
1.4650000000	0.5270722432
1.4700000000	-0.2249183164
1.4750000000	-1.3744859917
1.4800000000	-0.5991099217
1.4850000000	1.0789743033
1.4900000000	0.8729006098
1.4950000000	0.5687548983
1.5000000000	0.4022776838
1.5050000000	0.3118418189
1.5100000000	0.2599957768
1.5150000000	0.2280842553
1.5200000000	0.2070937774
1.5250000000	0.1937333619
1.5300000000	0.1831189709
1.5350000000	0.1753504579
1.5400000000	0.1696613574
1.5450000000	0.1655834849
1.5500000000	0.1628098314
1.5550000000	0.1611852139
1.5600000000	0.1609708086
1.5650000000	0.1615677207
1.5700000000	0.1635219530
1.5750000000	0.1672055284
1.5800000000	0.1733730967
1.5850000000	0.1835109145
1.5900000000	0.2007535150
1.5950000000	0.2319889326
1.6000000000	0.2915711217
1.6050000000	0.3880284162
1.6100000000	0.4308154475
1.6150000000	0.3479373325
1.6200000000	0.2729985590
1.6250000000	0.2358319267
1.6300000000	0.2195824972
1.6350000000	0.2137660019
1.6400000000	0.2136875958
1.6450000000	0.2172236586
1.6500000000	0.2233714467
1.6550000000	0.2317119146
1.6600000000	0.2420825739
1.6650000000	0.2545020553
1.6700000000	0.2691112811
1.6750000000	0.2861555956
1.6800000000	0.3059833307
1.6850000000	0.3290582092
1.6900000000	0.3559752126
1.6950000000	0.3872997421
1.7000000000	0.4242250167
1.7050000000	0.4689265145
1.7100000000	0.5239839047
1.7150000000	0.6021568644
1.7200000000	0.7104838552
1.7250000000	0.8417958636
1.7300000000	1.0067075655
1.7350000000	1.1829349268
1.7400000000	1.3385173178
1.7450000000	1.5319878601
1.7500000000	1.8321454605
1.7550000000	2.2852501195
1.7600000000	2.9665858251
1.7650000000	4.0183481570
1.7700000000	5.7125644043
1.7750000000	8.5651991077
1.7800000000	13.4212791380
1.7850000000	20.5713641355
1.7900000000	25.5290769668
1.7950000000	21.7040209944
1.8000000000	14.4181326626
1.8050000000	9.0859402553
1.8100000000	5.9757215756
1.8150000000	4.1538773391
1.8200000000	3.0330396768
1.8250000000	2.3063259690
1.8300000000	1.8125748878
1.8350000000	1.4635315646
1.8400000000	1.2085525037
1.8450000000	1.0168533620
1.8500000000	0.8690063594
1.8550000000	0.7528230707
1.8600000000	0.6596845740
1.8650000000	0.5836348568
1.8700000000	0.5202768696
1.8750000000	0.4661631552
1.8800000000	0.4182623808
1.8850000000	0.3735002860
1.8900000000	0.3279699946
1.8950000000	0.2757309156
1.9000000000	0.2067853817
1.9050000000	0.0894354031
1.9100000000	-0.0809648543
1.9150000000	-0.2644821305
1.9200000000	-0.1824086966
1.9250000000	0.3537771767
1.9300000000	0.7844622985
1.9350000000	0.8194133103
1.9400000000	0.6754582684
1.9450000000	0.5300056530
1.9500000000	0.4254215265
1.9550000000	0.3552529877
1.9600000000	0.3079112215
1.9650000000	0.2765684545
1.9700000000	0.2528334786
1.9750000000	0.2354139399
1.9800000000	0.2222934624
1.9850000000	0.2120476370
1.9900000000	0.2036614277
1.9950000000	0.1963126015
2.0000000000	0.1898028559
2.0050000000	0.1864857601
2.0100000000	0.1895284967
2.0150000000	0.1968036289
2.0200000000	0.2025300490
2.0250000000	0.2064340303
2.0300000000	0.2106020502
2.0350000000	0.2159342438
2.0400000000	0.2231174448
2.0450000000	0.2325987269
2.0500000000	0.2449155277
2.0550000000	0.2606128961
2.0600000000	0.2797167946
2.0650000000	0.3004123378
2.0700000000	0.3181971120
2.0750000000	0.3294951748
2.0800000000	0.3367477813
2.0850000000	0.3454073400
2.0900000000	0.3588492301
2.0950000000	0.3781051385
2.1000000000	0.4037300136
2.1050000000	0.4351377208
2.1100000000	0.4745195704
2.1150000000	0.5233967982
2.1200000000	0.5840271277
2.1250000000	0.6596560613
2.1300000000	0.7549111973
2.1350000000	0.8764298925
2.1400000000	1.0338062043
2.1450000000	1.2410636035
2.1500000000	1.5186162620
2.1550000000	1.8953178564
2.1600000000	2.4080595177
2.1650000000	3.0880388825
2.1700000000	3.9234385196
2.1750000000	4.7571750697
2.1800000000	5.2843197541
2.1850000000	5.3436626503
2.1900000000	5.1621930503
2.1950000000	5.0417152926
2.2000000000	5.0070189660
2.2050000000	4.7662142619
2.2100000000	4.1969300096
2.2150000000	3.4738138903
2.2200000000	2.8121854822
2.2250000000	2.2822599867
2.2300000000	1.8651637146
2.2350000000	1.5338757494
2.2400000000	1.2710350432
2.2450000000	1.0658827104
2.2500000000	0.9058883581
2.2550000000	0.7796547984
2.2600000000	0.6776685780
2.2650000000	0.5920142752
2.2700000000	0.5160410790
2.2750000000	0.4450809411
2.2800000000	0.3794639239
2.2850000000	0.3274276949
2.2900000000	0.3011744902
2.2950000000	0.3049101562
2.3000000000	0.3265978348
2.3050000000	0.3477928315
2.3100000000	0.3569412529
2.3150000000	0.3546296418
2.3200000000	0.3459166269
2.3250000000	0.3359663966
2.3300000000	0.3275696613
2.3350000000	0.3216936425
2.3400000000	0.3181379745
2.3450000000	0.3158673080
2.3500000000	0.3134993580
2.3550000000	0.3101501811
2.3600000000	0.3060649321
2.3650000000	0.3023157598
2.3700000000	0.2999655599
2.3750000000	0.2995337570
2.3800000000	0.3009322659
2.3850000000	0.3036282240
2.3900000000	0.3070280044
2.3950000000	0.3106238984
2.4000000000	0.3147189380
2.4050000000	0.3204420490
2.4100000000	0.3283671130
2.4150000000	0.3392218229
2.4200000000	0.3535011172
2.4250000000	0.3716552787
2.4300000000	0.3941893848
2.4350000000	0.4217365318
2.4400000000	0.4551112869
2.4450000000	0.4953645539
2.4500000000	0.5438338196
2.4550000000	0.6022111841
2.4600000000	0.6725861152
2.4650000000	0.7574868100
2.4700000000	0.8598417984
2.4750000000	0.9826320752
2.4800000000	1.1290820499
2.4850000000	1.3006416256
2.4900000000	1.4958908374
2.4950000000	1.7077675725
2.5000000000	1.9205827717
2.5050000000	2.1172750945
2.5100000000	2.2443437731
2.5150000000	2.2721633448
2.5200000000	2.1969030561
2.5250000000	2.0421102686
2.5300000000	1.8436094197
2.5350000000	1.6328237241
2.5400000000	1.4296565299
2.5450000000	1.2439449646
2.5500000000	1.0793649164
2.5550000000	0.9363834353
2.5600000000	0.8129260734
2.5650000000	0.7087221803
2.5700000000	0.6216925613
2.5750000000	0.5506064991
2.5800000000	0.4945028186
2.5850000000	0.4521907870
2.5900000000	0.4215208373
2.5950000000	0.3993811097
2.6000000000	0.3825168215
2.6050000000	0.3704889655
2.6100000000	0.3596891180
2.6150000000	0.3499844614
2.6200000000	0.3416175022
2.6250000000	0.3348266643
2.6300000000	0.3297559135
2.6350000000	0.3264676686
2.6400000000	0.3249946773
2.6450000000	0.3253739334
2.6500000000	0.3276848720
2.6550000000	0.3319408610
2.6600000000	0.3382535585
2.6650000000	0.3467216038
2.6700000000	0.3574612203
2.6750000000	0.3706103030
2.6800000000	0.3863223254
2.6850000000	0.4047649041
2.6900000000	0.4261000127
2.6950000000	0.4504744597
2.7000000000	0.4779899380
2.7050000000	0.5119596608
2.7100000000	0.5500328407
2.7150000000	0.5919480635
2.7200000000	0.6371403587
2.7250000000	0.6846685964
2.7300000000	0.7331486888
2.7350000000	0.7806949876
2.7400000000	0.8248896954
2.7450000000	0.8631804624
2.7500000000	0.8918621806
2.7550000000	0.9083898914
2.7600000000	0.9108522069
2.7650000000	0.8987574710
2.7700000000	0.8732072430
2.7750000000	0.8366731289
2.7800000000	0.7924330978
2.7850000000	0.7439743495
2.7900000000	0.6944121596
2.7950000000	0.6462406826
2.8000000000	0.6012191849
2.8050000000	0.5554391375
2.8100000000	0.5159199863
2.8150000000	0.4825715842
2.8200000000	0.4548697438
2.8250000000	0.4321177854
2.8300000000	0.4136168353
2.8350000000	0.3987712681
2.8400000000	0.3869478948
2.8450000000	0.3781893651
2.8500000000	0.3720316455
2.8550000000	0.3683018363
2.8600000000	0.3668776197
2.8650000000	0.3676623603
2.8700000000	0.3705700306
2.8750000000	0.3755125974
2.8800000000	0.3823882134
2.8850000000	0.3910702446
2.8900000000	0.4014027772
2.8950000000	0.4131953876
2.9000000000	0.4262222148
2.9050000000	0.4433343547
2.9100000000	0.4609029854
2.9150000000	0.4782505928
2.9200000000	0.4945624605
2.9250000000	0.5088939465
2.9300000000	0.5203572176
2.9350000000	0.5277702823
2.9400000000	0.5305410816
2.9450000000	0.5283664408
2.9500000000	0.5214248318
2.9550000000	0.5103495385
2.9600000000	0.4961051086
2.9650000000	0.4798105133
2.9700000000	0.4625637868
2.9750000000	0.4453176500
2.9800000000	0.4288109862
2.9850000000	0.4135592452
2.9900000000	0.3998796257
2.9950000000	0.3879337023
3.0000000000	0.3777735700
