# energy (eV)    P(omega), $W$ = 400 nm, $h$ = 300 nm, $s$ = 20 nm, $d/W = 5$, $E_{\rm e}$ = 200 keV
0.2000000000	0.0417497541
0.2050000000	0.0421295400
0.2100000000	0.0423969445
0.2150000000	0.0425474644
0.2200000000	0.0425748023
0.2250000000	0.0424704034
0.2300000000	0.0422230116
0.2350000000	0.0418179707
0.2400000000	0.0412364329
0.2450000000	0.0404541070
0.2500000000	0.0394399367
0.2550000000	0.0381539617
0.2600000000	0.0365446878
0.2650000000	0.0382309014
0.2700000000	0.0425141399
0.2750000000	0.0486433343
0.2800000000	0.0571830595
0.2850000000	0.0697728737
0.2900000000	0.0853726012
0.2950000000	0.1077361700
0.3000000000	0.1377992727
0.3050000000	0.1838789053
0.3100000000	0.2480665588
0.3150000000	0.3722668701
0.3200000000	0.5662440428
0.3250000000	0.6990500803
0.3300000000	0.8827639596
0.3350000000	1.1432051300
0.3400000000	1.5520455907
0.3450000000	2.2534853505
0.3500000000	3.6522184091
0.3550000000	6.8901153118
0.3600000000	16.9333409849
0.3650000000	0.0764785934
0.3700000000	7.8480471007
0.3750000000	10.3198967071
0.3800000000	4.8087279514
0.3850000000	2.7088070466
0.3900000000	1.7374646685
0.3950000000	1.2243584734
0.4000000000	0.9272701733
0.4050000000	0.7335892743
0.4100000000	0.6074987371
0.4150000000	0.5243351436
0.4200000000	0.4717742682
0.4250000000	0.4304944089
0.4300000000	0.3817160277
0.4350000000	0.3431108128
0.4400000000	0.3125784107
0.4450000000	0.2883015666
0.4500000000	0.2691351566
0.4550000000	0.2539367644
0.4600000000	0.2420808127
0.4650000000	0.2329056420
0.4700000000	0.2259732249
0.4750000000	0.2209770897
0.4800000000	0.2176497949
0.4850000000	0.2157568369
0.4900000000	0.2151595388
0.4950000000	0.2157512080
0.5000000000	0.2174406852
0.5050000000	0.2201873385
0.5100000000	0.2239578825
0.5150000000	0.2287325388
0.5200000000	0.2345212049
0.5250000000	0.2413320006
0.5300000000	0.2492649132
0.5350000000	0.2583643968
0.5400000000	0.2687104948
0.5450000000	0.2804081752
0.5500000000	0.2936059522
0.5550000000	0.3084662734
0.5600000000	0.3251868679
0.5650000000	0.3440219894
0.5700000000	0.3653226283
0.5750000000	0.3893489248
0.5800000000	0.4165876279
0.5850000000	0.4477037941
0.5900000000	0.4831460195
0.5950000000	0.5238582512
0.6000000000	0.5710875678
0.6050000000	0.6257686380
0.6100000000	0.6900440320
0.6150000000	0.7656905107
0.6200000000	0.8557580962
0.6250000000	0.9646225309
0.6300000000	1.0967463563
0.6350000000	1.2605150138
0.6400000000	1.4651799218
0.6450000000	1.7275290414
0.6500000000	2.0690072773
0.6550000000	2.5259401693
0.6600000000	3.1596626467
0.6650000000	4.0670786186
0.6700000000	5.4411226232
0.6750000000	7.6503775319
0.6800000000	11.5556509459
0.6850000000	19.3918329954
0.6900000000	38.8643217733
0.6950000000	109.0979219085
0.7000000000	529.1339881335
0.7050000000	257.2514770804
0.7100000000	66.0825304097
0.7150000000	28.1020253524
0.7200000000	15.3468840040
0.7250000000	9.6405927118
0.7300000000	6.6121190390
0.7350000000	4.8218375642
0.7400000000	3.6754063234
0.7450000000	2.8972540761
0.7500000000	2.3460256232
0.7550000000	1.9410541133
0.7600000000	1.6358179953
0.7650000000	1.3991117474
0.7700000000	1.2122564102
0.7750000000	1.0622465380
0.7800000000	0.9403434498
0.7850000000	0.8399687294
0.7900000000	0.7558780198
0.7950000000	0.6856468262
0.8000000000	0.6259313740
0.8050000000	0.5747705311
0.8100000000	0.5312173043
0.8150000000	0.4930447273
0.8200000000	0.4598114172
0.8250000000	0.4319228500
0.8300000000	0.4075111134
0.8350000000	0.3862886469
0.8400000000	0.3693880803
0.8450000000	0.3546414235
0.8500000000	0.3421378111
0.8550000000	0.3342343167
0.8600000000	0.3279034543
0.8650000000	0.3233704651
0.8700000000	0.3249481853
0.8750000000	0.3255006097
0.8800000000	0.3237483883
0.8850000000	0.3096716059
0.8900000000	0.2403164106
0.8950000000	-0.1072573224
0.9000000000	-1.9710412998
0.9050000000	-12.9512122442
0.9100000000	2.4661661306
0.9150000000	5.8418856828
0.9200000000	2.4250791191
0.9250000000	1.2615957544
0.9300000000	0.7701074888
0.9350000000	0.5352903733
0.9400000000	0.4086163537
0.9450000000	0.3384014346
0.9500000000	0.2885373323
0.9550000000	0.2551585157
0.9600000000	0.2345146723
0.9650000000	0.2174807409
0.9700000000	0.2053252161
0.9750000000	0.1970398862
0.9800000000	0.1919939042
0.9850000000	0.1910646562
0.9900000000	0.1928962485
0.9950000000	0.2003094393
1.0000000000	0.2180396258
1.0050000000	0.2594402304
1.0100000000	0.3679435847
1.0150000000	0.7398245801
1.0200000000	1.4206451039
1.0250000000	0.6459273227
1.0300000000	0.3309018769
1.0350000000	0.2370097912
1.0400000000	0.2000876038
1.0450000000	0.1827667311
1.0500000000	0.1740847482
1.0550000000	0.1695300971
1.0600000000	0.1674860376
1.0650000000	0.1671039372
1.0700000000	0.1679132995
1.0750000000	0.1697485322
1.0800000000	0.1722809296
1.0850000000	0.1757270670
1.0900000000	0.1807066014
1.0950000000	0.1865117376
1.1000000000	0.1931993737
1.1050000000	0.2007815750
1.1100000000	0.2093783303
1.1150000000	0.2191040340
1.1200000000	0.2300944424
1.1250000000	0.2424618966
1.1300000000	0.2565268021
1.1350000000	0.2725051158
1.1400000000	0.2907202643
1.1450000000	0.3115835041
1.1500000000	0.3354148594
1.1550000000	0.3632108179
1.1600000000	0.3956014899
1.1650000000	0.4334122046
1.1700000000	0.4768142345
1.1750000000	0.5208324475
1.1800000000	0.5624922759
1.1850000000	0.7817813578
1.1900000000	0.9701887795
1.1950000000	1.3299734990
1.2000000000	1.8113257316
1.2050000000	1.5888512811
1.2100000000	1.5205654523
1.2150000000	1.6928295085
1.2200000000	2.0246422511
1.2250000000	2.5342002525
1.2300000000	3.3090189583
1.2350000000	4.5347011188
1.2400000000	6.5993632984
1.2450000000	10.4871092477
1.2500000000	18.9068727812
1.2550000000	40.9274648225
1.2600000000	98.8569287531
1.2650000000	100.1380070297
1.2700000000	41.6553879224
1.2750000000	19.2281756626
1.2800000000	10.6489132981
1.2850000000	6.6966740994
1.2900000000	4.5899615411
1.2950000000	3.3452344806
1.3000000000	2.5523982637
1.3050000000	2.0185841487
1.3100000000	1.6421592223
1.3150000000	1.3701736219
1.3200000000	1.1685504752
1.3250000000	1.0168218992
1.3300000000	0.9025558475
1.3350000000	0.8181239137
1.3400000000	0.7595656909
1.3450000000	0.7257952870
1.3500000000	0.7217395077
1.3550000000	0.7586145712
1.3600000000	0.8649592997
1.3650000000	1.1133969962
1.3700000000	1.7066979804
1.3750000000	3.1828771292
1.3800000000	5.1990178826
1.3850000000	3.6319066517
1.3900000000	1.8508388651
1.3950000000	1.0739156274
1.4000000000	0.7033049268
1.4050000000	0.4755289493
1.4100000000	0.2693749965
1.4150000000	-0.0381614147
1.4200000000	-0.7266829936
1.4250000000	-2.5510786003
1.4300000000	-3.4300962332
1.4350000000	1.5714744445
1.4400000000	2.0101562113
1.4450000000	1.2051771172
1.4500000000	0.7499107983
1.4550000000	0.5169467869
1.4600000000	0.3817346775
1.4650000000	0.2748747800
1.4700000000	0.1605714788
1.4750000000	0.1886997127
1.4800000000	0.2766466851
1.4850000000	0.2512042224
1.4900000000	0.2224350858
1.4950000000	0.2038269919
1.5000000000	0.1916029721
1.5050000000	0.1835203990
1.5100000000	0.1780218790
1.5150000000	0.1750215379
1.5200000000	0.1728096822
1.5250000000	0.1720113417
1.5300000000	0.1726999066
1.5350000000	0.1751907074
1.5400000000	0.1802705372
1.5450000000	0.1896867876
1.5500000000	0.2073669566
1.5550000000	0.2411396476
1.5600000000	0.2918345085
1.5650000000	0.2999593373
1.5700000000	0.2542138416
1.5750000000	0.2221140432
1.5800000000	0.2082678512
1.5850000000	0.2039127434
1.5900000000	0.2044800295
1.5950000000	0.2079856609
1.6000000000	0.2135652669
1.6050000000	0.2209213251
1.6100000000	0.2298316535
1.6150000000	0.2402632083
1.6200000000	0.2523821826
1.6250000000	0.2663319470
1.6300000000	0.2823481069
1.6350000000	0.3007343981
1.6400000000	0.3218792112
1.6450000000	0.3462785937
1.6500000000	0.3745552015
1.6550000000	0.4074981122
1.6600000000	0.4461296560
1.6650000000	0.4917694424
1.6700000000	0.5457005505
1.6750000000	0.6110716467
1.6800000000	0.6906659130
1.6850000000	0.7888618000
1.6900000000	0.9118758843
1.6950000000	1.0688307933
1.7000000000	1.2734595893
1.7050000000	1.5557507913
1.7100000000	1.9495977608
1.7150000000	2.5220636656
1.7200000000	3.3945228386
1.7250000000	4.7786472508
1.7300000000	6.9056672580
1.7350000000	9.6353020925
1.7400000000	13.0859449775
1.7450000000	19.1412584787
1.7500000000	27.0016394982
1.7550000000	27.4359961931
1.7600000000	19.2481087185
1.7650000000	11.9897826676
1.7700000000	7.6859259246
1.7750000000	5.2385930805
1.7800000000	3.7923231353
1.7850000000	2.9026873570
1.7900000000	2.3509774992
1.7950000000	2.0352948925
1.8000000000	1.9078754442
1.8050000000	1.8675325839
1.8100000000	1.6615659585
1.8150000000	1.2874760205
1.8200000000	0.9886045299
1.8250000000	0.8345081976
1.8300000000	0.7265268659
1.8350000000	0.6305609091
1.8400000000	0.5523076741
1.8450000000	0.4902087765
1.8500000000	0.4401635691
1.8550000000	0.3988205637
1.8600000000	0.3607906616
1.8650000000	0.3286399205
1.8700000000	0.2961467205
1.8750000000	0.2493050495
1.8800000000	0.1425298633
1.8850000000	-0.0914897768
1.8900000000	-0.4062610433
1.8950000000	-0.4602702719
1.9000000000	0.0492545885
1.9050000000	0.5243132997
1.9100000000	0.5797462626
1.9150000000	0.4897777784
1.9200000000	0.4016002701
1.9250000000	0.3390289517
1.9300000000	0.3011350875
1.9350000000	0.2722041735
1.9400000000	0.2529576526
1.9450000000	0.2402164094
1.9500000000	0.2313103638
1.9550000000	0.2238596614
1.9600000000	0.2174279704
1.9650000000	0.2128614696
1.9700000000	0.2104231391
1.9750000000	0.2099506873
1.9800000000	0.2113126672
1.9850000000	0.2145486781
1.9900000000	0.2198711724
1.9950000000	0.2275458795
2.0000000000	0.2373732364
2.0050000000	0.2485219758
2.0100000000	0.2565197680
2.0150000000	0.2618548042
2.0200000000	0.2682879346
2.0250000000	0.2782171694
2.0300000000	0.2923482556
2.0350000000	0.3110345709
2.0400000000	0.3349177563
2.0450000000	0.3651110671
2.0500000000	0.4032133034
2.0550000000	0.4510011598
2.0600000000	0.5093362894
2.0650000000	0.5773015335
2.0700000000	0.6559178363
2.0750000000	0.7539550966
2.0800000000	0.8858923131
2.0850000000	1.0658466138
2.0900000000	1.3020280921
2.0950000000	1.5774681893
2.1000000000	1.8229625365
2.1050000000	1.9419208478
2.1100000000	1.8854310638
2.1150000000	1.7554387209
2.1200000000	1.6635599896
2.1250000000	1.6596431509
2.1300000000	1.7584773838
2.1350000000	1.9717846539
2.1400000000	2.3230433135
2.1450000000	2.8537899696
2.1500000000	3.6221894318
2.1550000000	4.6719324940
2.1600000000	5.9183645806
2.1650000000	6.9659694632
2.1700000000	7.2135046053
2.1750000000	6.4572543139
2.1800000000	5.2131126849
2.1850000000	4.0221627145
2.1900000000	3.0910164218
2.1950000000	2.4182916581
2.2000000000	1.9463205673
2.2050000000	1.6207009819
2.2100000000	1.3946555534
2.2150000000	1.2212763722
2.2200000000	1.0659159483
2.2250000000	0.9181413905
2.2300000000	0.7843409499
2.2350000000	0.6694545803
2.2400000000	0.5721499572
2.2450000000	0.4881312523
2.2500000000	0.4131224344
2.2550000000	0.3447319647
2.2600000000	0.2763401510
2.2650000000	0.2265864805
2.2700000000	0.1995598603
2.2750000000	0.2063626543
2.2800000000	0.2456150541
2.2850000000	0.2955986990
2.2900000000	0.3321854342
2.2950000000	0.3484006071
2.3000000000	0.3502543443
2.3050000000	0.3446578298
2.3100000000	0.3372862808
2.3150000000	0.3307549257
2.3200000000	0.3260977016
2.3250000000	0.3238822678
2.3300000000	0.3245678056
2.3350000000	0.3285346964
2.3400000000	0.3361079465
2.3450000000	0.3476164596
2.3500000000	0.3634087149
2.3550000000	0.3840071442
2.3600000000	0.4090735407
2.3650000000	0.4387638900
2.3700000000	0.4729956553
2.3750000000	0.5121404611
2.3800000000	0.5576113358
2.3850000000	0.6110849429
2.3900000000	0.6729320181
2.3950000000	0.7403986201
2.4000000000	0.8064050527
2.4050000000	0.8632880705
2.4100000000	0.8948171217
2.4150000000	0.8978312382
2.4200000000	0.8800386646
2.4250000000	0.8545839192
2.4300000000	0.8331330727
2.4350000000	0.8227283541
2.4400000000	0.8261800292
2.4450000000	0.8439423077
2.4500000000	0.8760721207
2.4550000000	0.9232854422
2.4600000000	0.9886089594
2.4650000000	1.0751453467
2.4700000000	1.1863496732
2.4750000000	1.3243798618
2.4800000000	1.4881468404
2.4850000000	1.6706631339
2.4900000000	1.8559450921
2.4950000000	2.0174687203
2.5000000000	2.1220430869
2.5050000000	2.1354874855
2.5100000000	2.0441538139
2.5150000000	1.8729718247
2.5200000000	1.6617748795
2.5250000000	1.4455576531
2.5300000000	1.2456515595
2.5350000000	1.0710193443
2.5400000000	0.9229805091
2.5450000000	0.7993386727
2.5500000000	0.6969109047
2.5550000000	0.6128373846
2.5600000000	0.5425374977
2.5650000000	0.4899264148
2.5700000000	0.4521237160
2.5750000000	0.4277812696
2.5800000000	0.4141972032
2.5850000000	0.4076762430
2.5900000000	0.4047504646
2.5950000000	0.4032604203
2.6000000000	0.4025098336
2.6050000000	0.4057189872
2.6100000000	0.4108037865
2.6150000000	0.4185428251
2.6200000000	0.4293497600
2.6250000000	0.4432500733
2.6300000000	0.4598514060
2.6350000000	0.4783210209
2.6400000000	0.4973865503
2.6450000000	0.5154345254
2.6500000000	0.5307561936
2.6550000000	0.5419505482
2.6600000000	0.5483668038
2.6650000000	0.5503872013
2.6700000000	0.5493461578
2.6750000000	0.5471942791
2.6800000000	0.5458216809
2.6850000000	0.5469943074
2.6900000000	0.5519419739
2.6950000000	0.5614204803
2.7000000000	0.5757922161
2.7050000000	0.5973046346
2.7100000000	0.6249899896
2.7150000000	0.6584007123
2.7200000000	0.6966116231
2.7250000000	0.7380521884
2.7300000000	0.7803514075
2.7350000000	0.8203126801
2.7400000000	0.8541336639
2.7450000000	0.8779537099
2.7500000000	0.8886610720
2.7550000000	0.8846880036
2.7600000000	0.8664350483
2.7650000000	0.8361264780
2.7700000000	0.7971659119
2.7750000000	0.7533243424
2.7800000000	0.7080595916
2.7850000000	0.6641378637
2.7900000000	0.6231628444
2.7950000000	0.5868894187
2.8000000000	0.5556806432
2.8050000000	0.5267754084
2.8100000000	0.5039855248
2.8150000000	0.4864138179
2.8200000000	0.4730856434
2.8250000000	0.4631066347
2.8300000000	0.4557166515
2.8350000000	0.4502851819
2.8400000000	0.4462794531
2.8450000000	0.4432471336
2.8500000000	0.4408250011
2.8550000000	0.4387719270
2.8600000000	0.4370062717
2.8650000000	0.4356179433
2.8700000000	0.4348455539
2.8750000000	0.4350172869
2.8800000000	0.4364782191
2.8850000000	0.4395247797
2.8900000000	0.4443590971
2.8950000000	0.4510614794
2.9000000000	0.4595768579
2.9050000000	0.4723139896
2.9100000000	0.4862816883
2.9150000000	0.5005474003
2.9200000000	0.5139325794
2.9250000000	0.5251711810
2.9300000000	0.5330877184
2.9350000000	0.5368032963
2.9400000000	0.5359056912
2.9450000000	0.5305280690
2.9500000000	0.5212991967
2.9550000000	0.5091831886
2.9600000000	0.4952763102
2.9650000000	0.4806169709
2.9700000000	0.4660591472
2.9750000000	0.4522170137
2.9800000000	0.4394686930
2.9850000000	0.4279970897
2.9900000000	0.4178447418
2.9950000000	0.4089671340
3.0000000000	0.4012762112
