# energy (eV)    P(omega), $W$ = 400 nm, $h$ = 300 nm, $s$ = 20 nm, $d/W = 5$, $E_{\rm e}$ = 200 keV
0.2000000000	0.2159518879
0.2050000000	0.2179715600
0.2100000000	0.2193485989
0.2150000000	0.2200602768
0.2200000000	0.2200738849
0.2250000000	0.2193443482
0.2300000000	0.2178117305
0.2350000000	0.2153975528
0.2400000000	0.2120002714
0.2450000000	0.2074889777
0.2500000000	0.2016955844
0.2550000000	0.1944039145
0.2600000000	0.1853347886
0.2650000000	0.1945741686
0.2700000000	0.2181636967
0.2750000000	0.2518813970
0.2800000000	0.2987938030
0.2850000000	0.3678731230
0.2900000000	0.4532890817
0.2950000000	0.5755865806
0.3000000000	0.7397255167
0.3050000000	0.9910441704
0.3100000000	1.3405804267
0.3150000000	2.0165991398
0.3200000000	3.0709102341
0.3250000000	3.7891157830
0.3300000000	4.7816111864
0.3350000000	6.1871586392
0.3400000000	8.3920265506
0.3450000000	12.1722983749
0.3500000000	19.7056426516
0.3550000000	37.1305776479
0.3600000000	91.1354280350
0.3650000000	0.5659606663
0.3700000000	42.0651351686
0.3750000000	55.2616773198
0.3800000000	25.7031480625
0.3850000000	14.4503534818
0.3900000000	9.2493135343
0.3950000000	6.5036082149
0.4000000000	4.9145255774
0.4050000000	3.8790878487
0.4100000000	3.2049685067
0.4150000000	2.7599971660
0.4200000000	2.4780005211
0.4250000000	2.2563500479
0.4300000000	1.9959961677
0.4350000000	1.7899391308
0.4400000000	1.6269004875
0.4450000000	1.4971528181
0.4500000000	1.3945438635
0.4550000000	1.3129827030
0.4600000000	1.2491034734
0.4650000000	1.1993788078
0.4700000000	1.1614663061
0.4750000000	1.1337189624
0.4800000000	1.1147022417
0.4850000000	1.1031641736
0.4900000000	1.0983517671
0.4950000000	1.0996845909
0.5000000000	1.1066630432
0.5050000000	1.1190529066
0.5100000000	1.1366575780
0.5150000000	1.1593544734
0.5200000000	1.1871699988
0.5250000000	1.2201210867
0.5300000000	1.2586976209
0.5350000000	1.3030989405
0.5400000000	1.3537056580
0.5450000000	1.4110264749
0.5500000000	1.4757842678
0.5550000000	1.5487694384
0.5600000000	1.6309461782
0.5650000000	1.7235603369
0.5700000000	1.8283358328
0.5750000000	1.9465314201
0.5800000000	2.0805388161
0.5850000000	2.2336315730
0.5900000000	2.4079779708
0.5950000000	2.6082189032
0.6000000000	2.8404825446
0.6050000000	3.1093031351
0.6100000000	3.4252165915
0.6150000000	3.7968836605
0.6200000000	4.2392447283
0.6250000000	4.7737487565
0.6300000000	5.4221640177
0.6350000000	6.2255762496
0.6400000000	7.2291357473
0.6450000000	8.5150100209
0.6500000000	10.1879054362
0.6550000000	12.4253433799
0.6600000000	15.5270047153
0.6650000000	19.9659201619
0.6700000000	26.6841931676
0.6750000000	37.4804882001
0.6800000000	56.5551391141
0.6850000000	94.8090092018
0.6900000000	189.8160254152
0.6950000000	532.2882406059
0.7000000000	2578.9467247285
0.7050000000	1252.5009196951
0.7100000000	321.4014769623
0.7150000000	136.5327675964
0.7200000000	74.4825479926
0.7250000000	46.7380160368
0.7300000000	32.0211149013
0.7350000000	23.3256599748
0.7400000000	17.7602564475
0.7450000000	13.9845974038
0.7500000000	11.3112849650
0.7550000000	9.3482419693
0.7600000000	7.8692979207
0.7650000000	6.7229439105
0.7700000000	5.8184167136
0.7750000000	5.0925430947
0.7800000000	4.5029007128
0.7850000000	4.0175523288
0.7900000000	3.6111049755
0.7950000000	3.2717214702
0.8000000000	2.9832252366
0.8050000000	2.7361220386
0.8100000000	2.5257605501
0.8150000000	2.3414310320
0.8200000000	2.1809662751
0.8250000000	2.0461919452
0.8300000000	1.9281809144
0.8350000000	1.8255273962
0.8400000000	1.7435009791
0.8450000000	1.6718216092
0.8500000000	1.6108829904
0.8550000000	1.5716888637
0.8600000000	1.5399774376
0.8650000000	1.5167984675
0.8700000000	1.5222546736
0.8750000000	1.5230016950
0.8800000000	1.5132135400
0.8850000000	1.4465706768
0.8900000000	1.1247492949
0.8950000000	-0.4815639608
0.9000000000	-9.0815651312
0.9050000000	-59.6925666812
0.9100000000	11.3452346457
0.9150000000	26.8652878345
0.9200000000	11.1426647573
0.9250000000	5.7935078057
0.9300000000	3.5360594730
0.9350000000	2.4585833983
0.9400000000	1.8780429160
0.9450000000	1.5567390785
0.9500000000	1.3293604093
0.9550000000	1.1779769909
0.9600000000	1.0853556295
0.9650000000	1.0101633706
0.9700000000	0.9583470844
0.9750000000	0.9257199325
0.9800000000	0.9101478637
0.9850000000	0.9168344476
0.9900000000	0.9421905566
0.9950000000	1.0038691460
1.0000000000	1.1347205992
1.0050000000	1.4257343810
1.0100000000	2.1776152020
1.0150000000	4.7271716552
1.0200000000	9.3285641426
1.0250000000	4.0106105023
1.0300000000	1.8715772201
1.0350000000	1.2370152024
1.0400000000	0.9872588610
1.0450000000	0.8687450764
1.0500000000	0.8070035994
1.0550000000	0.7723971311
1.0600000000	0.7536373337
1.0650000000	0.7450047083
1.0700000000	0.7433176476
1.0750000000	0.7472615558
1.0800000000	0.7549438352
1.0850000000	0.7670822590
1.0900000000	0.7861986523
1.0950000000	0.8091283547
1.1000000000	0.8360926713
1.1050000000	0.8669762471
1.1100000000	0.9023160452
1.1150000000	0.9425470682
1.1200000000	0.9882345251
1.1250000000	1.0399091195
1.1300000000	1.0988144334
1.1350000000	1.1659749153
1.1400000000	1.2427230087
1.1450000000	1.3309059630
1.1500000000	1.4321129499
1.1550000000	1.5506723091
1.1600000000	1.6899467384
1.1650000000	1.8553525378
1.1700000000	2.0530391054
1.1750000000	2.2851898081
1.1800000000	2.5659814901
1.1850000000	3.2381977631
1.1900000000	4.0819060466
1.1950000000	5.8002265442
1.2000000000	8.0460065570
1.2050000000	6.9020182161
1.2100000000	6.4592456106
1.2150000000	7.1178827199
1.2200000000	8.4730886709
1.2250000000	10.5795330278
1.2300000000	13.7927094666
1.2350000000	18.8799138032
1.2400000000	27.4495233338
1.2450000000	43.5814652269
1.2500000000	78.5022833028
1.2550000000	169.7809381094
1.2600000000	409.7031081222
1.2650000000	414.5848203801
1.2700000000	172.2620368127
1.2750000000	79.4139600278
1.2800000000	43.9158441105
1.2850000000	27.5695507535
1.2900000000	18.8579660877
1.2950000000	13.7104452361
1.3000000000	10.4299797444
1.3050000000	8.2185038425
1.3100000000	6.6553204240
1.3150000000	5.5209543464
1.3200000000	4.6737658811
1.3250000000	4.0278275651
1.3300000000	3.5299657866
1.3350000000	3.1457644415
1.3400000000	2.8541131383
1.3450000000	2.6423843142
1.3500000000	2.5160925941
1.3550000000	2.4924766956
1.3600000000	2.6261078160
1.3650000000	3.0633514637
1.3700000000	4.2190615011
1.3750000000	7.1991628813
1.3800000000	11.3044517216
1.3850000000	8.0422807069
1.3900000000	4.3288494247
1.3950000000	2.6731377129
1.4000000000	1.8362426941
1.4050000000	1.2521449444
1.4100000000	0.6100661893
1.4150000000	-0.5148681027
1.4200000000	-3.2184854651
1.4250000000	-10.5276996337
1.4300000000	-14.0225127341
1.4350000000	6.1768977894
1.4400000000	7.9584416921
1.4450000000	4.7319173937
1.4500000000	2.9156671846
1.4550000000	1.9978477183
1.4600000000	1.4871734147
1.4650000000	1.1367707254
1.4700000000	0.8369218243
1.4750000000	0.8278845880
1.4800000000	0.9518085566
1.4850000000	0.8720806024
1.4900000000	0.7942270524
1.4950000000	0.7415696252
1.5000000000	0.7054762791
1.5050000000	0.6815723097
1.5100000000	0.6656952240
1.5150000000	0.6587465260
1.5200000000	0.6547191206
1.5250000000	0.6567904011
1.5300000000	0.6660689295
1.5350000000	0.6851533727
1.5400000000	0.7195786152
1.5450000000	0.7813031529
1.5500000000	0.8970002298
1.5550000000	1.1199109998
1.5600000000	1.4564231327
1.5650000000	1.5063281447
1.5700000000	1.1885516045
1.5750000000	0.9591680856
1.5800000000	0.8507504759
1.5850000000	0.8043082371
1.5900000000	0.7888116262
1.5950000000	0.7906015406
1.6000000000	0.8035206974
1.6050000000	0.8250192458
1.6100000000	0.8533796386
1.6150000000	0.8879854069
1.6200000000	0.9291890338
1.6250000000	0.9772841876
1.6300000000	1.0329717102
1.6350000000	1.0972382786
1.6400000000	1.1713751124
1.6450000000	1.2570651626
1.6500000000	1.3564348349
1.6550000000	1.4721866417
1.6600000000	1.6078239582
1.6650000000	1.7678590189
1.6700000000	1.9564908340
1.6750000000	2.1847408299
1.6800000000	2.4618416010
1.6850000000	2.8024763115
1.6900000000	3.2273261613
1.6950000000	3.7664616302
1.7000000000	4.4646179440
1.7050000000	5.4195326717
1.7100000000	6.7369983755
1.7150000000	8.6249621508
1.7200000000	11.4537537903
1.7250000000	15.8723695419
1.7300000000	22.6970366321
1.7350000000	32.1938562644
1.7400000000	45.7241696216
1.7450000000	69.2203169511
1.7500000000	98.9958135381
1.7550000000	100.8786631216
1.7600000000	70.6661163049
1.7650000000	43.8685733837
1.7700000000	27.9909530844
1.7750000000	18.9612285348
1.7800000000	13.6081542039
1.7850000000	10.2785181021
1.7900000000	8.1446460042
1.7950000000	6.7955379796
1.8000000000	6.0199995472
1.8050000000	5.5434749990
1.8100000000	4.8409404202
1.8150000000	3.8790004672
1.8200000000	3.1127507090
1.8250000000	2.6650809175
1.8300000000	2.3352413231
1.8350000000	2.0498820543
1.8400000000	1.8151335489
1.8450000000	1.6242344622
1.8500000000	1.4664759821
1.8550000000	1.3330798146
1.8600000000	1.2065214890
1.8650000000	1.0973188644
1.8700000000	0.9832983442
1.8750000000	0.8145038223
1.8800000000	0.4294201111
1.8850000000	-0.4092431073
1.8900000000	-1.5330336604
1.8950000000	-1.7147640435
1.9000000000	0.1282820534
1.9050000000	1.8384767999
1.9100000000	2.0375549082
1.9150000000	1.7153483236
1.9200000000	1.4005930532
1.9250000000	1.1785603119
1.9300000000	1.0460624745
1.9350000000	0.9471738710
1.9400000000	0.8851077304
1.9450000000	0.8481229829
1.9500000000	0.8227306784
1.9550000000	0.7941145668
1.9600000000	0.7622392120
1.9650000000	0.7369852745
1.9700000000	0.7222085981
1.9750000000	0.7173496408
1.9800000000	0.7216505099
1.9850000000	0.7354296050
1.9900000000	0.7601795767
1.9950000000	0.7977305419
2.0000000000	0.8464828488
2.0050000000	0.8960000241
2.0100000000	0.9171719442
2.0150000000	0.9110878715
2.0200000000	0.9035693612
2.0250000000	0.9105094761
2.0300000000	0.9347977278
2.0350000000	0.9757717787
2.0400000000	1.0335416103
2.0450000000	1.1098841935
2.0500000000	1.2080635164
2.0550000000	1.3315530367
2.0600000000	1.4806484270
2.0650000000	1.6499739864
2.0700000000	1.8389258903
2.0750000000	2.0681400956
2.0800000000	2.3730986848
2.0850000000	2.7868091612
2.0900000000	3.3287728327
2.0950000000	3.9643796306
2.1000000000	4.5494826199
2.1050000000	4.8828458247
2.1100000000	4.8670628730
2.1150000000	4.7239169858
2.1200000000	4.6981817144
2.1250000000	4.9083649450
2.1300000000	5.4053520682
2.1350000000	6.2430259233
2.1400000000	7.5136568056
2.1450000000	9.3646681645
2.1500000000	11.9904487555
2.1550000000	15.5277763836
2.1600000000	19.6891714482
2.1650000000	23.1677116522
2.1700000000	23.9744315929
2.1750000000	21.4403885486
2.1800000000	17.2914074153
2.1850000000	13.3306274714
2.1900000000	10.2438323967
2.1950000000	8.0246403554
2.2000000000	6.4804833840
2.2050000000	5.4296408284
2.2100000000	4.7105378187
2.2150000000	4.1553923584
2.2200000000	3.6381588173
2.2250000000	3.1268461723
2.2300000000	2.6551217883
2.2350000000	2.2486876418
2.2400000000	1.9061279286
2.2450000000	1.6128301724
2.2500000000	1.3531960872
2.2550000000	1.1175511403
2.2600000000	0.8822240984
2.2650000000	0.7077840774
2.2700000000	0.6088258147
2.2750000000	0.6239403447
2.2800000000	0.7488352006
2.2850000000	0.9099606186
2.2900000000	1.0258972994
2.2950000000	1.0730896755
2.3000000000	1.0717033953
2.3050000000	1.0448666829
2.3100000000	1.0119685294
2.3150000000	0.9821444650
2.3200000000	0.9589442740
2.3250000000	0.9437572758
2.3300000000	0.9372177903
2.3350000000	0.9396849252
2.3400000000	0.9514787313
2.3450000000	0.9730406470
2.3500000000	1.0049413145
2.3550000000	1.0483783218
2.3600000000	1.1021129849
2.3650000000	1.1666680859
2.3700000000	1.2418306677
2.3750000000	1.3284051807
2.3800000000	1.4294455680
2.3850000000	1.5486421637
2.3900000000	1.6870131180
2.3950000000	1.8390834952
2.4000000000	1.9903881106
2.4050000000	2.1265386109
2.4100000000	2.2129286782
2.4150000000	2.2429931471
2.4200000000	2.2328782245
2.4250000000	2.2105053957
2.4300000000	2.2012048663
2.4350000000	2.2209128723
2.4400000000	2.2767572740
2.4450000000	2.3711057709
2.4500000000	2.5060167629
2.4550000000	2.6856438186
2.4600000000	2.9199733351
2.4650000000	3.2189249886
2.4700000000	3.5925410873
2.4750000000	4.0463244572
2.4800000000	4.5755033046
2.4850000000	5.1570653000
2.4900000000	5.7405851794
2.4950000000	6.2437962100
2.5000000000	6.5646699165
2.5050000000	6.5984440323
2.5100000000	6.3051137733
2.5150000000	5.7640816010
2.5200000000	5.1001825198
2.5250000000	4.4223836655
2.5300000000	3.7967293583
2.5350000000	3.2506753944
2.5400000000	2.7879303137
2.5450000000	2.4013261903
2.5500000000	2.0806809707
2.5550000000	1.8168574030
2.5600000000	1.5954576725
2.5650000000	1.4282847311
2.5700000000	1.3062156518
2.5750000000	1.2248888389
2.5800000000	1.1758543819
2.5850000000	1.1477214135
2.5900000000	1.1298926642
2.5950000000	1.1158112344
2.6000000000	1.1033121755
2.6050000000	1.1005628901
2.6100000000	1.1020761956
2.6150000000	1.1098138064
2.6200000000	1.1248097854
2.6250000000	1.1472193951
2.6300000000	1.1763309573
2.6350000000	1.2105703214
2.6400000000	1.2475325542
2.6450000000	1.2841863246
2.6500000000	1.3173376480
2.6550000000	1.3443854466
2.6600000000	1.3641577195
2.6650000000	1.3774676655
2.6700000000	1.3869768775
2.6750000000	1.3965857344
2.6800000000	1.4100696023
2.6850000000	1.4310470190
2.6900000000	1.4621049943
2.6950000000	1.5049169514
2.7000000000	1.5603555969
2.7050000000	1.6364944708
2.7100000000	1.7288806182
2.7150000000	1.8363456261
2.7200000000	1.9562956951
2.7250000000	2.0841966129
2.7300000000	2.2131226208
2.7350000000	2.3336965290
2.7400000000	2.4347588876
2.7450000000	2.5050118501
2.7500000000	2.5354131908
2.7550000000	2.5215185340
2.7600000000	2.4647248621
2.7650000000	2.3717926979
2.7700000000	2.2529294369
2.7750000000	2.1193645383
2.7800000000	1.9813549343
2.7850000000	1.8470624162
2.7900000000	1.7212105153
2.7950000000	1.6089354389
2.8000000000	1.5113102375
2.8050000000	1.4195170462
2.8100000000	1.3455085156
2.8150000000	1.2867949122
2.8200000000	1.2406972533
2.8250000000	1.2047888432
2.8300000000	1.1770443206
2.8350000000	1.1558281566
2.8400000000	1.1397960903
2.8450000000	1.1278362771
2.8500000000	1.1190631738
2.8550000000	1.1128722672
2.8600000000	1.1089985824
2.8650000000	1.1075394718
2.8700000000	1.1088951325
2.8750000000	1.1136537823
2.8800000000	1.1224379082
2.8850000000	1.1357687185
2.8900000000	1.1539608791
2.8950000000	1.1770545923
2.9000000000	1.2047654142
2.9050000000	1.2444047372
2.9100000000	1.2865815409
2.9150000000	1.3286696934
2.9200000000	1.3673625959
2.9250000000	1.3991326441
2.9300000000	1.4207308525
2.9350000000	1.4297675610
2.9400000000	1.4251950638
2.9450000000	1.4075135072
2.9500000000	1.3786297557
2.9550000000	1.3413964849
2.9600000000	1.2990289772
2.9650000000	1.2545665035
2.9700000000	1.2105126806
2.9750000000	1.1686801818
2.9800000000	1.1302009413
2.9850000000	1.0956449589
2.9900000000	1.0651764936
2.9950000000	1.0387048638
3.0000000000	1.0160051229
