# energy (eV)    P(omega), $W$ = 300 nm, $h$ = 300 nm, $s$ = 20 nm, $d/W = 5$, $E_{\rm e}$ = 200 keV
0.2000000000	0.0653333876
0.2050000000	0.0662718775
0.2100000000	0.0671540576
0.2150000000	0.0679816884
0.2200000000	0.0687562873
0.2250000000	0.0694791090
0.2300000000	0.0701510750
0.2350000000	0.0707727606
0.2400000000	0.0713443299
0.2450000000	0.0718653944
0.2500000000	0.0723350922
0.2550000000	0.0727517675
0.2600000000	0.0731130008
0.2650000000	0.0734154197
0.2700000000	0.0736544017
0.2750000000	0.0738238955
0.2800000000	0.0739160572
0.2850000000	0.0739208583
0.2900000000	0.0738254141
0.2950000000	0.0736134779
0.3000000000	0.0732641284
0.3050000000	0.0727509348
0.3100000000	0.0720399649
0.3150000000	0.0759207282
0.3200000000	0.0805303398
0.3250000000	0.0863574099
0.3300000000	0.0941549906
0.3350000000	0.1038641590
0.3400000000	0.1165797936
0.3450000000	0.1320163062
0.3500000000	0.1522184205
0.3550000000	0.1789629542
0.3600000000	0.2139093888
0.3650000000	0.2626514959
0.3700000000	0.3269847064
0.3750000000	0.4165429687
0.3800000000	0.5461630556
0.3850000000	0.7482602371
0.3900000000	1.0677721343
0.3950000000	1.6109006662
0.4000000000	2.6469945170
0.4050000000	4.9714471351
0.4100000000	11.3185744502
0.4150000000	36.3544515790
0.4200000000	23.1405050592
0.4250000000	-43.6823845526
0.4300000000	12.1729348226
0.4350000000	7.5954314573
0.4400000000	4.6501428866
0.4450000000	3.0636145221
0.4500000000	2.1496894264
0.4550000000	1.5869252255
0.4600000000	1.2201905163
0.4650000000	0.9701529076
0.4700000000	0.7933497681
0.4750000000	0.6654405149
0.4800000000	0.5705862528
0.4850000000	0.4992101626
0.4900000000	0.4447394983
0.4950000000	0.4027600294
0.5000000000	0.3702553867
0.5050000000	0.3450098368
0.5100000000	0.3255995364
0.5150000000	0.3109767944
0.5200000000	0.3000400008
0.5250000000	0.2922985250
0.5300000000	0.2872213811
0.5350000000	0.2844213210
0.5400000000	0.2836133281
0.5450000000	0.2845594536
0.5500000000	0.2871888319
0.5550000000	0.2913687347
0.5600000000	0.2970345032
0.5650000000	0.3041588354
0.5700000000	0.3127186309
0.5750000000	0.3227751443
0.5800000000	0.3344279441
0.5850000000	0.3477424569
0.5900000000	0.3628431571
0.5950000000	0.3798844029
0.6000000000	0.3990625714
0.6050000000	0.4206591509
0.6100000000	0.4449453021
0.6150000000	0.4722890331
0.6200000000	0.5031815505
0.6250000000	0.5380931645
0.6300000000	0.5777190126
0.6350000000	0.6229255444
0.6400000000	0.6746146730
0.6450000000	0.7340876055
0.6500000000	0.8030557626
0.6550000000	0.8833010739
0.6600000000	0.9775612158
0.6650000000	1.0893517299
0.6700000000	1.2228056224
0.6750000000	1.3842228681
0.6800000000	1.5820857664
0.6850000000	1.8274979301
0.6900000000	2.1376709513
0.6950000000	2.5366687305
0.7000000000	3.0627393092
0.7050000000	3.7743521815
0.7100000000	4.7706077136
0.7150000000	6.2279381817
0.7200000000	8.4748776708
0.7250000000	12.2060338864
0.7300000000	19.0572076116
0.7350000000	33.7223745273
0.7400000000	73.9580840598
0.7450000000	245.5339424026
0.7500000000	761.2292630000
0.7550000000	191.6478554064
0.7600000000	63.5178073523
0.7650000000	30.4576681659
0.7700000000	17.7270077110
0.7750000000	11.5791241410
0.7800000000	8.1552882361
0.7850000000	6.0618838577
0.7900000000	4.6871821893
0.7950000000	3.7387395808
0.8000000000	3.0567054558
0.8050000000	2.5485700453
0.8100000000	2.1609559312
0.8150000000	1.8535670302
0.8200000000	1.6108912884
0.8250000000	1.4154366842
0.8300000000	1.2552751411
0.8350000000	1.1235638847
0.8400000000	1.0131255457
0.8450000000	0.9204333160
0.8500000000	0.8420751760
0.8550000000	0.7744364463
0.8600000000	0.7166944744
0.8650000000	0.6673846621
0.8700000000	0.6238022352
0.8750000000	0.5867485578
0.8800000000	0.5553361612
0.8850000000	0.5271702471
0.8900000000	0.5046363668
0.8950000000	0.4841350378
0.9000000000	0.4679524912
0.9050000000	0.4569314175
0.9100000000	0.4468377391
0.9150000000	0.4408666980
0.9200000000	0.4405130062
0.9250000000	0.4403271998
0.9300000000	0.4341704646
0.9350000000	0.4148919113
0.9400000000	0.3060617820
0.9450000000	-0.1898641907
0.9500000000	-2.8096843855
0.9550000000	-16.1073540045
0.9600000000	3.8045455720
0.9650000000	6.6869142831
0.9700000000	2.9679034776
0.9750000000	1.5587832721
0.9800000000	0.9771459950
0.9850000000	0.7050371436
0.9900000000	0.5481741426
0.9950000000	0.4530243080
1.0000000000	0.3922595548
1.0050000000	0.3537527474
1.0100000000	0.3238668843
1.0150000000	0.3020205738
1.0200000000	0.2873124624
1.0250000000	0.2749349099
1.0300000000	0.2655109756
1.0350000000	0.2583562399
1.0400000000	0.2537861947
1.0450000000	0.2499437821
1.0500000000	0.2473579335
1.0550000000	0.2458805696
1.0600000000	0.2458532983
1.0650000000	0.2463255797
1.0700000000	0.2476812109
1.0750000000	0.2499246896
1.0800000000	0.2533075790
1.0850000000	0.2576082820
1.0900000000	0.2640187664
1.0950000000	0.2716422056
1.1000000000	0.2807462293
1.1050000000	0.2912138915
1.1100000000	0.3033871120
1.1150000000	0.3175356667
1.1200000000	0.3339905919
1.1250000000	0.3531296484
1.1300000000	0.3755238118
1.1350000000	0.4018625928
1.1400000000	0.4329441114
1.1450000000	0.4701670731
1.1500000000	0.5151007405
1.1550000000	0.5699910437
1.1600000000	0.6380060742
1.1650000000	0.7232687574
1.1700000000	0.8334405559
1.1750000000	0.9787464623
1.1800000000	1.1760657486
1.1850000000	1.4531272995
1.1900000000	1.8622684973
1.1950000000	2.5038022306
1.2000000000	3.5910634816
1.2050000000	5.6446423450
1.2100000000	10.1610391677
1.2150000000	22.3703589976
1.2200000000	54.8653251280
1.2250000000	49.3417047266
1.2300000000	19.7405760609
1.2350000000	9.3074822823
1.2400000000	5.3577105049
1.2450000000	3.5476123396
1.2500000000	2.5966438732
1.2550000000	2.0522488247
1.2600000000	1.7260184514
1.2650000000	1.5274617886
1.2700000000	1.4165943089
1.2750000000	1.3676198477
1.2800000000	1.3688746190
1.2850000000	1.4160836868
1.2900000000	1.5105321166
1.2950000000	1.6576019157
1.3000000000	1.8741948012
1.3050000000	2.1823136768
1.3100000000	2.6217544958
1.3150000000	3.2610818028
1.3200000000	4.2230514009
1.3250000000	5.7420873797
1.3300000000	8.3298505069
1.3350000000	13.1743383113
1.3400000000	23.5276675135
1.3450000000	49.2356650584
1.3500000000	104.5939566501
1.3550000000	97.6123020100
1.3600000000	45.0308691362
1.3650000000	22.1285796562
1.3700000000	12.6904591822
1.3750000000	8.1603420892
1.3800000000	5.6901849226
1.3850000000	4.2024354189
1.3900000000	3.2440682646
1.3950000000	2.5906289591
1.4000000000	2.1266127922
1.4050000000	1.7868353349
1.4100000000	1.5322086275
1.4150000000	1.3400786968
1.4200000000	1.1956039660
1.4250000000	1.0988526885
1.4300000000	1.0634607352
1.4350000000	1.0832629757
1.4400000000	0.8344470479
1.4450000000	0.0722406149
1.4500000000	-1.1650991303
1.4550000000	-0.3265699739
1.4600000000	1.4112124582
1.4650000000	0.7639467175
1.4700000000	-0.7217789485
1.4750000000	-3.1583751979
1.4800000000	-1.4056983224
1.4850000000	2.3102672743
1.4900000000	1.8727137309
1.4950000000	1.2121490903
1.5000000000	0.8516739114
1.5050000000	0.6575716751
1.5100000000	0.5469394986
1.5150000000	0.4797530536
1.5200000000	0.4363521353
1.5250000000	0.4093861272
1.5300000000	0.3887876320
1.5350000000	0.3745896888
1.5400000000	0.3652380357
1.5450000000	0.3598988022
1.5500000000	0.3580336372
1.5550000000	0.3596563800
1.5600000000	0.3657262297
1.5650000000	0.3757512109
1.5700000000	0.3919825090
1.5750000000	0.4171663722
1.5800000000	0.4564592220
1.5850000000	0.5198983126
1.5900000000	0.6286306139
1.5950000000	0.8294528320
1.6000000000	1.2212137258
1.6050000000	1.8689782896
1.6100000000	2.1689784947
1.6150000000	1.6065924951
1.6200000000	1.0790079727
1.6250000000	0.8005143145
1.6300000000	0.6606804933
1.6350000000	0.5886870750
1.6400000000	0.5521939321
1.6450000000	0.5361700022
1.6500000000	0.5330881392
1.6550000000	0.5394222093
1.6600000000	0.5530676667
1.6650000000	0.5730633878
1.6700000000	0.5990438200
1.6750000000	0.6310108720
1.6800000000	0.6692500896
1.6850000000	0.7142045180
1.6900000000	0.7662656487
1.6950000000	0.8246927411
1.7000000000	0.8885030906
1.7050000000	0.9538895800
1.7100000000	1.0284959286
1.7150000000	1.2139768073
1.7200000000	1.5394349321
1.7250000000	1.8375936256
1.7300000000	2.1575483225
1.7350000000	2.5091182043
1.7400000000	2.8541111435
1.7450000000	3.2972415061
1.7500000000	3.9673570623
1.7550000000	4.9647480961
1.7600000000	6.4570264324
1.7650000000	8.7573846877
1.7700000000	12.4628583034
1.7750000000	18.7056197796
1.7800000000	29.3431675317
1.7850000000	45.0310781423
1.7900000000	55.9615989840
1.7950000000	47.6524293808
1.8000000000	31.7140576251
1.8050000000	20.0281789803
1.8100000000	13.2050762790
1.8150000000	9.2057859567
1.8200000000	6.7445679393
1.8250000000	5.1489524701
1.8300000000	4.0655854814
1.8350000000	3.3009008634
1.8400000000	2.7437932642
1.8450000000	2.3268640575
1.8500000000	2.0076372849
1.8550000000	1.7595347371
1.8600000000	1.5640158445
1.8650000000	1.4084802371
1.8700000000	1.2839664386
1.8750000000	1.1838955939
1.8800000000	1.1030495843
1.8850000000	1.0368180348
1.8900000000	0.9798888828
1.8950000000	0.9243354382
1.9000000000	0.8564696031
1.9050000000	0.7279794957
1.9100000000	0.5511542986
1.9150000000	0.4576112010
1.9200000000	1.1184965824
1.9250000000	2.9447199500
1.9300000000	4.3930326651
1.9350000000	4.3254049456
1.9400000000	3.4020115024
1.9450000000	2.5067622468
1.9500000000	1.8781975838
1.9550000000	1.4663443925
1.9600000000	1.1941800677
1.9650000000	1.0120156187
1.9700000000	0.8805085976
1.9750000000	0.7841089952
1.9800000000	0.7105116300
1.9850000000	0.6507887668
1.9900000000	0.5981088717
1.9950000000	0.5465096513
2.0000000000	0.4951219576
2.0050000000	0.4622913368
2.0100000000	0.4811007759
2.0150000000	0.5329170051
2.0200000000	0.5648660709
2.0250000000	0.5733521981
2.0300000000	0.5752616031
2.0350000000	0.5787359265
2.0400000000	0.5868000085
2.0450000000	0.6002247347
2.0500000000	0.6195099687
2.0550000000	0.6451095639
2.0600000000	0.6770238513
2.0650000000	0.7133205535
2.0700000000	0.7492076940
2.0750000000	0.7810943674
2.0800000000	0.8121499483
2.0850000000	0.8489284488
2.0900000000	0.8958235061
2.0950000000	0.9546857788
2.1000000000	1.0275066936
2.1050000000	1.1136272402
2.1100000000	1.2191000791
2.1150000000	1.3483498935
2.1200000000	1.5075817250
2.1250000000	1.7054990483
2.1300000000	1.9543702505
2.1350000000	2.2717107779
2.1400000000	2.6828123664
2.1450000000	3.2246517017
2.1500000000	3.9511051792
2.1550000000	4.9384226302
2.1600000000	6.2841918877
2.1650000000	8.0710578718
2.1700000000	10.2659595530
2.1750000000	12.4481498349
2.1800000000	13.7964655931
2.1850000000	13.8665167264
2.1900000000	13.2534571814
2.1950000000	12.7763870427
2.2000000000	12.5648233048
2.2050000000	11.9771763220
2.2100000000	10.7295763163
2.2150000000	9.1956562074
2.2200000000	7.8186417205
2.2250000000	6.6805905146
2.2300000000	5.6784824564
2.2350000000	4.7724348612
2.2400000000	3.9941810753
2.2450000000	3.3714783412
2.2500000000	2.8941244235
2.2550000000	2.5355335123
2.2600000000	2.2670441425
2.2650000000	2.0599343547
2.2700000000	1.8831544040
2.2750000000	1.7061124748
2.2800000000	1.5155023186
2.2850000000	1.3341201999
2.2900000000	1.2087737790
2.2950000000	1.1659597550
2.3000000000	1.1812641427
2.3050000000	1.2046335397
2.3100000000	1.2065970773
2.3150000000	1.1873938405
2.3200000000	1.1597811306
2.3250000000	1.1369357856
2.3300000000	1.1255999513
2.3350000000	1.1269315434
2.3400000000	1.1371534177
2.3450000000	1.1477173390
2.3500000000	1.1478594568
2.3550000000	1.1307125142
2.3600000000	1.0982199844
2.3650000000	1.0588743851
2.3700000000	1.0214295691
2.3750000000	0.9911138042
2.3800000000	0.9696255036
2.3850000000	0.9564843586
2.3900000000	0.9505950599
2.3950000000	0.9506887976
2.4000000000	0.9571111037
2.4050000000	0.9719770155
2.4100000000	0.9959953119
2.4150000000	1.0301472237
2.4200000000	1.0750224647
2.4250000000	1.1316533587
2.4300000000	1.2015455631
2.4350000000	1.2867188632
2.4400000000	1.3897796223
2.4450000000	1.5140557364
2.4500000000	1.6637458349
2.4550000000	1.8441272126
2.4600000000	2.0616836917
2.4650000000	2.3241945570
2.4700000000	2.6405818171
2.4750000000	3.0197824983
2.4800000000	3.4710263958
2.4850000000	3.9979671136
2.4900000000	4.5954540918
2.4950000000	5.2421057658
2.5000000000	5.8927042038
2.5050000000	6.5013129073
2.5100000000	6.9124758944
2.5150000000	7.0365299363
2.5200000000	6.8521051234
2.5250000000	6.4161308497
2.5300000000	5.8277908998
2.5350000000	5.1827466962
2.5400000000	4.5485831458
2.5450000000	3.9634871857
2.5500000000	3.4444403398
2.5550000000	2.9953085735
2.5600000000	2.6099167157
2.5650000000	2.2859000803
2.5700000000	2.0156298803
2.5750000000	1.7943303838
2.5800000000	1.6184343213
2.5850000000	1.4840640172
2.5900000000	1.3848419467
2.5950000000	1.3118019964
2.6000000000	1.2556085344
2.6050000000	1.2156727595
2.6100000000	1.1810938719
2.6150000000	1.1513237321
2.6200000000	1.1269504393
2.6250000000	1.1086255770
2.6300000000	1.0967842569
2.6350000000	1.0916484954
2.6400000000	1.0933472531
2.6450000000	1.1020005091
2.6500000000	1.1178431267
2.6550000000	1.1409409026
2.6600000000	1.1716482846
2.6650000000	1.2103233474
2.6700000000	1.2574059650
2.6750000000	1.3134291702
2.6800000000	1.3789837517
2.6850000000	1.4546740408
2.6900000000	1.5409950292
2.6950000000	1.6382337558
2.7000000000	1.7462916627
2.7050000000	1.8774584943
2.7100000000	2.0206082886
2.7150000000	2.1729532144
2.7200000000	2.3304386687
2.7250000000	2.4879712087
2.7300000000	2.6398038425
2.7350000000	2.7798673491
2.7400000000	2.9018500765
2.7450000000	3.0001497606
2.7500000000	3.0660760572
2.7550000000	3.0943682318
2.7600000000	3.0810344876
2.7650000000	3.0256107940
2.7700000000	2.9318113115
2.7750000000	2.8070773996
2.7800000000	2.6611083270
2.7850000000	2.5041936866
2.7900000000	2.3455657708
2.7950000000	2.1926280292
2.8000000000	2.0506154269
2.8050000000	1.9069321625
2.8100000000	1.7839583885
2.8150000000	1.6813642659
2.8200000000	1.5974982979
2.8250000000	1.5301838313
2.8300000000	1.4772282495
2.8350000000	1.4367550621
2.8400000000	1.4067889025
2.8450000000	1.3873985217
2.8500000000	1.3771483358
2.8550000000	1.3754913391
2.8600000000	1.3820190658
2.8650000000	1.3963635338
2.8700000000	1.4181130993
2.8750000000	1.4467454863
2.8800000000	1.4815759953
2.8850000000	1.5217141622
2.8900000000	1.5660895860
2.8950000000	1.6134916796
2.9000000000	1.6626473844
2.9050000000	1.7217163377
2.9100000000	1.7783813498
2.9150000000	1.8308601022
2.9200000000	1.8772821021
2.9250000000	1.9155250436
2.9300000000	1.9436347205
2.9350000000	1.9585719392
2.9400000000	1.9590250066
2.9450000000	1.9444351990
2.9500000000	1.9156442825
2.9550000000	1.8748403811
2.9600000000	1.8251817802
2.9650000000	1.7702470714
2.9700000000	1.7134967100
2.9750000000	1.6578880106
2.9800000000	1.6056869676
2.9850000000	1.5584396003
2.9900000000	1.5170757821
2.9950000000	1.4820320036
3.0000000000	1.4534000960
