# energy (eV)    P(omega), $W$ = 400 nm, $h$ = 300 nm, $s$ = 20 nm, $d/W = 5$, $E_{\rm e}$ = 200 keV
0.2000000000	0.0513043646
0.2050000000	0.0517710558
0.2100000000	0.0520996251
0.2150000000	0.0522845392
0.2200000000	0.0523180601
0.2250000000	0.0521896758
0.2300000000	0.0518855538
0.2350000000	0.0513876841
0.2400000000	0.0506729046
0.2450000000	0.0497113643
0.2500000000	0.0484648981
0.2550000000	0.0468843992
0.2600000000	0.0449065857
0.2650000000	0.0469788205
0.2700000000	0.0522426784
0.2750000000	0.0597750965
0.2800000000	0.0702698862
0.2850000000	0.0857419479
0.2900000000	0.1049129160
0.2950000000	0.1323961017
0.3000000000	0.1693413305
0.3050000000	0.2259695203
0.3100000000	0.3048507754
0.3150000000	0.4574824374
0.3200000000	0.6958632662
0.3250000000	0.8590685087
0.3300000000	1.0848339309
0.3350000000	1.4048886666
0.3400000000	1.9073098263
0.3450000000	2.7693031164
0.3500000000	4.4881920585
0.3550000000	8.4672049318
0.3600000000	20.8091862069
0.3650000000	0.0940388311
0.3700000000	9.6443050202
0.3750000000	12.6818826812
0.3800000000	5.9093155824
0.3850000000	3.3287683143
0.3900000000	2.1351084912
0.3950000000	1.5045650999
0.4000000000	1.1394809967
0.4050000000	0.9014718064
0.4100000000	0.7465225713
0.4150000000	0.6443249549
0.4200000000	0.5797339311
0.4250000000	0.5290058627
0.4300000000	0.4690636311
0.4350000000	0.4216228875
0.4400000000	0.3841025469
0.4450000000	0.3542694262
0.4500000000	0.3307163050
0.4550000000	0.3120393025
0.4600000000	0.2974696581
0.4650000000	0.2861942800
0.4700000000	0.2776748884
0.4750000000	0.2715348657
0.4800000000	0.2674455586
0.4850000000	0.2651187917
0.4900000000	0.2643841453
0.4950000000	0.2651105054
0.5000000000	0.2671858415
0.5050000000	0.2705602168
0.5100000000	0.2751927220
0.5150000000	0.2810590429
0.5200000000	0.2881713341
0.5250000000	0.2965395625
0.5300000000	0.3062865828
0.5350000000	0.3174670071
0.5400000000	0.3301791812
0.5450000000	0.3445520777
0.5500000000	0.3607681718
0.5550000000	0.3790270627
0.5600000000	0.3995716961
0.5650000000	0.4227144750
0.5700000000	0.4488866593
0.5750000000	0.4784078798
0.5800000000	0.5118762057
0.5850000000	0.5501087957
0.5900000000	0.5936568291
0.5950000000	0.6436801385
0.6000000000	0.7017110124
0.6050000000	0.7688978608
0.6100000000	0.8478732725
0.6150000000	0.9408203346
0.6200000000	1.0514866036
0.6250000000	1.1852485554
0.6300000000	1.3475892628
0.6350000000	1.5488119192
0.6400000000	1.8002836622
0.6450000000	2.1226318129
0.6500000000	2.5422055750
0.6550000000	3.1036379241
0.6600000000	3.8822907472
0.6650000000	4.9972291126
0.6700000000	6.6855103744
0.6750000000	9.4000093510
0.6800000000	14.1983933475
0.6850000000	23.8266523087
0.6900000000	47.7523377982
0.6950000000	134.0477123268
0.7000000000	650.1416367284
0.7050000000	316.0818751206
0.7100000000	81.1947187642
0.7150000000	34.5285342806
0.7200000000	18.8564590833
0.7250000000	11.8452186937
0.7300000000	8.1241780046
0.7350000000	5.9244872159
0.7400000000	4.5158860769
0.7450000000	3.5597839113
0.7500000000	2.8824995245
0.7550000000	2.3849187011
0.7600000000	2.0098811038
0.7650000000	1.7190449864
0.7700000000	1.4894598052
0.7750000000	1.3051459678
0.7800000000	1.1553663977
0.7850000000	1.0320383229
0.7900000000	0.9287180870
0.7950000000	0.8424267409
0.8000000000	0.7690558613
0.8050000000	0.7061958462
0.8100000000	0.6526831247
0.8150000000	0.6057814925
0.8200000000	0.5649486214
0.8250000000	0.5306826713
0.8300000000	0.5006886111
0.8350000000	0.4746131175
0.8400000000	0.4538477666
0.8450000000	0.4357288603
0.8500000000	0.4203659042
0.8550000000	0.4106548647
0.8600000000	0.4028760539
0.8650000000	0.3973062062
0.8700000000	0.3992441861
0.8750000000	0.3999224872
0.8800000000	0.3977692979
0.8850000000	0.3804739823
0.8900000000	0.2952627790
0.8950000000	-0.1317719081
0.9000000000	-2.4216435416
0.9050000000	-15.9120235426
0.9100000000	3.0299625479
0.9150000000	7.1774040055
0.9200000000	2.9794782449
0.9250000000	1.5500113820
0.9300000000	0.9461649531
0.9350000000	0.6576672741
0.9400000000	0.5020352799
0.9450000000	0.4157695041
0.9500000000	0.3545071528
0.9550000000	0.3134990037
0.9600000000	0.2881374398
0.9650000000	0.2672115623
0.9700000000	0.2522799990
0.9750000000	0.2421043754
0.9800000000	0.2359101371
0.9850000000	0.2347761111
0.9900000000	0.2370381564
0.9950000000	0.2461652044
1.0000000000	0.2679830800
1.0050000000	0.3189190484
1.0100000000	0.4524069878
1.0150000000	0.9099088434
1.0200000000	1.7474704293
1.0250000000	0.7943878149
1.0300000000	0.4068359100
1.0350000000	0.2913275167
1.0400000000	0.2459041517
1.0450000000	0.2245940997
1.0500000000	0.2139108613
1.0550000000	0.2083048449
1.0600000000	0.2057867716
1.0650000000	0.2053126031
1.0700000000	0.2063035083
1.0750000000	0.2085555989
1.0800000000	0.2116647648
1.0850000000	0.2158968961
1.0900000000	0.2220131578
1.0950000000	0.2291439279
1.1000000000	0.2373590543
1.1050000000	0.2466733047
1.1100000000	0.2572340680
1.1150000000	0.2691818538
1.1200000000	0.2826834288
1.1250000000	0.2978768021
1.1300000000	0.3151555756
1.1350000000	0.3347850700
1.1400000000	0.3571626038
1.1450000000	0.3827934190
1.1500000000	0.4120706930
1.1550000000	0.4462186191
1.1600000000	0.4860113180
1.1650000000	0.5324627310
1.1700000000	0.5857830509
1.1750000000	0.6398591670
1.1800000000	0.6910330629
1.1850000000	0.9604376656
1.1900000000	1.1919095610
1.1950000000	1.6339330776
1.2000000000	2.2253099844
1.2050000000	1.9519669078
1.2100000000	1.8680552016
1.2150000000	2.0796755923
1.2200000000	2.4873078348
1.2250000000	3.1133037151
1.2300000000	4.0651756918
1.2350000000	5.5709380294
1.2400000000	8.1073950783
1.2450000000	12.8835265409
1.2500000000	23.2272793966
1.2550000000	50.2797574425
1.2600000000	121.4465368833
1.2650000000	123.0202642574
1.2700000000	51.1739077526
1.2750000000	23.6219182234
1.2800000000	13.0822378537
1.2850000000	8.2268877741
1.2900000000	5.6387792325
1.2950000000	4.1096252274
1.3000000000	3.1356217453
1.3050000000	2.4798282846
1.3100000000	2.0173881713
1.3150000000	1.6832521644
1.3200000000	1.4355565660
1.3250000000	1.2491564186
1.3300000000	1.1087787605
1.3350000000	1.0050518838
1.3400000000	0.9331101689
1.3450000000	0.8916191032
1.3500000000	0.8866304439
1.3550000000	0.9319217013
1.3600000000	1.0625492981
1.3650000000	1.3677224749
1.3700000000	2.0965211360
1.3750000000	3.9098345116
1.3800000000	6.3864283819
1.3850000000	4.4614089243
1.3900000000	2.2735691167
1.3950000000	1.3192053220
1.4000000000	0.8639488697
1.4050000000	0.5841463270
1.4100000000	0.3308987062
1.4150000000	-0.0468995705
1.4200000000	-0.8927345893
1.4250000000	-3.1339745701
1.4300000000	-4.2138301286
1.4350000000	1.9305230650
1.4400000000	2.4694361233
1.4450000000	1.4805330156
1.4500000000	0.9212467567
1.4550000000	0.6350553512
1.4600000000	0.4689509818
1.4650000000	0.3376784489
1.4700000000	0.1972646287
1.4750000000	0.2318153124
1.4800000000	0.3398484371
1.4850000000	0.3085937233
1.4900000000	0.2732528157
1.4950000000	0.2503940175
1.5000000000	0.2353776303
1.5050000000	0.2254488068
1.5100000000	0.2186944039
1.5150000000	0.2150089871
1.5200000000	0.2122923076
1.5250000000	0.2113122738
1.5300000000	0.2121591714
1.5350000000	0.2152206000
1.5400000000	0.2214635492
1.5450000000	0.2330355538
1.5500000000	0.2547634696
1.5550000000	0.2962685922
1.5600000000	0.3585707252
1.5650000000	0.3685552646
1.5700000000	0.3123333317
1.5750000000	0.2728810089
1.5800000000	0.2558616550
1.5850000000	0.2505063260
1.5900000000	0.2512001476
1.5950000000	0.2555047139
1.6000000000	0.2623576705
1.6050000000	0.2713932750
1.6100000000	0.2823384306
1.6150000000	0.2951524613
1.6200000000	0.3100394831
1.6250000000	0.3271755797
1.6300000000	0.3468501563
1.6350000000	0.3694363173
1.6400000000	0.3954111633
1.6450000000	0.4253840467
1.6500000000	0.4601198484
1.6550000000	0.5005878894
1.6600000000	0.5480440244
1.6650000000	0.6041092940
1.6700000000	0.6703598507
1.6750000000	0.7506636133
1.6800000000	0.8484394936
1.6850000000	0.9690660710
1.6900000000	1.1201799274
1.6950000000	1.3129874558
1.7000000000	1.5643585880
1.7050000000	1.9111317489
1.7100000000	2.3949418943
1.7150000000	3.0981700343
1.7200000000	4.1699132666
1.7250000000	5.8701911009
1.7300000000	8.4830536248
1.7350000000	11.8362110166
1.7400000000	16.0751441056
1.7450000000	23.5137640042
1.7500000000	33.1697720092
1.7550000000	33.7033550662
1.7600000000	23.6450522857
1.7650000000	14.7286611951
1.7700000000	9.4416499833
1.7750000000	6.4352606409
1.7800000000	4.6586131480
1.7850000000	3.5657551544
1.7900000000	2.8880177684
1.7950000000	2.5002254330
1.8000000000	2.3437034556
1.8050000000	2.2941497181
1.8100000000	2.0411338962
1.8150000000	1.5815858800
1.8200000000	1.2144385087
1.8250000000	1.0251381298
1.8300000000	0.8924883451
1.8350000000	0.7745997375
1.8400000000	0.6784704305
1.8450000000	0.6021857746
1.8500000000	0.5407082863
1.8550000000	0.4899208169
1.8600000000	0.4432031479
1.8650000000	0.4037073650
1.8700000000	0.3637904971
1.8750000000	0.3062472008
1.8800000000	0.1750805178
1.8850000000	-0.1123944477
1.8900000000	-0.4990650688
1.8950000000	-0.5654094101
1.9000000000	0.0605037944
1.9050000000	0.6440773299
1.9100000000	0.7121728658
1.9150000000	0.6016540307
1.9200000000	0.4933353811
1.9250000000	0.4164721177
1.9300000000	0.3699234615
1.9350000000	0.3343855655
1.9400000000	0.3107448563
1.9450000000	0.2950959683
1.9500000000	0.2841577578
1.9550000000	0.2750048213
1.9600000000	0.2671015211
1.9650000000	0.2614893427
1.9700000000	0.2584922095
1.9750000000	0.2579107217
1.9800000000	0.2595832234
1.9850000000	0.2635582494
1.9900000000	0.2700967563
1.9950000000	0.2795252020
2.0000000000	0.2915983851
2.0050000000	0.3052946971
2.0100000000	0.3151193186
2.0150000000	0.3216718136
2.0200000000	0.3295728853
2.0250000000	0.3417688383
2.0300000000	0.3591266995
2.0350000000	0.3820804869
2.0400000000	0.4114183071
2.0450000000	0.4485076313
2.0500000000	0.4953124192
2.0550000000	0.5540152231
2.0600000000	0.6256745975
2.0650000000	0.7091639202
2.0700000000	0.8057373196
2.0750000000	0.9261678265
2.0800000000	1.0882415941
2.0850000000	1.3093002689
2.0900000000	1.5994292717
2.0950000000	1.9377841375
2.1000000000	2.2393530460
2.1050000000	2.3854827921
2.1100000000	2.3160888548
2.1150000000	2.1564027493
2.1200000000	2.0435356037
2.1250000000	2.0387217417
2.1300000000	2.1601282582
2.1350000000	2.4221542740
2.1400000000	2.8536404823
2.1450000000	3.5056104474
2.1500000000	4.4495139665
2.1550000000	5.7390209672
2.1600000000	7.2701412509
2.1650000000	8.5570208004
2.1700000000	8.8610913330
2.1750000000	7.9321086075
2.1800000000	6.4037992808
2.1850000000	4.9408313298
2.1900000000	3.7970071865
2.1950000000	2.9706287046
2.2000000000	2.3908562421
2.2050000000	1.9908618959
2.2100000000	1.7131846421
2.2150000000	1.5002036625
2.2200000000	1.3093588152
2.2250000000	1.1278341139
2.2300000000	0.9634758757
2.2350000000	0.8223515628
2.2400000000	0.7028242862
2.2450000000	0.5996170752
2.2500000000	0.5074773715
2.2550000000	0.4234675635
2.2600000000	0.3394562263
2.2650000000	0.2783401068
2.2700000000	0.2451418712
2.2750000000	0.2534993639
2.2800000000	0.3017175355
2.2850000000	0.3631178338
2.2900000000	0.4080616010
2.2950000000	0.4279813376
2.3000000000	0.4302598043
2.3050000000	0.4233865654
2.3100000000	0.4143325984
2.3150000000	0.4063100641
2.3200000000	0.4005889262
2.3250000000	0.3978667176
2.3300000000	0.3987078676
2.3350000000	0.4035799236
2.3400000000	0.4128822655
2.3450000000	0.4270189650
2.3500000000	0.4464180910
2.3550000000	0.4717213734
2.3600000000	0.5025133219
2.3650000000	0.5389854886
2.3700000000	0.5810364263
2.3750000000	0.6291226050
2.3800000000	0.6849798239
2.3850000000	0.7506677718
2.3900000000	0.8266419108
2.3950000000	0.9095192517
2.4000000000	0.9906029264
2.4050000000	1.0604791869
2.4100000000	1.0992099655
2.4150000000	1.1029122294
2.4200000000	1.0810549042
2.4250000000	1.0497850284
2.4300000000	1.0234334543
2.4350000000	1.0106509390
2.4400000000	1.0148895376
2.4450000000	1.0367070264
2.4500000000	1.0761731457
2.4550000000	1.1341673190
2.4600000000	1.2144075612
2.4650000000	1.3207052837
2.4700000000	1.4573047645
2.4750000000	1.6268568733
2.4800000000	1.8280238609
2.4850000000	2.0522224544
2.4900000000	2.2798185938
2.4950000000	2.4782305954
2.5000000000	2.6066872709
2.5050000000	2.6232015859
2.5100000000	2.5110084547
2.5150000000	2.3007311598
2.5200000000	2.0413003001
2.5250000000	1.7757027308
2.5300000000	1.5301415683
2.5350000000	1.3156264846
2.5400000000	1.1337783348
2.5450000000	0.9818990920
2.5500000000	0.8560789165
2.5550000000	0.7528048558
2.5600000000	0.6664501664
2.5650000000	0.6018241656
2.5700000000	0.5553885981
2.5750000000	0.5254874324
2.5800000000	0.5088017163
2.5850000000	0.5007922176
2.5900000000	0.4971989647
2.5950000000	0.4953693063
2.6000000000	0.4944479405
2.6050000000	0.4983906995
2.6100000000	0.5046375249
2.6150000000	0.5141449003
2.6200000000	0.5274209972
2.6250000000	0.5444971245
2.6300000000	0.5648912793
2.6350000000	0.5875804604
2.6400000000	0.6110015808
2.6450000000	0.6331725254
2.6500000000	0.6519941285
2.6550000000	0.6657452969
2.6600000000	0.6736265673
2.6650000000	0.6761075261
2.6700000000	0.6748274635
2.6750000000	0.6721826268
2.6800000000	0.6704949454
2.6850000000	0.6719337889
2.6900000000	0.6780099167
2.6950000000	0.6896517738
2.7000000000	0.7073045196
2.7050000000	0.7337287531
2.7100000000	0.7677358419
2.7150000000	0.8087759848
2.7200000000	0.8557126912
2.7250000000	0.9066167443
2.7300000000	0.9585756465
2.7350000000	1.0076627474
2.7400000000	1.0492073588
2.7450000000	1.0784671361
2.7500000000	1.0916196927
2.7550000000	1.0867392318
2.7600000000	1.0643177957
2.7650000000	1.0270876157
2.7700000000	0.9792296184
2.7750000000	0.9253759813
2.7800000000	0.8697742410
2.7850000000	0.8158223027
2.7900000000	0.7654900910
2.7950000000	0.7209332573
2.8000000000	0.6825977511
2.8050000000	0.6470919687
2.8100000000	0.6190981253
2.8150000000	0.5975141210
2.8200000000	0.5811426992
2.8250000000	0.5688852153
2.8300000000	0.5598079148
2.8350000000	0.5531362815
2.8400000000	0.5482158656
2.8450000000	0.5444910320
2.8500000000	0.5415156092
2.8550000000	0.5389934032
2.8600000000	0.5368241410
2.8650000000	0.5351182820
2.8700000000	0.5341689587
2.8750000000	0.5343793303
2.8800000000	0.5361733137
2.8850000000	0.5399150565
2.8900000000	0.5458528723
2.8950000000	0.5540854185
2.9000000000	0.5645450641
2.9050000000	0.5801906228
2.9100000000	0.5973478748
2.9150000000	0.6148712924
2.9200000000	0.6313131745
2.9250000000	0.6451183390
2.9300000000	0.6548428427
2.9350000000	0.6594070640
2.9400000000	0.6583046285
2.9450000000	0.6516991026
2.9500000000	0.6403628345
2.9550000000	0.6254801035
2.9600000000	0.6083975178
2.9650000000	0.5903906182
2.9700000000	0.5725083947
2.9750000000	0.5555052714
2.9800000000	0.5398457173
2.9850000000	0.5257544032
2.9900000000	0.5132835773
2.9950000000	0.5023785586
3.0000000000	0.4929311859
