# energy (eV)    P(omega), $W$ = 300 nm, $h$ = 300 nm, $s$ = 20 nm, $d/W = 5$, $E_{\rm e}$ = 200 keV
0.2000000000	0.2573554986
0.2050000000	0.2612113579
0.2100000000	0.2648155106
0.2150000000	0.2681761718
0.2200000000	0.2713003748
0.2250000000	0.2741940842
0.2300000000	0.2768618727
0.2350000000	0.2793067694
0.2400000000	0.2815299521
0.2450000000	0.2835305919
0.2500000000	0.2853054177
0.2550000000	0.2868481314
0.2600000000	0.2881492693
0.2650000000	0.2891950842
0.2700000000	0.2899669319
0.2750000000	0.2904401084
0.2800000000	0.2905825285
0.2850000000	0.2903529353
0.2900000000	0.2896984814
0.2950000000	0.2885520982
0.3000000000	0.2868281236
0.3050000000	0.2844173853
0.3100000000	0.2811801273
0.3150000000	0.2971806486
0.3200000000	0.3161833883
0.3250000000	0.3402189239
0.3300000000	0.3724092083
0.3350000000	0.4124774242
0.3400000000	0.4649474698
0.3450000000	0.5285859402
0.3500000000	0.6118335947
0.3550000000	0.7219811610
0.3600000000	0.8657927616
0.3650000000	1.0662735561
0.3700000000	1.3306042566
0.3750000000	1.6982780577
0.3800000000	2.2300113820
0.3850000000	3.0585165111
0.3900000000	4.3673043994
0.3950000000	6.5903267108
0.4000000000	10.8280098470
0.4050000000	20.3283919151
0.4100000000	46.2502064463
0.4150000000	148.4199087683
0.4200000000	94.5666411703
0.4250000000	-177.9773239895
0.4300000000	49.4861296443
0.4350000000	30.8355220802
0.4400000000	18.8482747067
0.4450000000	12.3959520089
0.4500000000	8.6816559681
0.4550000000	6.3959862907
0.4600000000	4.9073924222
0.4650000000	3.8930330093
0.4700000000	3.1761184096
0.4750000000	2.6576387070
0.4800000000	2.2732321414
0.4850000000	1.9839750458
0.4900000000	1.7631732864
0.4950000000	1.5929074448
0.5000000000	1.4609289447
0.5050000000	1.3582514617
0.5100000000	1.2790881376
0.5150000000	1.2191782433
0.5200000000	1.1740701180
0.5250000000	1.1417564445
0.5300000000	1.1200841026
0.5350000000	1.1074779200
0.5400000000	1.1027765189
0.5450000000	1.1050099002
0.5500000000	1.1138699603
0.5550000000	1.1288096443
0.5600000000	1.1495486743
0.5650000000	1.1759607716
0.5700000000	1.2079305407
0.5750000000	1.2456810416
0.5800000000	1.2895750889
0.5850000000	1.3398489968
0.5900000000	1.3969617692
0.5950000000	1.4614912004
0.6000000000	1.5341732434
0.6050000000	1.6160754321
0.6100000000	1.7082155952
0.6150000000	1.8119849520
0.6200000000	1.9292393355
0.6250000000	2.0617578798
0.6300000000	2.2121706753
0.6350000000	2.3837557035
0.6400000000	2.5799233900
0.6450000000	2.8055971203
0.6500000000	3.0672499422
0.6550000000	3.3716197980
0.6600000000	3.7290633643
0.6650000000	4.1528685071
0.6700000000	4.6586572168
0.6750000000	5.2702514743
0.6800000000	6.0196880747
0.6850000000	6.9489330014
0.6900000000	8.1229842142
0.6950000000	9.6327448001
0.7000000000	11.6226154906
0.7050000000	14.3133442382
0.7100000000	18.0789587969
0.7150000000	23.5852672830
0.7200000000	32.0717898987
0.7250000000	46.1586637953
0.7300000000	72.0149292790
0.7350000000	127.3390721346
0.7400000000	279.0649299247
0.7450000000	925.7680683116
0.7500000000	2867.9583347230
0.7550000000	721.4781182569
0.7600000000	238.9306192075
0.7650000000	114.4789704363
0.7700000000	66.5751517419
0.7750000000	43.4506061279
0.7800000000	30.5772371820
0.7850000000	22.7091490717
0.7900000000	17.5442239660
0.7950000000	13.9821351715
0.8000000000	11.4215112189
0.8050000000	9.5144403708
0.8100000000	8.0602103878
0.8150000000	6.9074358567
0.8200000000	5.9976435053
0.8250000000	5.2650979247
0.8300000000	4.6650346077
0.8350000000	4.1716762056
0.8400000000	3.7581022041
0.8450000000	3.4110625056
0.8500000000	3.1177154301
0.8550000000	2.8645717801
0.8600000000	2.6484720703
0.8650000000	2.4638861377
0.8700000000	2.3007907234
0.8750000000	2.1620533556
0.8800000000	2.0443296755
0.8850000000	1.9387841647
0.8900000000	1.8541139220
0.8950000000	1.7770901505
0.9000000000	1.7160406225
0.9050000000	1.6739871493
0.9100000000	1.6354484391
0.9150000000	1.6120611744
0.9200000000	1.6092215299
0.9250000000	1.6071098969
0.9300000000	1.5835147758
0.9350000000	1.5127682184
0.9400000000	1.1187519005
0.9450000000	-0.6720607577
0.9500000000	-10.1226789443
0.9550000000	-58.0568461675
0.9600000000	13.6992735003
0.9650000000	24.0642378715
0.9700000000	10.6732919866
0.9750000000	5.6032132104
0.9800000000	3.5116282375
0.9850000000	2.5333942507
0.9900000000	1.9697623223
0.9950000000	1.6279912716
1.0000000000	1.4097697563
1.0050000000	1.2714210052
1.0100000000	1.1641681769
1.0150000000	1.0858133738
1.0200000000	1.0330360717
1.0250000000	0.9887387724
1.0300000000	0.9550873656
1.0350000000	0.9296311914
1.0400000000	0.9134474267
1.0450000000	0.8999923532
1.0500000000	0.8911184735
1.0550000000	0.8863001842
1.0600000000	0.8867248008
1.0650000000	0.8890875099
1.0700000000	0.8947358336
1.0750000000	0.9036931074
1.0800000000	0.9168436810
1.0850000000	0.9335325338
1.0900000000	0.9581490769
1.0950000000	0.9873821046
1.1000000000	1.0222119663
1.1050000000	1.0623556086
1.1100000000	1.1090803718
1.1150000000	1.1634370394
1.1200000000	1.2266706012
1.1250000000	1.3004111463
1.1300000000	1.3868389693
1.1350000000	1.4886694013
1.1400000000	1.6089938383
1.1450000000	1.7534595308
1.1500000000	1.9282039734
1.1550000000	2.1421017054
1.1600000000	2.4076729738
1.1650000000	2.7411624302
1.1700000000	3.1730054821
1.1750000000	3.7436013379
1.1800000000	4.5197393216
1.1850000000	5.6112021490
1.1900000000	7.2248897078
1.1950000000	9.7580751105
1.2000000000	14.0547333152
1.2050000000	22.1742813193
1.2100000000	40.0356096176
1.2150000000	88.3142300732
1.2200000000	216.7402926447
1.2250000000	194.7238854149
1.2300000000	77.6710558891
1.2350000000	36.4265728010
1.2400000000	20.8041829146
1.2450000000	13.6310619321
1.2500000000	9.8468005985
1.2550000000	7.6626489101
1.2600000000	6.3333756606
1.2650000000	5.5005114116
1.2700000000	5.0035867729
1.2750000000	4.7385561282
1.2800000000	4.6558655623
1.2850000000	4.7338419200
1.2900000000	4.9706722573
1.2950000000	5.3786572896
1.3000000000	6.0082151427
1.3050000000	6.9239961774
1.3100000000	8.2465788279
1.3150000000	10.1846058332
1.3200000000	13.1131789693
1.3250000000	17.7472266160
1.3300000000	25.6525787490
1.3350000000	40.4595499691
1.3400000000	72.1063949095
1.3450000000	150.6700354416
1.3500000000	319.7539786166
1.3550000000	298.2143363941
1.3600000000	137.5203952738
1.3650000000	67.5687615338
1.3700000000	38.7499862777
1.3750000000	24.9198647975
1.3800000000	17.3789404826
1.3850000000	12.8363645271
1.3900000000	9.9086060313
1.3950000000	7.9110791171
1.4000000000	6.4901805646
1.4050000000	5.4465449983
1.4100000000	4.6594142688
1.4150000000	4.0566339528
1.4200000000	3.5872762028
1.4250000000	3.2377240477
1.4300000000	3.0146405365
1.4350000000	2.8659938910
1.4400000000	1.9675015995
1.4450000000	-0.5194972973
1.4500000000	-4.8496383046
1.4550000000	-1.6225236536
1.4600000000	4.9251602533
1.4650000000	2.8551879380
1.4700000000	-1.8127383691
1.4750000000	-9.1939513437
1.4800000000	-4.0555125285
1.4850000000	6.9534454380
1.4900000000	5.6290040084
1.4950000000	3.6523525979
1.5000000000	2.5716716154
1.5050000000	1.9866247107
1.5100000000	1.6517270016
1.5150000000	1.4463918186
1.5200000000	1.3119015356
1.5250000000	1.2265458959
1.5300000000	1.1592862217
1.5350000000	1.1104360213
1.5400000000	1.0750613699
1.5450000000	1.0502208134
1.5500000000	1.0338839034
1.5550000000	1.0252061644
1.5600000000	1.0259475898
1.5650000000	1.0325772973
1.5700000000	1.0488896643
1.5750000000	1.0778800183
1.5800000000	1.1255091742
1.5850000000	1.2035122062
1.5900000000	1.3367118422
1.5950000000	1.5799785617
1.6000000000	2.0489296835
1.6050000000	2.8184906551
1.6100000000	3.1769489704
1.6150000000	2.5277176919
1.6200000000	1.9259005715
1.6250000000	1.6199327564
1.6300000000	1.4793972506
1.6350000000	1.4213292994
1.6400000000	1.4081522828
1.6450000000	1.4226771032
1.6500000000	1.4565371036
1.6550000000	1.5062865132
1.6600000000	1.5701703276
1.6650000000	1.6479438912
1.6700000000	1.7402468975
1.6750000000	1.8484071018
1.6800000000	1.9743706533
1.6850000000	2.1207362504
1.6900000000	2.2905286855
1.6950000000	2.4855115933
1.7000000000	2.7100009023
1.7050000000	2.9698154533
1.7100000000	3.2847386923
1.7150000000	3.8134702891
1.7200000000	4.6117438827
1.7250000000	5.4753406652
1.7300000000	6.5026096014
1.7350000000	7.6138939073
1.7400000000	8.6393489958
1.7450000000	9.9315731166
1.7500000000	11.9127536439
1.7550000000	14.8845128579
1.7600000000	19.3432196204
1.7650000000	26.2219183953
1.7700000000	37.3027283920
1.7750000000	55.9659723935
1.7800000000	87.7525126803
1.7850000000	134.5930341054
1.7900000000	167.1506909553
1.7950000000	142.2173190742
1.8000000000	94.5575351982
1.8050000000	59.6452413039
1.8100000000	39.2704891203
1.8150000000	27.3313654729
1.8200000000	19.9844449804
1.8250000000	15.2205823031
1.8300000000	11.9843233849
1.8350000000	9.6975709170
1.8400000000	8.0285169304
1.8450000000	6.7756274213
1.8500000000	5.8117594106
1.8550000000	5.0571964330
1.8600000000	4.4558660123
1.8650000000	3.9692258378
1.8700000000	3.5691894719
1.8750000000	3.2342104524
1.8800000000	2.9459455212
1.8850000000	2.6865068354
1.8900000000	2.4337515005
1.8950000000	2.1541372093
1.9000000000	1.7908310901
1.9050000000	1.1584084975
1.9100000000	0.2501649508
1.9150000000	-0.6249324975
1.9200000000	0.4271810358
1.9250000000	4.6431775867
1.9300000000	8.0111383751
1.9350000000	8.0875323786
1.9400000000	6.4929973131
1.9450000000	4.9217968398
1.9500000000	3.8081126098
1.9550000000	3.0714162121
1.9600000000	2.5804637403
1.9650000000	2.2533332387
1.9700000000	2.0124919297
1.9750000000	1.8358860345
1.9800000000	1.7018485860
1.9850000000	1.5948422390
1.9900000000	1.5033035323
1.9950000000	1.4174319602
2.0000000000	1.3354636307
2.0050000000	1.2867486903
2.0100000000	1.3195310452
2.0150000000	1.4049952957
2.0200000000	1.4627807830
2.0250000000	1.4879695678
2.0300000000	1.5072374205
2.0350000000	1.5329246222
2.0400000000	1.5710456742
2.0450000000	1.6241618497
2.0500000000	1.6948814534
2.0550000000	1.7857986099
2.0600000000	1.8970605678
2.0650000000	2.0197666669
2.0700000000	2.1317635834
2.0750000000	2.2157472538
2.0800000000	2.2845683083
2.0850000000	2.3661626638
2.0900000000	2.4782930987
2.0950000000	2.6271070413
2.1000000000	2.8172960082
2.1050000000	3.0459793052
2.1100000000	3.3290902180
2.1150000000	3.6780456150
2.1200000000	4.1092716194
2.1250000000	4.6460767480
2.1300000000	5.3214910471
2.1350000000	6.1827727306
2.1400000000	7.2981776647
2.1450000000	8.7674755197
2.1500000000	10.7359529028
2.1550000000	13.4091023586
2.1600000000	17.0498347297
2.1650000000	21.8809469619
2.1700000000	27.8174930981
2.1750000000	33.7371419918
2.1800000000	37.4547807090
2.1850000000	37.8033638617
2.1900000000	36.3922875481
2.1950000000	35.3914798590
2.2000000000	35.0419684214
2.2050000000	33.3949216069
2.2100000000	29.6165725489
2.2150000000	24.8623277459
2.2200000000	20.5379174167
2.2250000000	17.0341707726
2.2300000000	14.1586429237
2.2350000000	11.7529536958
2.2400000000	9.7781605328
2.2450000000	8.2189483643
2.2500000000	7.0106023891
2.2550000000	6.0753069518
2.2600000000	5.3410787641
2.2650000000	4.7430660172
2.2700000000	4.2199180489
2.2750000000	3.7198302683
2.2800000000	3.2308372572
2.2850000000	2.8126561975
2.2900000000	2.5669173221
2.2950000000	2.5391162590
2.3000000000	2.6506786417
2.3050000000	2.7681675063
2.3100000000	2.8097696444
2.3150000000	2.7780722895
2.3200000000	2.7084545859
2.3250000000	2.6372764128
2.3300000000	2.5838413472
2.3350000000	2.5537924052
2.3400000000	2.5429060559
2.3450000000	2.5388764442
2.3500000000	2.5258503661
2.3550000000	2.4937004712
2.3600000000	2.4452286160
2.3650000000	2.3927876548
2.3700000000	2.3489315531
2.3750000000	2.3206347005
2.3800000000	2.3090088479
2.3850000000	2.3112373017
2.3900000000	2.3237256231
2.3950000000	2.3430324341
2.4000000000	2.3708740553
2.4050000000	2.4145269677
2.4100000000	2.4770908594
2.4150000000	2.5628396127
2.4200000000	2.6747183818
2.4250000000	2.8158823536
2.4300000000	2.9902004496
2.4350000000	3.2026316799
2.4400000000	3.4595594015
2.4450000000	3.7691690986
2.4500000000	4.1418353419
2.4550000000	4.5906473132
2.4600000000	5.1317026344
2.4650000000	5.7844053006
2.4700000000	6.5710886209
2.4750000000	7.5142701729
2.4800000000	8.6377208494
2.4850000000	9.9513203631
2.4900000000	11.4427754005
2.4950000000	13.0576888830
2.5000000000	14.6785911788
2.5050000000	16.1808873488
2.5100000000	17.1658590112
2.5150000000	17.4098609055
2.5200000000	16.8755545836
2.5250000000	15.7286616156
2.5300000000	14.2324425040
2.5350000000	12.6256807314
2.5400000000	11.0659245197
2.5450000000	9.6353650082
2.5500000000	8.3670859727
2.5550000000	7.2667629928
2.5600000000	6.3186989457
2.5650000000	5.5194488821
2.5700000000	4.8520487532
2.5750000000	4.3062481328
2.5800000000	3.8742100088
2.5850000000	3.5466850067
2.5900000000	3.3074976030
2.5950000000	3.1334303793
2.6000000000	3.0002150333
2.6050000000	2.9051611830
2.6100000000	2.8208817147
2.6150000000	2.7462462548
2.6200000000	2.6830075186
2.6250000000	2.6329610452
2.6300000000	2.5972577531
2.6350000000	2.5764481167
2.6400000000	2.5708232913
2.6450000000	2.5806784733
2.6500000000	2.6066205494
2.6550000000	2.6487854748
2.6600000000	2.7080994794
2.6650000000	2.7854430510
2.6700000000	2.8818543786
2.6750000000	2.9985466996
2.6800000000	3.1368167875
2.6850000000	3.2979942160
2.6900000000	3.4832550211
2.6950000000	3.6935005521
2.7000000000	3.9290650694
2.7050000000	4.2175159042
2.7100000000	4.5369331318
2.7150000000	4.8834273579
2.7200000000	5.2504574119
2.7250000000	5.6287165368
2.7300000000	6.0061491056
2.7350000000	6.3679908644
2.7400000000	6.6966709623
2.7450000000	6.9746501474
2.7500000000	7.1758874890
2.7550000000	7.2831422735
2.7600000000	7.2833945054
2.7650000000	7.1737749358
2.7700000000	6.9630205098
2.7750000000	6.6699993895
2.7800000000	6.3196143654
2.7850000000	5.9383519451
2.7900000000	5.5499407261
2.7950000000	5.1733989599
2.8000000000	4.8221832871
2.8050000000	4.4654403596
2.8100000000	4.1583417804
2.8150000000	3.9001987046
2.8200000000	3.6869780859
2.8250000000	3.5133180541
2.8300000000	3.3738105133
2.8350000000	3.2638517216
2.8400000000	3.1785457103
2.8450000000	3.1181884499
2.8500000000	3.0791843212
2.8550000000	3.0601724709
2.8600000000	3.0601508268
2.8650000000	3.0782695956
2.8700000000	3.1136999150
2.8750000000	3.1654949960
2.8800000000	3.2325013341
2.8850000000	3.3132550940
2.8900000000	3.4060070216
2.8950000000	3.5086885545
2.9000000000	3.6190184269
2.9050000000	3.7585655622
2.9100000000	3.8980514111
2.9150000000	4.0324937261
2.9200000000	4.1561696177
2.9250000000	4.2624761198
2.9300000000	4.3452610327
2.9350000000	4.3959008043
2.9400000000	4.4102834291
2.9450000000	4.3863996205
2.9500000000	4.3258894308
2.9550000000	4.2338995312
2.9600000000	4.1180868313
2.9650000000	3.9872680634
2.9700000000	3.8500647663
2.9750000000	3.7139127902
2.9800000000	3.5845618806
2.9850000000	3.4659857761
2.9900000000	3.3606320481
2.9950000000	3.2696890818
3.0000000000	3.1935009390
