# energy (eV)    P(omega), $W$ = 300 nm, $h$ = 300 nm, $s$ = 20 nm, $d/W = 5$, $E_{\rm e}$ = 200 keV
0.2000000000	0.1092863851
0.2050000000	0.1109506014
0.2100000000	0.1124971465
0.2150000000	0.1139299500
0.2200000000	0.1152525491
0.2250000000	0.1164678643
0.2300000000	0.1175782279
0.2350000000	0.1185852636
0.2400000000	0.1194897979
0.2450000000	0.1202917154
0.2500000000	0.1209898451
0.2550000000	0.1215816680
0.2600000000	0.1220632646
0.2650000000	0.1224288084
0.2700000000	0.1226703817
0.2750000000	0.1227773801
0.2800000000	0.1227359761
0.2850000000	0.1225283222
0.2900000000	0.1221315914
0.2950000000	0.1215166979
0.3000000000	0.1206465199
0.3050000000	0.1194737493
0.3100000000	0.1179377929
0.3150000000	0.1248834816
0.3200000000	0.1331319726
0.3250000000	0.1435719164
0.3300000000	0.1575662574
0.3350000000	0.1749804633
0.3400000000	0.1977838209
0.3450000000	0.2254175092
0.3500000000	0.2615519866
0.3550000000	0.3093395883
0.3600000000	0.3716873495
0.3650000000	0.4585619544
0.3700000000	0.5729964636
0.3750000000	0.7320522529
0.3800000000	0.9619178058
0.3850000000	1.3198583137
0.3900000000	1.8848750902
0.3950000000	2.8438760986
0.4000000000	4.6707672524
0.4050000000	8.7637212124
0.4100000000	19.9233179331
0.4150000000	63.8767965979
0.4200000000	40.7258414614
0.4250000000	-76.4445247338
0.4300000000	21.2155815949
0.4350000000	13.2033954238
0.4400000000	8.0592339156
0.4450000000	5.2922743612
0.4500000000	3.7005116653
0.4550000000	2.7215818302
0.4600000000	2.0843924479
0.4650000000	1.6504222594
0.4700000000	1.3438430531
0.4750000000	1.1221934469
0.4800000000	0.9578917557
0.4850000000	0.8342583421
0.4900000000	0.7398607190
0.4950000000	0.6670275715
0.5000000000	0.6105143946
0.5050000000	0.5664773744
0.5100000000	0.5324371922
0.5150000000	0.5065667191
0.5200000000	0.4869682670
0.5250000000	0.4727763371
0.5300000000	0.4630707728
0.5350000000	0.4571756993
0.5400000000	0.4545921584
0.5450000000	0.4549035318
0.5500000000	0.4579697079
0.5550000000	0.4635532187
0.5600000000	0.4715275094
0.5650000000	0.4818320913
0.5700000000	0.4944086251
0.5750000000	0.5093430466
0.5800000000	0.5267744190
0.5850000000	0.5467916483
0.5900000000	0.5695731627
0.5950000000	0.5953474400
0.6000000000	0.6244044401
0.6050000000	0.6571720053
0.6100000000	0.6940528881
0.6150000000	0.7356018193
0.6200000000	0.7825593685
0.6250000000	0.8356347634
0.6300000000	0.8958784792
0.6350000000	0.9645993649
0.6400000000	1.0431575454
0.6450000000	1.1335196115
0.6500000000	1.2382692131
0.6550000000	1.3600943287
0.6600000000	1.5031300342
0.6650000000	1.6726764108
0.6700000000	1.8749633629
0.6750000000	2.1194960246
0.6800000000	2.4190504789
0.6850000000	2.7903568242
0.6900000000	3.2593255813
0.6950000000	3.8621864840
0.7000000000	4.6564805698
0.7050000000	5.7301501358
0.7100000000	7.2321743749
0.7150000000	9.4277162468
0.7200000000	12.8102895382
0.7250000000	18.4229128542
0.7300000000	28.7208133132
0.7350000000	50.7462381369
0.7400000000	111.1258122797
0.7450000000	368.3650998355
0.7500000000	1140.2894502683
0.7550000000	286.6359580166
0.7600000000	94.8512964280
0.7650000000	45.4109376947
0.7700000000	26.3881620074
0.7750000000	17.2089496101
0.7800000000	12.1008916756
0.7850000000	8.9800696149
0.7900000000	6.9322067600
0.7950000000	5.5203792411
0.8000000000	4.5058457864
0.8050000000	3.7505252050
0.8100000000	3.1747613689
0.8150000000	2.7185425713
0.8200000000	2.3585998748
0.8250000000	2.0688720735
0.8300000000	1.8316223197
0.8350000000	1.6366076982
0.8400000000	1.4731764206
0.8450000000	1.3360678250
0.8500000000	1.2201859718
0.8550000000	1.1202144233
0.8600000000	1.0348760355
0.8650000000	0.9619724948
0.8700000000	0.8975743944
0.8750000000	0.8427691163
0.8800000000	0.7962295422
0.8850000000	0.7545082774
0.8900000000	0.7209589950
0.8950000000	0.6904416925
0.9000000000	0.6661646499
0.9050000000	0.6492753924
0.9100000000	0.6337865306
0.9150000000	0.6241790536
0.9200000000	0.6225153982
0.9250000000	0.6211671743
0.9300000000	0.6116346200
0.9350000000	0.5841649386
0.9400000000	0.4332291257
0.9450000000	-0.2509092174
0.9500000000	-3.8574092888
0.9550000000	-22.1358983539
0.9600000000	5.2208112145
0.9650000000	9.1634740062
0.9700000000	4.0624156921
0.9750000000	2.1324018074
0.9800000000	1.3366190766
0.9850000000	0.9645288641
0.9900000000	0.7502405819
0.9950000000	0.6203400981
1.0000000000	0.5374091015
1.0050000000	0.4848083868
1.0100000000	0.4440697594
1.0150000000	0.4143199674
1.0200000000	0.3942691795
1.0250000000	0.3774771307
1.0300000000	0.3647423660
1.0350000000	0.3551355889
1.0400000000	0.3490477191
1.0450000000	0.3440333335
1.0500000000	0.3407807504
1.0550000000	0.3390918064
1.0600000000	0.3394041327
1.0650000000	0.3404980434
1.0700000000	0.3428741621
1.0750000000	0.3465429199
1.0800000000	0.3518348148
1.0850000000	0.3585456507
1.0900000000	0.3683812364
1.0950000000	0.3800467654
1.1000000000	0.3939213613
1.1050000000	0.4099393009
1.1100000000	0.4285918582
1.1150000000	0.4503027809
1.1200000000	0.4755586857
1.1250000000	0.5050634983
1.1300000000	0.5396805469
1.1350000000	0.5805116461
1.1400000000	0.6287939166
1.1450000000	0.6868591560
1.1500000000	0.7571826446
1.1550000000	0.8433703451
1.1600000000	0.9505100013
1.1650000000	1.0851856135
1.1700000000	1.2598123725
1.1750000000	1.4907996806
1.1800000000	1.8053001908
1.1850000000	2.2479636502
1.1900000000	2.9028419080
1.1950000000	3.9315282105
1.2000000000	5.6770148300
1.2050000000	8.9761657811
1.2100000000	16.2336370391
1.2150000000	35.8452484667
1.2200000000	87.9838769831
1.2250000000	78.9726488152
1.2300000000	31.4299398141
1.2350000000	14.6846219673
1.2400000000	8.3408736228
1.2450000000	5.4248872620
1.2500000000	3.8825798885
1.2550000000	2.9878342403
1.2600000000	2.4380279622
1.2650000000	2.0874648560
1.2700000000	1.8703511700
1.2750000000	1.7439219798
1.2800000000	1.6871480285
1.2850000000	1.6899618927
1.2900000000	1.7497826939
1.2950000000	1.8692459423
1.3000000000	2.0643963838
1.3050000000	2.3555360371
1.3100000000	2.7817993004
1.3150000000	3.4112249492
1.3200000000	4.3666354660
1.3250000000	5.8817617530
1.3300000000	8.4701648309
1.3350000000	13.3209073485
1.3400000000	23.6891791044
1.3450000000	49.4226442891
1.3500000000	104.7753623702
1.3550000000	97.6520888792
1.3600000000	45.0154636038
1.3650000000	22.1154882029
1.3700000000	12.6840761136
1.3750000000	8.1587647320
1.3800000000	5.6914755306
1.3850000000	4.2050364045
1.3900000000	3.2465817571
1.3950000000	2.5923183083
1.4000000000	2.1262559258
1.4050000000	1.7830782602
1.4100000000	1.5228743031
1.4150000000	1.3212008070
1.4200000000	1.1598687694
1.4250000000	1.0306521359
1.4300000000	0.9261233116
1.4350000000	0.8198480333
1.4400000000	0.4833471752
1.4450000000	-0.3880990261
1.4500000000	-1.9822831190
1.4550000000	-0.7199156996
1.4600000000	1.8087151504
1.4650000000	1.1006360994
1.4700000000	-0.4697334791
1.4750000000	-2.8703801141
1.4800000000	-1.2511444786
1.4850000000	2.2532272274
1.4900000000	1.8228826059
1.4950000000	1.1877316607
1.5000000000	0.8400754688
1.5050000000	0.6512173689
1.5100000000	0.5429467537
1.5150000000	0.4763055899
1.5200000000	0.4324709178
1.5250000000	0.4045701111
1.5300000000	0.3824038261
1.5350000000	0.3661805491
1.5400000000	0.3542996464
1.5450000000	0.3457833877
1.5500000000	0.3399906027
1.5550000000	0.3365971838
1.5600000000	0.3361484728
1.5650000000	0.3373936963
1.5700000000	0.3414728950
1.5750000000	0.3491626697
1.5800000000	0.3620384249
1.5850000000	0.3832028915
1.5900000000	0.4191997881
1.5950000000	0.4844087422
1.6000000000	0.6087954561
1.6050000000	0.8101641580
1.6100000000	0.8994901457
1.6150000000	0.7264747339
1.6200000000	0.5700337795
1.6250000000	0.4924472302
1.6300000000	0.4585284239
1.6350000000	0.4463902066
1.6400000000	0.4462315642
1.6450000000	0.4536192433
1.6500000000	0.4664599583
1.6550000000	0.4838790261
1.6600000000	0.5055373443
1.6650000000	0.5314739561
1.6700000000	0.5619832367
1.6750000000	0.5975775945
1.6800000000	0.6389844842
1.6850000000	0.6871723281
1.6900000000	0.7433836310
1.6950000000	0.8087990951
1.7000000000	0.8859104874
1.7050000000	0.9792607437
1.7100000000	1.0942372882
1.7150000000	1.2574884352
1.7200000000	1.4837121709
1.7250000000	1.7579325492
1.7300000000	2.1023176760
1.7350000000	2.4703343350
1.7400000000	2.7952407830
1.7450000000	3.1992709220
1.7500000000	3.8260970328
1.7550000000	4.7723247719
1.7600000000	6.1951714137
1.7650000000	8.3915869803
1.7700000000	11.9296516081
1.7750000000	17.8868645420
1.7800000000	28.0279132999
1.7850000000	42.9595819293
1.7900000000	53.3128825789
1.7950000000	45.3249518452
1.8000000000	30.1096889359
1.8050000000	18.9743642245
1.8100000000	12.4792308746
1.8150000000	8.6746357513
1.8200000000	6.3339669707
1.8250000000	4.8163553686
1.8300000000	3.7852445059
1.8350000000	3.0563299173
1.8400000000	2.5238517517
1.8450000000	2.1235224270
1.8500000000	1.8147705152
1.8550000000	1.5721426878
1.8600000000	1.3776398750
1.8650000000	1.2188240304
1.8700000000	1.0865127309
1.8750000000	0.9735066161
1.8800000000	0.8734753475
1.8850000000	0.7799989656
1.8900000000	0.6849187827
1.8950000000	0.5758291327
1.9000000000	0.4318519793
1.9050000000	0.1867925140
1.9100000000	-0.1690503990
1.9150000000	-0.5522814108
1.9200000000	-0.3808658532
1.9250000000	0.7388911018
1.9300000000	1.6383225926
1.9350000000	1.7113061067
1.9400000000	1.4106564098
1.9450000000	1.1068804267
1.9500000000	0.8884583490
1.9550000000	0.7419129978
1.9600000000	0.6430410545
1.9650000000	0.5775824901
1.9700000000	0.5280128659
1.9750000000	0.4916328081
1.9800000000	0.4642311434
1.9850000000	0.4428330036
1.9900000000	0.4253184763
1.9950000000	0.4099703019
2.0000000000	0.3963743470
2.0050000000	0.3894461724
2.0100000000	0.3958009394
2.0150000000	0.4109952712
2.0200000000	0.4229546769
2.0250000000	0.4311074136
2.0300000000	0.4398112310
2.0350000000	0.4509461481
2.0400000000	0.4659465407
2.0450000000	0.4857460102
2.0500000000	0.5114668347
2.0550000000	0.5442471876
2.0600000000	0.5841412923
2.0650000000	0.6273593205
2.0700000000	0.6644993527
2.0750000000	0.6880941409
2.0800000000	0.7032415662
2.0850000000	0.7213274122
2.0900000000	0.7494002244
2.0950000000	0.7896144488
2.1000000000	0.8431290752
2.1050000000	0.9087201481
2.1100000000	0.9909639335
2.1150000000	1.0930373662
2.1200000000	1.2196554161
2.1250000000	1.3775958786
2.1300000000	1.5765228614
2.1350000000	1.8302975578
2.1400000000	2.1589558187
2.1450000000	2.5917837078
2.1500000000	3.1714133819
2.1550000000	3.9581017279
2.1600000000	5.0288907837
2.1650000000	6.4489325398
2.1700000000	8.1935481036
2.1750000000	9.9346909209
2.1800000000	11.0355594268
2.1850000000	11.1594883773
2.1900000000	10.7805127010
2.1950000000	10.5289092981
2.2000000000	10.4564499482
2.2050000000	9.9535675621
2.2100000000	8.7647078868
2.2150000000	7.2545954225
2.2200000000	5.8728908863
2.2250000000	4.7662248116
2.2300000000	3.8951796957
2.2350000000	3.2033275071
2.2400000000	2.6544157038
2.2450000000	2.2259784221
2.2500000000	1.8918486714
2.2550000000	1.6282251074
2.2600000000	1.4152400002
2.2650000000	1.2363626978
2.2700000000	1.0777033558
2.2750000000	0.9295126856
2.2800000000	0.7924794358
2.2850000000	0.6838068867
2.2900000000	0.6289782979
2.2950000000	0.6367776072
2.3000000000	0.6820677470
2.3050000000	0.7263293655
2.3100000000	0.7454336987
2.3150000000	0.7406055735
2.3200000000	0.7224092179
2.3250000000	0.7016293255
2.3300000000	0.6840939012
2.3350000000	0.6718228187
2.3400000000	0.6643975587
2.3450000000	0.6596557961
2.3500000000	0.6547106462
2.3550000000	0.6477160062
2.3600000000	0.6391838799
2.3650000000	0.6313534434
2.3700000000	0.6264445568
2.3750000000	0.6255420696
2.3800000000	0.6284620829
2.3850000000	0.6340918222
2.3900000000	0.6411916068
2.3950000000	0.6487011662
2.4000000000	0.6572533221
2.4050000000	0.6692056608
2.4100000000	0.6857566013
2.4150000000	0.7084257978
2.4200000000	0.7382468482
2.4250000000	0.7761601157
2.4300000000	0.8232204052
2.4350000000	0.8807498788
2.4400000000	0.9504496862
2.4450000000	1.0345145379
2.4500000000	1.1357376452
2.4550000000	1.2576527918
2.4600000000	1.4046236164
2.4650000000	1.5819300053
2.4700000000	1.7956878847
2.4750000000	2.0521227353
2.4800000000	2.3579683597
2.4850000000	2.7162526615
2.4900000000	3.1240101216
2.4950000000	3.5664922081
2.5000000000	4.0109340551
2.5050000000	4.4217050411
2.5100000000	4.6870748994
2.5150000000	4.7451741391
2.5200000000	4.5880024034
2.5250000000	4.2647353711
2.5300000000	3.8501882060
2.5350000000	3.4099849086
2.5400000000	2.9856916523
2.5450000000	2.5978524547
2.5500000000	2.2541441837
2.5550000000	1.9555422780
2.5600000000	1.6977145057
2.5650000000	1.4800955902
2.5700000000	1.2983433315
2.5750000000	1.1498874875
2.5800000000	1.0327207352
2.5850000000	0.9443563583
2.5900000000	0.8803052230
2.5950000000	0.8340685565
2.6000000000	0.7988491052
2.6050000000	0.7737300663
2.6100000000	0.7511756348
2.6150000000	0.7309084335
2.6200000000	0.7134349150
2.6250000000	0.6992530104
2.6300000000	0.6886633885
2.6350000000	0.6817964090
2.6400000000	0.6787204692
2.6450000000	0.6795128214
2.6500000000	0.6843393547
2.6550000000	0.6932279812
2.6600000000	0.7064118861
2.6650000000	0.7240970720
2.6700000000	0.7465262636
2.6750000000	0.7739874463
2.6800000000	0.8068011393
2.6850000000	0.8453173962
2.6900000000	0.8898744803
2.6950000000	0.9407789804
2.7000000000	0.9982432584
2.7050000000	1.0691867093
2.7100000000	1.1486998176
2.7150000000	1.2362365848
2.7200000000	1.3306170588
2.7250000000	1.4298757112
2.7300000000	1.5311219709
2.7350000000	1.6304178368
2.7400000000	1.7227140099
2.7450000000	1.8026802073
2.7500000000	1.8625787607
2.7550000000	1.8970948204
2.7600000000	1.9022366907
2.7650000000	1.8769776158
2.7700000000	1.8236180955
2.7750000000	1.7473198224
2.7800000000	1.6549285096
2.7850000000	1.5537268412
2.7900000000	1.4502207505
2.7950000000	1.3496190515
2.8000000000	1.2555958014
2.8050000000	1.1599883745
2.8100000000	1.0774562701
2.8150000000	1.0078112299
2.8200000000	0.9499585424
2.8250000000	0.9024432612
2.8300000000	0.8638058571
2.8350000000	0.8328024256
2.8400000000	0.8081106142
2.8450000000	0.7898194921
2.8500000000	0.7769599727
2.8550000000	0.7691709689
2.8600000000	0.7661970289
2.8650000000	0.7678363364
2.8700000000	0.7739092203
2.8750000000	0.7842318258
2.8800000000	0.7985914407
2.8850000000	0.8167235863
2.8900000000	0.8383026333
2.8950000000	0.8629308811
2.9000000000	0.8901366245
2.9050000000	0.9258741101
2.9100000000	0.9625648289
2.9150000000	0.9987938595
2.9200000000	1.0328597567
2.9250000000	1.0627897421
2.9300000000	1.0867296748
2.9350000000	1.1022110853
2.9400000000	1.1079975226
2.9450000000	1.1034558393
2.9500000000	1.0889587645
2.9550000000	1.0658288593
2.9600000000	1.0360805025
2.9650000000	1.0020505715
2.9700000000	0.9660322186
2.9750000000	0.9300151215
2.9800000000	0.8955423762
2.9850000000	0.8636904581
2.9900000000	0.8351218072
2.9950000000	0.8101738605
3.0000000000	0.7889554127
