# energy (eV)    P(omega), $W$ = 300 nm, $h$ = 300 nm, $s$ = 20 nm, $d/W = 5$, $E_{\rm e}$ = 200 keV
0.2000000000	0.0743390654
0.2050000000	0.0754069103
0.2100000000	0.0764106880
0.2150000000	0.0773524013
0.2200000000	0.0782337767
0.2250000000	0.0790562417
0.2300000000	0.0798208444
0.2350000000	0.0805282395
0.2400000000	0.0811786134
0.2450000000	0.0817715242
0.2500000000	0.0823059908
0.2550000000	0.0827801292
0.2600000000	0.0831911863
0.2650000000	0.0835353249
0.2700000000	0.0838072853
0.2750000000	0.0840001819
0.2800000000	0.0841050901
0.2850000000	0.0841105988
0.2900000000	0.0840020474
0.2950000000	0.0837609501
0.3000000000	0.0833635020
0.3050000000	0.0827796292
0.3100000000	0.0819707231
0.3150000000	0.0863863617
0.3200000000	0.0916313040
0.3250000000	0.0982615009
0.3300000000	0.1071337925
0.3350000000	0.1181811404
0.3400000000	0.1326493253
0.3450000000	0.1502134062
0.3500000000	0.1731999233
0.3550000000	0.2036305928
0.3600000000	0.2433936303
0.3650000000	0.2988537889
0.3700000000	0.3720539935
0.3750000000	0.4739560460
0.3800000000	0.6214416992
0.3850000000	0.8513940693
0.3900000000	1.2149446737
0.3950000000	1.8329335443
0.4000000000	3.0118344834
0.4050000000	5.6566725972
0.4100000000	12.8786445990
0.4150000000	41.3653087952
0.4200000000	26.3300309835
0.4250000000	-49.7033369831
0.4300000000	13.8508043946
0.4350000000	8.6423624365
0.4400000000	5.2911088291
0.4450000000	3.4858999042
0.4500000000	2.4460027044
0.4550000000	1.8056689018
0.4600000000	1.3883845188
0.4650000000	1.1038823445
0.4700000000	0.9027090435
0.4750000000	0.7571690271
0.4800000000	0.6492402239
0.4850000000	0.5680257810
0.4900000000	0.5060469857
0.4950000000	0.4582811630
0.5000000000	0.4212961765
0.5050000000	0.3925708813
0.5100000000	0.3704851764
0.5150000000	0.3538469612
0.5200000000	0.3414027797
0.5250000000	0.3325943767
0.5300000000	0.3268175759
0.5350000000	0.3236317527
0.5400000000	0.3227126054
0.5450000000	0.3237893873
0.5500000000	0.3267814680
0.5550000000	0.3315378256
0.5600000000	0.3379848914
0.5650000000	0.3460916028
0.5700000000	0.3558316782
0.5750000000	0.3672748194
0.5800000000	0.3805343251
0.5850000000	0.3956846449
0.5900000000	0.4128674168
0.5950000000	0.4322582830
0.6000000000	0.4540806979
0.6050000000	0.4786549604
0.6100000000	0.5062896198
0.6150000000	0.5374034246
0.6200000000	0.5725553089
0.6250000000	0.6122804281
0.6300000000	0.6573697649
0.6350000000	0.7088092332
0.6400000000	0.7676251010
0.6450000000	0.8352979839
0.6500000000	0.9137752707
0.6550000000	1.0050845812
0.6600000000	1.1123410580
0.6650000000	1.2395449637
0.6700000000	1.3913991570
0.6750000000	1.5750722476
0.6800000000	1.8002160662
0.6850000000	2.0794651827
0.6900000000	2.4324043099
0.6950000000	2.8864152656
0.7000000000	3.4850197088
0.7050000000	4.2947488823
0.7100000000	5.4283670823
0.7150000000	7.0866330189
0.7200000000	9.6433790105
0.7250000000	13.8889852749
0.7300000000	21.6847969356
0.7350000000	38.3719959482
0.7400000000	84.1554104187
0.7450000000	279.3882106864
0.7500000000	866.1880002477
0.7550000000	218.0724488692
0.7600000000	72.2757294399
0.7650000000	34.6572249814
0.7700000000	20.1712456343
0.7750000000	13.1756832068
0.7800000000	9.2797633034
0.7850000000	6.8977165749
0.7900000000	5.3334683133
0.7950000000	4.2542523811
0.8000000000	3.4781777902
0.8050000000	2.8999793844
0.8100000000	2.4589199882
0.8150000000	2.1091474111
0.8200000000	1.8330107916
0.8250000000	1.6106062768
0.8300000000	1.4283611159
0.8350000000	1.2784890500
0.8400000000	1.1528230692
0.8450000000	1.0473500867
0.8500000000	0.9581876266
0.8550000000	0.8812226012
0.8600000000	0.8155189352
0.8650000000	0.7594100936
0.8700000000	0.7098183449
0.8750000000	0.6676555645
0.8800000000	0.6319119179
0.8850000000	0.5998623888
0.8900000000	0.5742214842
0.8950000000	0.5508933832
0.9000000000	0.5324795779
0.9050000000	0.5199389674
0.9100000000	0.5084536209
0.9150000000	0.5016593907
0.9200000000	0.5012571086
0.9250000000	0.5010458513
0.9300000000	0.4940402713
0.9350000000	0.4721033614
0.9400000000	0.3482657730
0.9450000000	-0.2160480023
0.9500000000	-3.1971405749
0.9550000000	-18.3285590228
0.9600000000	4.3291936040
0.9650000000	7.6090440447
0.9700000000	3.3771799449
0.9750000000	1.7737409974
0.9800000000	1.1118953690
0.9850000000	0.8022624113
0.9900000000	0.6237678011
0.9950000000	0.5154966713
1.0000000000	0.4463523709
1.0050000000	0.4025354275
1.0100000000	0.3685282556
1.0150000000	0.3436693003
1.0200000000	0.3269329192
1.0250000000	0.3128484733
1.0300000000	0.3021249507
1.0350000000	0.2939835482
1.0400000000	0.2887832708
1.0450000000	0.2844109562
1.0500000000	0.2814684814
1.0550000000	0.2797873463
1.0600000000	0.2797562711
1.0650000000	0.2802936242
1.0700000000	0.2818361318
1.0750000000	0.2843889119
1.0800000000	0.2882382205
1.0850000000	0.2931318877
1.0900000000	0.3004262454
1.0950000000	0.3091008029
1.1000000000	0.3194600949
1.1050000000	0.3313710357
1.1100000000	0.3452226932
1.1150000000	0.3613220384
1.1200000000	0.3800457537
1.1250000000	0.4018236682
1.1300000000	0.4273054850
1.1350000000	0.4572757783
1.1400000000	0.4926427108
1.1450000000	0.5349978146
1.1500000000	0.5861267127
1.1550000000	0.6485849808
1.1600000000	0.7259774941
1.1650000000	0.8229956090
1.1700000000	0.9483570580
1.1750000000	1.1136965497
1.1800000000	1.3382204914
1.1850000000	1.6534807254
1.1900000000	2.1190303775
1.1950000000	2.8490123812
1.2000000000	4.0861741156
1.2050000000	6.4228792193
1.2100000000	11.5619500971
1.2150000000	25.4545661371
1.2200000000	62.4296155379
1.2250000000	56.1444766427
1.2300000000	22.4622453092
1.2350000000	10.5907405624
1.2400000000	6.0964140647
1.2450000000	4.0367589345
1.2500000000	2.9546824809
1.2550000000	2.3352344363
1.2600000000	1.9640301634
1.2650000000	1.7381027605
1.2700000000	1.6119552505
1.2750000000	1.5562351332
1.2800000000	1.5576708474
1.2850000000	1.6113985065
1.2900000000	1.7188809749
1.2950000000	1.8862430921
1.3000000000	2.1327183199
1.3050000000	2.4833451399
1.3100000000	2.9834095301
1.3150000000	3.7109347318
1.3200000000	4.8056109650
1.3250000000	6.5342017049
1.3300000000	9.4789521744
1.3350000000	14.9917465160
1.3400000000	26.7733374727
1.3450000000	56.0278045009
1.3500000000	119.0228908687
1.3550000000	111.0781210807
1.3600000000	51.2429752487
1.3650000000	25.1812659438
1.3700000000	14.4411357773
1.3750000000	9.2860787545
1.3800000000	6.4751577522
1.3850000000	4.7821698549
1.3900000000	3.6915939074
1.3950000000	2.9480113519
1.4000000000	2.4199834159
1.4050000000	2.0333333539
1.4100000000	1.7435810442
1.4150000000	1.5249475717
1.4200000000	1.3605443515
1.4250000000	1.2504500867
1.4300000000	1.2101843786
1.4350000000	1.2327341651
1.4400000000	0.9496049186
1.4450000000	0.0822653902
1.4500000000	-1.3257210896
1.4550000000	-0.3715701579
1.4600000000	1.6058401247
1.4650000000	0.8692907176
1.4700000000	-0.8213828847
1.4750000000	-3.5941173796
1.4800000000	-1.5996377496
1.4850000000	2.6289806001
1.4900000000	2.1310646867
1.4950000000	1.3793704537
1.5000000000	0.9691652823
1.5050000000	0.7482855261
1.5100000000	0.6223910716
1.5150000000	0.5459360076
1.5200000000	0.4965478534
1.5250000000	0.4658618966
1.5300000000	0.4424219350
1.5350000000	0.4262655407
1.5400000000	0.4156240397
1.5450000000	0.4095485408
1.5500000000	0.4074264318
1.5550000000	0.4092734932
1.5600000000	0.4161812839
1.5650000000	0.4275900298
1.5700000000	0.4460615717
1.5750000000	0.4747211875
1.5800000000	0.5194369638
1.5850000000	0.5916314480
1.5900000000	0.7153702139
1.5950000000	0.9439086444
1.6000000000	1.3897382464
1.6050000000	2.1269043900
1.6100000000	2.4683101765
1.6150000000	1.8283065772
1.6200000000	1.2279066741
1.6250000000	0.9109757550
1.6300000000	0.7518417999
1.6350000000	0.6699112136
1.6400000000	0.6283804132
1.6450000000	0.6101437945
1.6500000000	0.6066353217
1.6550000000	0.6138421838
1.6600000000	0.6293693431
1.6650000000	0.6521229937
1.6700000000	0.6816870924
1.6750000000	0.7180637630
1.6800000000	0.7615778972
1.6850000000	0.8127336058
1.6900000000	0.8719762941
1.6950000000	0.9384628172
1.7000000000	1.0110745156
1.7050000000	1.0854781294
1.7100000000	1.1703721350
1.7150000000	1.3814433109
1.7200000000	1.7518107001
1.7250000000	2.0911038941
1.7300000000	2.4551943346
1.7350000000	2.8552623701
1.7400000000	3.2478505803
1.7450000000	3.7521168461
1.7500000000	4.5146820644
1.7550000000	5.6496723103
1.7600000000	7.3478232177
1.7650000000	9.9655352023
1.7700000000	14.1822100467
1.7750000000	21.2862133930
1.7800000000	33.3913023331
1.7850000000	51.2434982511
1.7900000000	63.6819870953
1.7950000000	54.2265047922
1.8000000000	36.0893002614
1.8050000000	22.7912534512
1.8100000000	15.0268437861
1.8150000000	10.4758158773
1.8200000000	7.6750508953
1.8250000000	5.8593060483
1.8300000000	4.6264789940
1.8350000000	3.7562994866
1.8400000000	3.1223342123
1.8450000000	2.6478863265
1.8500000000	2.2846199520
1.8550000000	2.0022902019
1.8600000000	1.7797987094
1.8650000000	1.6028068245
1.8700000000	1.4611168309
1.8750000000	1.3472423710
1.8800000000	1.2552455986
1.8850000000	1.1798803296
1.8900000000	1.1151020122
1.8950000000	1.0518909596
1.9000000000	0.9746715846
1.9050000000	0.8284692720
1.9100000000	0.6272710731
1.9150000000	0.5208567801
1.9200000000	1.2729700441
1.9250000000	3.3512088081
1.9300000000	4.9993846982
1.9350000000	4.9224113321
1.9400000000	3.8715607234
1.9450000000	2.8527404781
1.9500000000	2.1374158075
1.9550000000	1.6687154184
1.9600000000	1.3589850784
1.9650000000	1.1516769406
1.9700000000	1.0020186126
1.9750000000	0.8923134229
1.9800000000	0.8085577144
1.9850000000	0.7405914536
1.9900000000	0.6806401295
1.9950000000	0.6219184407
2.0000000000	0.5634372836
2.0050000000	0.5260745837
2.0100000000	0.5474802857
2.0150000000	0.6064489595
2.0200000000	0.6428078071
2.0250000000	0.6524646566
2.0300000000	0.6546366788
2.0350000000	0.6585894015
2.0400000000	0.6677651343
2.0450000000	0.6830410841
2.0500000000	0.7049859984
2.0550000000	0.7341162577
2.0600000000	0.7704322335
2.0650000000	0.8117353169
2.0700000000	0.8525730386
2.0750000000	0.8888596035
2.0800000000	0.9242013694
2.0850000000	0.9660558885
2.0900000000	1.0194225844
2.0950000000	1.0864073794
2.1000000000	1.1692765276
2.1050000000	1.2672801772
2.1100000000	1.3873061520
2.1150000000	1.5343896852
2.1200000000	1.7155920036
2.1250000000	1.9408174877
2.1300000000	2.2240273033
2.1350000000	2.5851536468
2.1400000000	3.0529779670
2.1450000000	3.6695789274
2.1500000000	4.4962666983
2.1550000000	5.6198119488
2.1600000000	7.1512675403
2.1650000000	9.1846816523
2.1700000000	11.6824314047
2.1750000000	14.1657151831
2.1800000000	15.7000657485
2.1850000000	15.7797750339
2.1900000000	15.0821149774
2.1950000000	14.5392057287
2.2000000000	14.2984405220
2.2050000000	13.6297157189
2.2100000000	12.2099970606
2.2150000000	10.4644629745
2.2200000000	8.8974835308
2.2250000000	7.6024292778
2.2300000000	6.4620606280
2.2350000000	5.4309948438
2.2400000000	4.5453508497
2.2450000000	3.8367209202
2.2500000000	3.2934972112
2.2550000000	2.8854259488
2.2600000000	2.5798906746
2.2650000000	2.3442057058
2.2700000000	2.1430358876
2.2750000000	1.9415667682
2.2800000000	1.7246548576
2.2850000000	1.5182419058
2.2900000000	1.3755953219
2.2950000000	1.3268691480
2.3000000000	1.3442814428
2.3050000000	1.3708723712
2.3100000000	1.3731047999
2.3150000000	1.3512506769
2.3200000000	1.3198274783
2.3250000000	1.2938301210
2.3300000000	1.2809309673
2.3350000000	1.2824475810
2.3400000000	1.2940813839
2.3450000000	1.3061041895
2.3500000000	1.3062663855
2.3550000000	1.2867528075
2.3600000000	1.2497751901
2.3650000000	1.2049982982
2.3700000000	1.1623843126
2.3750000000	1.1278832065
2.3800000000	1.1034278991
2.3850000000	1.0884718939
2.3900000000	1.0817687971
2.3950000000	1.0818747409
2.4000000000	1.0891828955
2.4050000000	1.1061000547
2.4100000000	1.1334327161
2.4150000000	1.1722974210
2.4200000000	1.2233651916
2.4250000000	1.2878107791
2.4300000000	1.3673476098
2.4350000000	1.4642741873
2.4400000000	1.5815565393
2.4450000000	1.7229817942
2.4500000000	1.8933279645
2.4550000000	2.0986005750
2.4600000000	2.3461781672
2.4650000000	2.6449135035
2.4700000000	3.0049597524
2.4750000000	3.4364871536
2.4800000000	3.9499990809
2.4850000000	4.5496532313
2.4900000000	5.2295882315
2.4950000000	5.9654720452
2.5000000000	6.7058472513
2.5050000000	7.3984389737
2.5100000000	7.8663403212
2.5150000000	8.0075154319
2.5200000000	7.7976448707
2.5250000000	7.3015126800
2.5300000000	6.6319883731
2.5350000000	5.8979337436
2.5400000000	5.1762603187
2.5450000000	4.5104250644
2.5500000000	3.9197532195
2.5550000000	3.4086443926
2.5600000000	2.9700713047
2.5650000000	2.6013428513
2.5700000000	2.2937774484
2.5750000000	2.0419402849
2.5800000000	1.8417717928
2.5850000000	1.6888591972
2.5900000000	1.5759449464
2.5950000000	1.4928257224
2.6000000000	1.4288777037
2.6050000000	1.3834308917
2.6100000000	1.3440802822
2.6150000000	1.3102020908
2.6200000000	1.2824655546
2.6250000000	1.2616121670
2.6300000000	1.2481370829
2.6350000000	1.2422929555
2.6400000000	1.2442265470
2.6450000000	1.2540743902
2.6500000000	1.2721037618
2.6550000000	1.2983895420
2.6600000000	1.3333350943
2.6650000000	1.3773479149
2.6700000000	1.4309285884
2.6750000000	1.4946837102
2.6800000000	1.5692856033
2.6850000000	1.6554219964
2.6900000000	1.7536561802
2.6950000000	1.8643147847
2.7000000000	1.9872856184
2.7050000000	2.1365544691
2.7100000000	2.2994597851
2.7150000000	2.4728288920
2.7200000000	2.6520475122
2.7250000000	2.8313191851
2.7300000000	3.0041037715
2.7350000000	3.1634945256
2.7400000000	3.3023089197
2.7450000000	3.4141717872
2.7500000000	3.4891937814
2.7550000000	3.5213884147
2.7600000000	3.5062131910
2.7650000000	3.4431401226
2.7700000000	3.3363959189
2.7750000000	3.1944487770
2.7800000000	3.0283363613
2.7850000000	2.8497681147
2.7900000000	2.6692502914
2.7950000000	2.4952079407
2.8000000000	2.3335984002
2.8050000000	2.1700876994
2.8100000000	2.0301443441
2.8150000000	1.9133929832
2.8200000000	1.8179542231
2.8250000000	1.7413510489
2.8300000000	1.6810882784
2.8350000000	1.6350304745
2.8400000000	1.6009296854
2.8450000000	1.5788641431
2.8500000000	1.5672001635
2.8550000000	1.5653152555
2.8600000000	1.5727445842
2.8650000000	1.5890693820
2.8700000000	1.6138211894
2.8750000000	1.6464056395
2.8800000000	1.6860435228
2.8850000000	1.7317214619
2.8900000000	1.7822213029
2.8950000000	1.8361653628
2.9000000000	1.8921048691
2.9050000000	1.9593253824
2.9100000000	2.0238099478
2.9150000000	2.0835303225
2.9200000000	2.1363579421
2.9250000000	2.1798776984
2.9300000000	2.2118657757
2.9350000000	2.2288636390
2.9400000000	2.2293786297
2.9450000000	2.2127749505
2.9500000000	2.1800105497
2.9550000000	2.1335755139
2.9600000000	2.0770639614
2.9650000000	2.0145483149
2.9700000000	1.9499665526
2.9750000000	1.8866840784
2.9800000000	1.8272795773
2.9850000000	1.7735124055
2.9900000000	1.7264407484
2.9950000000	1.6865613229
3.0000000000	1.6539786272
