# energy (eV)    P(omega), $W$ = 400 nm, $h$ = 300 nm, $s$ = 20 nm, $d/W = 5$, $E_{\rm e}$ = 200 keV
0.2000000000	0.0811960252
0.2050000000	0.0819346212
0.2100000000	0.0824546112
0.2150000000	0.0827472382
0.2200000000	0.0828002562
0.2250000000	0.0825970283
0.2300000000	0.0821156632
0.2350000000	0.0813276574
0.2400000000	0.0801963536
0.2450000000	0.0786745082
0.2500000000	0.0767017194
0.2550000000	0.0742002682
0.2600000000	0.0710700013
0.2650000000	0.0743496448
0.2700000000	0.0826805736
0.2750000000	0.0946018686
0.2800000000	0.1112115928
0.2850000000	0.1356986496
0.2900000000	0.1660397912
0.2950000000	0.2095363240
0.3000000000	0.2680079979
0.3050000000	0.3576310213
0.3100000000	0.4824729112
0.3150000000	0.7240362658
0.3200000000	1.1013107087
0.3250000000	1.3596074343
0.3300000000	1.7169148145
0.3350000000	2.2234487860
0.3400000000	3.0186043077
0.3450000000	4.3828352220
0.3500000000	7.1032283440
0.3550000000	13.4005954113
0.3600000000	32.9335687414
0.3650000000	0.1488549595
0.3700000000	15.2634865839
0.3750000000	20.0708732352
0.3800000000	9.3523191642
0.3850000000	5.2682367470
0.3900000000	3.3791014094
0.3950000000	2.3811777372
0.4000000000	1.8033808857
0.4050000000	1.4266980346
0.4100000000	1.1814691853
0.4150000000	1.0197270935
0.4200000000	0.9175025820
0.4250000000	0.8372181471
0.4300000000	0.7423512656
0.4350000000	0.6672697203
0.4400000000	0.6078885754
0.4450000000	0.5606735020
0.4500000000	0.5233973732
0.4550000000	0.4938383529
0.4600000000	0.4707797672
0.4650000000	0.4529347860
0.4700000000	0.4394515065
0.4750000000	0.4297338772
0.4800000000	0.4232617575
0.4850000000	0.4195790695
0.4900000000	0.4184160985
0.4950000000	0.4195653370
0.5000000000	0.4228494783
0.5050000000	0.4281894876
0.5100000000	0.4355206175
0.5150000000	0.4448043837
0.5200000000	0.4560600186
0.5250000000	0.4693032912
0.5300000000	0.4847286285
0.5350000000	0.5024224545
0.5400000000	0.5225404075
0.5450000000	0.5452865954
0.5500000000	0.5709497976
0.5550000000	0.5998458949
0.5600000000	0.6323593656
0.5650000000	0.6689846121
0.5700000000	0.7104041353
0.5750000000	0.7571237738
0.5800000000	0.8100900179
0.5850000000	0.8705960858
0.5900000000	0.9395142559
0.5950000000	1.0186800542
0.6000000000	1.1105184458
0.6050000000	1.2168468694
0.6100000000	1.3418316042
0.6150000000	1.4889275437
0.6200000000	1.6640654803
0.6250000000	1.8757540992
0.6300000000	2.1326707582
0.6350000000	2.4511210503
0.6400000000	2.8490943037
0.6450000000	3.3592348113
0.6500000000	4.0232421361
0.6550000000	4.9117512781
0.6600000000	6.1440280364
0.6650000000	7.9085016428
0.6700000000	10.5803329044
0.6750000000	14.8762295332
0.6800000000	22.4700277993
0.6850000000	37.7074580446
0.6900000000	75.5716128617
0.6950000000	212.1403518067
0.7000000000	1028.8964916522
0.7050000000	500.2223908165
0.7100000000	128.4964551508
0.7150000000	54.6438561813
0.7200000000	29.8416733973
0.7250000000	18.7458849824
0.7300000000	12.8570736286
0.7350000000	9.3759072969
0.7400000000	7.1466967461
0.7450000000	5.6335979973
0.7500000000	4.5617481445
0.7550000000	3.7742918747
0.7600000000	3.1807688933
0.7650000000	2.7205006682
0.7700000000	2.3571663408
0.7750000000	2.0654770734
0.7800000000	1.8284406836
0.7850000000	1.6332656249
0.7900000000	1.4697543555
0.7950000000	1.3331924731
0.8000000000	1.2170781167
0.8050000000	1.1175979246
0.8100000000	1.0329104570
0.8150000000	0.9586854926
0.8200000000	0.8940647545
0.8250000000	0.8398365977
0.8300000000	0.7923689922
0.8350000000	0.7511027780
0.8400000000	0.7182401922
0.8450000000	0.6895657789
0.8500000000	0.6652528325
0.8550000000	0.6498843656
0.8600000000	0.6375737697
0.8650000000	0.6287589895
0.8700000000	0.6318257420
0.8750000000	0.6328990022
0.8800000000	0.6294913137
0.8850000000	0.6021205258
0.8900000000	0.4672697448
0.8950000000	-0.2085323093
0.9000000000	-3.8323581091
0.9050000000	-25.1814901648
0.9100000000	4.7950514474
0.9150000000	11.3585587737
0.9200000000	4.7151558592
0.9250000000	2.4529620759
0.9300000000	1.4973490661
0.9350000000	1.0407892846
0.9400000000	0.7944952751
0.9450000000	0.6579763516
0.9500000000	0.5610265389
0.9550000000	0.4961299893
0.9600000000	0.4559949725
0.9650000000	0.4228798597
0.9700000000	0.3992513139
0.9750000000	0.3831497031
0.9800000000	0.3733494963
0.9850000000	0.3715583818
0.9900000000	0.3751435778
0.9950000000	0.3895963518
1.0000000000	0.4241399576
1.0050000000	0.5047810072
1.0100000000	0.7161144079
1.0150000000	1.4404104727
1.0200000000	2.7663959548
1.0250000000	1.2575210137
1.0300000000	0.6439683055
1.0350000000	0.4611011559
1.0400000000	0.3891887811
1.0450000000	0.3554510778
1.0500000000	0.3385367753
1.0550000000	0.3296603309
1.0600000000	0.3256722672
1.0650000000	0.3249197003
1.0700000000	0.3264862465
1.0750000000	0.3300490406
1.0800000000	0.3349684409
1.0850000000	0.3416651395
1.0900000000	0.3513436444
1.0950000000	0.3626277314
1.1000000000	0.3756279111
1.1050000000	0.3903675289
1.1100000000	0.4070798199
1.1150000000	0.4259871301
1.1200000000	0.4473533639
1.1250000000	0.4713969198
1.1300000000	0.4987406676
1.1350000000	0.5298044859
1.1400000000	0.5652171276
1.1450000000	0.6057781456
1.1500000000	0.6521097561
1.1550000000	0.7061492528
1.1600000000	0.7691216932
1.1650000000	0.8426316404
1.1700000000	0.9270115813
1.1750000000	1.0125867667
1.1800000000	1.0935663869
1.1850000000	1.5199059452
1.1900000000	1.8862170771
1.1950000000	2.5857327151
1.2000000000	3.5216042085
1.2050000000	3.0890235950
1.2100000000	2.9562235121
1.2150000000	3.2911112971
1.2200000000	3.9361913996
1.2250000000	4.9268345015
1.2300000000	6.4331794700
1.2350000000	8.8160605010
1.2400000000	12.8300240646
1.2450000000	20.3882897306
1.2500000000	36.7573585112
1.2550000000	79.5681090883
1.2600000000	192.1900559031
1.2650000000	194.6804531645
1.2700000000	80.9830612146
1.2750000000	37.3818407778
1.2800000000	20.7027231430
1.2850000000	13.0190986174
1.2900000000	8.9233995883
1.2950000000	6.5035033565
1.3000000000	4.9621365485
1.3050000000	3.9243391782
1.3100000000	3.1925247047
1.3150000000	2.6637522604
1.3200000000	2.2717722395
1.3250000000	1.9767925683
1.3300000000	1.7546436394
1.3350000000	1.5904946053
1.3400000000	1.4766455159
1.3450000000	1.4109843288
1.3500000000	1.4030877019
1.3550000000	1.4747580694
1.3600000000	1.6814712040
1.3650000000	2.1643983063
1.3700000000	3.3177016372
1.3750000000	6.1872206817
1.3800000000	10.1063631755
1.3850000000	7.0600699150
1.3900000000	3.5978708709
1.3950000000	2.0876147015
1.4000000000	1.3671822895
1.4050000000	0.9244003195
1.4100000000	0.5236391173
1.4150000000	-0.0742246484
1.4200000000	-1.4127569414
1.4250000000	-4.9595167992
1.4300000000	-6.6683857823
1.4350000000	3.0550480830
1.4400000000	3.9078771012
1.4450000000	2.3429392280
1.4500000000	1.4578697015
1.4550000000	1.0049724860
1.4600000000	0.7421129595
1.4650000000	0.5343751753
1.4700000000	0.3121720174
1.4750000000	0.3668473094
1.4800000000	0.5378074744
1.4850000000	0.4883471919
1.4900000000	0.4324206634
1.4950000000	0.3962469136
1.5000000000	0.3724836901
1.5050000000	0.3567715010
1.5100000000	0.3460828253
1.5150000000	0.3402508324
1.5200000000	0.3359519124
1.5250000000	0.3344013073
1.5300000000	0.3357419482
1.5350000000	0.3405873055
1.5400000000	0.3504678230
1.5450000000	0.3687823566
1.5500000000	0.4031702582
1.5550000000	0.4688589359
1.5600000000	0.5674624858
1.5650000000	0.5832644478
1.5700000000	0.4942828106
1.5750000000	0.4318416892
1.5800000000	0.4049044738
1.5850000000	0.3964274562
1.5900000000	0.3975241072
1.5950000000	0.4043352057
1.6000000000	0.4151793661
1.6050000000	0.4294776978
1.6100000000	0.4467979611
1.6150000000	0.4670757509
1.6200000000	0.4906340595
1.6250000000	0.5177515202
1.6300000000	0.5488861032
1.6350000000	0.5846282333
1.6400000000	0.6257329092
1.6450000000	0.6731644167
1.6500000000	0.7281331621
1.6550000000	0.7921730759
1.6600000000	0.8672715222
1.6650000000	0.9559937656
1.6700000000	1.0608340304
1.6750000000	1.1879132282
1.6800000000	1.3426417119
1.6850000000	1.5335309696
1.6900000000	1.7726657373
1.6950000000	2.0777798837
1.7000000000	2.4755697076
1.7050000000	3.0243312149
1.7100000000	3.7899507384
1.7150000000	4.9027942481
1.7200000000	6.5988042553
1.7250000000	9.2894553187
1.7300000000	13.4242512892
1.7350000000	18.7305575102
1.7400000000	25.4386076982
1.7450000000	37.2101112436
1.7500000000	52.4905855384
1.7550000000	53.3349709844
1.7600000000	37.4178784663
1.7650000000	23.3078438136
1.7700000000	14.9412411575
1.7750000000	10.1836834687
1.7800000000	7.3721710673
1.7850000000	5.6427439159
1.7900000000	4.5702384210
1.7950000000	3.9565669217
1.8000000000	3.7088782207
1.8050000000	3.6304651795
1.8100000000	3.2300720639
1.8150000000	2.5028408697
1.8200000000	1.9218325388
1.8250000000	1.6222656602
1.8300000000	1.4123483729
1.8350000000	1.2257908917
1.8400000000	1.0736674096
1.8450000000	0.9529479048
1.8500000000	0.8556605650
1.8550000000	0.7752900172
1.8600000000	0.7013598359
1.8650000000	0.6388580614
1.8700000000	0.5756897673
1.8750000000	0.4846278523
1.8800000000	0.2770586927
1.8850000000	-0.1778641236
1.8900000000	-0.7897612304
1.8950000000	-0.8947489290
1.9000000000	0.0957455223
1.9050000000	1.0192381286
1.9100000000	1.1269980249
1.9150000000	0.9521046157
1.9200000000	0.7806929963
1.9250000000	0.6590589070
1.9300000000	0.5853971371
1.9350000000	0.5291598651
1.9400000000	0.4917499274
1.9450000000	0.4669871381
1.9500000000	0.4496786413
1.9550000000	0.4351941802
1.9600000000	0.4226862794
1.9650000000	0.4138039722
1.9700000000	0.4090602515
1.9750000000	0.4081395536
1.9800000000	0.4107859765
1.9850000000	0.4170762718
1.9900000000	0.4274233797
1.9950000000	0.4423439200
2.0000000000	0.4614498480
2.0050000000	0.4831243325
2.0100000000	0.4986716170
2.0150000000	0.5090404369
2.0200000000	0.5215432285
2.0250000000	0.5408426485
2.0300000000	0.5683107792
2.0350000000	0.6046344220
2.0400000000	0.6510607090
2.0450000000	0.7097536144
2.0500000000	0.7838210604
2.0550000000	0.8767169212
2.0600000000	0.9901163957
2.0650000000	1.1222366625
2.0700000000	1.2750623760
2.0750000000	1.4656416531
2.0800000000	1.7221207376
2.0850000000	2.0719424707
2.0900000000	2.5310668672
2.0950000000	3.0665078580
2.1000000000	3.5437354678
2.1050000000	3.7749826898
2.1100000000	3.6651665487
2.1150000000	3.4124639770
2.1200000000	3.2338512213
2.1250000000	3.2262305249
2.1300000000	3.4183508085
2.1350000000	3.8329980789
2.1400000000	4.5158117326
2.1450000000	5.5475350068
2.1500000000	7.0412351960
2.1550000000	9.0818435484
2.1600000000	11.5047983874
2.1650000000	13.5412488474
2.1700000000	14.0224310104
2.1750000000	12.5523405976
2.1800000000	10.1338327243
2.1850000000	7.8187259485
2.1900000000	6.0086553839
2.1950000000	4.7009336281
2.2000000000	3.7834587934
2.2050000000	3.1504775320
2.2100000000	2.7110596151
2.2150000000	2.3740222682
2.2200000000	2.0720157822
2.2250000000	1.7847591029
2.2300000000	1.5246682214
2.2350000000	1.3013442774
2.2400000000	1.1121967938
2.2450000000	0.9488751318
2.2500000000	0.8030673369
2.2550000000	0.6701248111
2.2600000000	0.5371799202
2.2650000000	0.4404661144
2.2700000000	0.3879315398
2.2750000000	0.4011575351
2.2800000000	0.4774616873
2.2850000000	0.5746261050
2.2900000000	0.6457486541
2.2950000000	0.6772715958
2.3000000000	0.6808778961
2.3050000000	0.6700019796
2.3100000000	0.6556749948
2.3150000000	0.6429799064
2.3200000000	0.6339263352
2.3250000000	0.6296182155
2.3300000000	0.6309489228
2.3350000000	0.6386584806
2.3400000000	0.6533789693
2.3450000000	0.6757498480
2.3500000000	0.7064485262
2.3550000000	0.7464905155
2.3600000000	0.7952182978
2.3650000000	0.8529349698
2.3700000000	0.9194799663
2.3750000000	0.9955756251
2.3800000000	1.0839688278
2.3850000000	1.1879190227
2.3900000000	1.3081469912
2.3950000000	1.4392991984
2.4000000000	1.5676129519
2.4050000000	1.6781910771
2.4100000000	1.7394817897
2.4150000000	1.7453402257
2.4200000000	1.7107508155
2.4250000000	1.6612660515
2.4300000000	1.6195643181
2.4350000000	1.5993352850
2.4400000000	1.6060417121
2.4450000000	1.6405661738
2.4500000000	1.7030189267
2.4550000000	1.7947915803
2.4600000000	1.9217678026
2.4650000000	2.0899790849
2.4700000000	2.3061419186
2.4750000000	2.5744512786
2.4800000000	2.8927902561
2.4850000000	3.2475761359
2.4900000000	3.6077386872
2.4950000000	3.9217184786
2.5000000000	4.1249964824
2.5050000000	4.1511296215
2.5100000000	3.9735877075
2.5150000000	3.6408310225
2.5200000000	3.2302905483
2.5250000000	2.8099915090
2.5300000000	2.4213994301
2.5350000000	2.0819367384
2.5400000000	1.7941683859
2.5450000000	1.5538248257
2.5500000000	1.3547188806
2.5550000000	1.1912914266
2.5600000000	1.0546383380
2.5650000000	0.9523701927
2.5700000000	0.8788878252
2.5750000000	0.8315706194
2.5800000000	0.8051664383
2.5850000000	0.7924920918
2.5900000000	0.7868063030
2.5950000000	0.7839113307
2.6000000000	0.7824536848
2.6050000000	0.7886933926
2.6100000000	0.7985792449
2.6150000000	0.8136248828
2.6200000000	0.8346344920
2.6250000000	0.8616576209
2.6300000000	0.8939314949
2.6350000000	0.9298372037
2.6400000000	0.9669011406
2.6450000000	1.0019865858
2.6500000000	1.0317715879
2.6550000000	1.0535325044
2.6600000000	1.0660041817
2.6650000000	1.0699297502
2.6700000000	1.0679033967
2.6750000000	1.0637171917
2.6800000000	1.0610455935
2.6850000000	1.0633216240
2.6900000000	1.0729360541
2.6950000000	1.0913581367
2.7000000000	1.1192923270
2.7050000000	1.1611071060
2.7100000000	1.2149215766
2.7150000000	1.2798656885
2.7200000000	1.3541409748
2.7250000000	1.4346945124
2.7300000000	1.5169173699
2.7350000000	1.5945957520
2.7400000000	1.6603384707
2.7450000000	1.7066409267
2.7500000000	1.7274543328
2.7550000000	1.7197311769
2.7600000000	1.6842501075
2.7650000000	1.6253347764
2.7700000000	1.5496013496
2.7750000000	1.4643800717
2.7800000000	1.3763925323
2.7850000000	1.2910157777
2.7900000000	1.2113671415
2.7950000000	1.1408578615
2.8000000000	1.0801936271
2.8050000000	1.0240073888
2.8100000000	0.9797085210
2.8150000000	0.9455529740
2.8200000000	0.9196461176
2.8250000000	0.9002493723
2.8300000000	0.8858850953
2.8350000000	0.8753276360
2.8400000000	0.8675413469
2.8450000000	0.8616469528
2.8500000000	0.8569384027
2.8550000000	0.8529469805
2.8600000000	0.8495140136
2.8650000000	0.8468143096
2.8700000000	0.8453117558
2.8750000000	0.8456443524
2.8800000000	0.8484829517
2.8850000000	0.8544038170
2.8900000000	0.8637999091
2.8950000000	0.8768273555
2.9000000000	0.8933791404
2.9050000000	0.9181374569
2.9100000000	0.9452880273
2.9150000000	0.9730180932
2.9200000000	0.9990367169
2.9250000000	1.0208828753
2.9300000000	1.0362715765
2.9350000000	1.0434943529
2.9400000000	1.0417498796
2.9450000000	1.0312969881
2.9500000000	1.0133578850
2.9550000000	0.9898066420
2.9600000000	0.9627742103
2.9650000000	0.9342790798
2.9700000000	0.9059812330
2.9750000000	0.8790745125
2.9800000000	0.8542939203
2.9850000000	0.8319949873
2.9900000000	0.8122603919
2.9950000000	0.7950036033
3.0000000000	0.7800534619
