# energy (eV)    P(omega), $W$ = 300 nm, $h$ = 300 nm, $s$ = 20 nm, $d/W = 5$, $E_{\rm e}$ = 200 keV
0.2000000000	0.3637920878
0.2050000000	0.3690242700
0.2100000000	0.3739419663
0.2150000000	0.3785550046
0.2200000000	0.3828718599
0.2250000000	0.3868995459
0.2300000000	0.3906432197
0.2350000000	0.3941061143
0.2400000000	0.3972891478
0.2450000000	0.4001901885
0.2500000000	0.4028044328
0.2550000000	0.4051226573
0.2600000000	0.4071313996
0.2650000000	0.4088118505
0.2700000000	0.4101382356
0.2750000000	0.4110768439
0.2800000000	0.4115839594
0.2850000000	0.4116036494
0.2900000000	0.4110640764
0.2950000000	0.4098746858
0.3000000000	0.4079188306
0.3050000000	0.4050491546
0.3100000000	0.4010764685
0.3150000000	0.4227131829
0.3200000000	0.4484134149
0.3250000000	0.4809018416
0.3300000000	0.5243773242
0.3350000000	0.5785104845
0.3400000000	0.6494058750
0.3450000000	0.7354697449
0.3500000000	0.8481022272
0.3550000000	0.9972089317
0.3600000000	1.1920393696
0.3650000000	1.4637794812
0.3700000000	1.8224322824
0.3750000000	2.3217040862
0.3800000000	3.0443010999
0.3850000000	4.1709222778
0.3900000000	5.9520573451
0.3950000000	8.9797034119
0.4000000000	14.7552709491
0.4050000000	27.7124242264
0.4100000000	63.0925214772
0.4150000000	202.6449516321
0.4200000000	128.9917066054
0.4250000000	-243.4815816731
0.4300000000	67.8472968538
0.4350000000	42.3327697040
0.4400000000	25.9164121157
0.4450000000	17.0736103933
0.4500000000	11.9797627784
0.4550000000	8.8431860787
0.4600000000	6.7992106803
0.4650000000	5.4056572215
0.4700000000	4.4202772290
0.4750000000	3.7074022208
0.4800000000	3.1787555439
0.4850000000	2.7809587378
0.4900000000	2.4773784893
0.4950000000	2.2434122683
0.5000000000	2.0622485456
0.5050000000	1.9215377936
0.5100000000	1.8133444930
0.5150000000	1.7318289412
0.5200000000	1.6708520593
0.5250000000	1.6276788055
0.5300000000	1.5993499635
0.5350000000	1.5837069558
0.5400000000	1.5791612581
0.5450000000	1.5843862653
0.5500000000	1.5989867864
0.5550000000	1.6222227666
0.5600000000	1.6537329591
0.5650000000	1.6933648836
0.5700000000	1.7409894469
0.5750000000	1.7969467470
0.5800000000	1.8617909787
0.5850000000	1.9358854657
0.5900000000	2.0199230456
0.5950000000	2.1147622986
0.6000000000	2.2214958350
0.6050000000	2.3416902122
0.6100000000	2.4768544544
0.6150000000	2.6290364872
0.6200000000	2.8009696741
0.6250000000	2.9952717242
0.6300000000	3.2158107455
0.6350000000	3.4674090171
0.6400000000	3.7550856169
0.6450000000	4.0860824318
0.6500000000	4.4699225468
0.6550000000	4.9165230430
0.6600000000	5.4411209335
0.6650000000	6.0632772568
0.6700000000	6.8059952572
0.6750000000	7.7043335125
0.6800000000	8.8054952598
0.6850000000	10.1712719787
0.6900000000	11.8974475810
0.6950000000	14.1179339234
0.7000000000	17.0455782212
0.7050000000	21.0057586225
0.7100000000	26.5499514616
0.7150000000	34.6599765746
0.7200000000	47.1640754643
0.7250000000	67.9275722312
0.7300000000	106.0533328743
0.7350000000	187.6621100728
0.7400000000	411.5640549286
0.7450000000	1366.3324006536
0.7500000000	4235.9731714347
0.7550000000	1066.4353975661
0.7600000000	353.4425092418
0.7650000000	169.4776607383
0.7700000000	98.6378509510
0.7750000000	64.4282200729
0.7800000000	45.3765824408
0.7850000000	33.7281114447
0.7900000000	26.0788242334
0.7950000000	20.8014248125
0.8000000000	17.0064224535
0.8050000000	14.1790567313
0.8100000000	12.0223112407
0.8150000000	10.3119658000
0.8200000000	8.9617013502
0.8250000000	7.8741846032
0.8300000000	6.9830465397
0.8350000000	6.2502075505
0.8400000000	5.6357348488
0.8450000000	5.1200041679
0.8500000000	4.6840254072
0.8550000000	4.3076924996
0.8600000000	3.9864239276
0.8650000000	3.7120679840
0.8700000000	3.4695811807
0.8750000000	3.2634168718
0.8800000000	3.0886366480
0.8850000000	2.9319202607
0.8900000000	2.8065331519
0.8950000000	2.6924563733
0.9000000000	2.6024024195
0.9050000000	2.5410556521
0.9100000000	2.4848704590
0.9150000000	2.4516140084
0.9200000000	2.4495962239
0.9250000000	2.4485159982
0.9300000000	2.4142432734
0.9350000000	2.3070273654
0.9400000000	1.7019511267
0.9450000000	-1.0551613722
0.9500000000	-15.6198107065
0.9550000000	-89.5458547296
0.9600000000	21.1500790088
0.9650000000	37.1732881075
0.9700000000	16.4986144079
0.9750000000	8.6651744532
0.9800000000	5.4318344859
0.9850000000	3.9191818174
0.9900000000	3.0471904734
0.9950000000	2.5182627808
1.0000000000	2.1804794453
1.0050000000	1.9664232212
1.0100000000	1.8002942668
1.0150000000	1.6788570816
1.0200000000	1.5970982908
1.0250000000	1.5282986096
1.0300000000	1.4759190981
1.0350000000	1.4361552328
1.0400000000	1.4107591263
1.0450000000	1.3894119113
1.0500000000	1.3750523265
1.0550000000	1.3668571556
1.0600000000	1.3667241232
1.0650000000	1.3693732037
1.0700000000	1.3769368889
1.0750000000	1.3894401919
1.0800000000	1.4082808891
1.0850000000	1.4322321755
1.0900000000	1.4679237996
1.0950000000	1.5103673973
1.1000000000	1.5610513700
1.1050000000	1.6193307184
1.1100000000	1.6871072436
1.1150000000	1.7658839165
1.1200000000	1.8575029021
1.1250000000	1.9640736728
1.1300000000	2.0887753486
1.1350000000	2.2354490599
1.1400000000	2.4085399823
1.1450000000	2.6158459988
1.1500000000	2.8661080320
1.1550000000	3.1718407793
1.1600000000	3.5506964592
1.1650000000	4.0256463891
1.1700000000	4.6393850881
1.1750000000	5.4488851290
1.1800000000	6.5482015185
1.1850000000	8.0918449349
1.1900000000	10.3714413630
1.1950000000	13.9459622699
1.2000000000	20.0041400531
1.2050000000	31.4467743449
1.2100000000	56.6125497127
1.2150000000	124.6438608992
1.2200000000	305.7065651303
1.2250000000	274.9230793241
1.2300000000	109.9827903748
1.2350000000	51.8488571029
1.2400000000	29.8401092447
1.2450000000	19.7534443068
1.2500000000	14.4536484646
1.2550000000	11.4190539020
1.2600000000	9.5998196606
1.2650000000	8.4916937548
1.2700000000	7.8717930681
1.2750000000	7.5963029033
1.2800000000	7.6001088266
1.2850000000	7.8592117534
1.2900000000	8.3805294062
1.2950000000	9.1937178983
1.3000000000	10.3923658254
1.3050000000	12.0982622469
1.3100000000	14.5318223840
1.3150000000	18.0728297455
1.3200000000	23.4012954282
1.3250000000	31.8157691117
1.3300000000	46.1506794972
1.3350000000	72.9870300864
1.3400000000	130.3400122150
1.3450000000	272.7505783338
1.3500000000	579.4069353591
1.3550000000	540.7242824280
1.3600000000	249.4468621678
1.3650000000	122.5800220879
1.3700000000	70.2980399146
1.3750000000	45.2037602895
1.3800000000	31.5205035984
1.3850000000	23.2791889568
1.3900000000	17.9703015151
1.3950000000	14.3505113223
1.4000000000	11.7799535917
1.4050000000	9.8975282708
1.4100000000	8.4866512047
1.4150000000	7.4217198872
1.4200000000	6.6202917874
1.4250000000	6.0822016179
1.4300000000	5.8816029708
1.4350000000	5.9830447548
1.4400000000	4.5994490267
1.4450000000	0.3715446291
1.4500000000	-6.5033128279
1.4550000000	-1.8330081710
1.4600000000	7.8404092728
1.4650000000	4.2514455347
1.4700000000	-3.9835224488
1.4750000000	-17.4784869357
1.4800000000	-7.7779478927
1.4850000000	12.7932524660
1.4900000000	10.3699194300
1.4950000000	6.7123350284
1.5000000000	4.7162751325
1.5050000000	3.6413326061
1.5100000000	3.0285775268
1.5150000000	2.6563593620
1.5200000000	2.4158223227
1.5250000000	2.2662754353
1.5300000000	2.1519367674
1.5350000000	2.0729950188
1.5400000000	2.0208294035
1.5450000000	1.9907992255
1.5500000000	1.9798997354
1.5550000000	1.9881607232
1.5600000000	2.0208323086
1.5650000000	2.0750816834
1.5700000000	2.1632131876
1.5750000000	2.3001508255
1.5800000000	2.5139342290
1.5850000000	2.8591520665
1.5900000000	3.4508205055
1.5950000000	4.5434670471
1.6000000000	6.6747196535
1.6050000000	10.1984790477
1.6100000000	11.8307936516
1.6150000000	8.7727561302
1.6200000000	5.9041777579
1.6250000000	4.3905455380
1.6300000000	3.6312281382
1.6350000000	3.2410542078
1.6400000000	3.0441446181
1.6450000000	2.9587685344
1.6500000000	2.9440089101
1.6550000000	2.9807265121
1.6600000000	3.0575096922
1.6650000000	3.1691778372
1.6700000000	3.3138013656
1.6750000000	3.4914562064
1.6800000000	3.7037812949
1.6850000000	3.9532923298
1.6900000000	4.2422461028
1.6950000000	4.5667296391
1.7000000000	4.9216465238
1.7050000000	5.2867313497
1.7100000000	5.7041905474
1.7150000000	6.7301044090
1.7200000000	8.5240224664
1.7250000000	10.1734880811
1.7300000000	11.9481543744
1.7350000000	13.8974853587
1.7400000000	15.8076102168
1.7450000000	18.2600043942
1.7500000000	21.9696752215
1.7550000000	27.4920371985
1.7600000000	35.7550027298
1.7650000000	48.4926630426
1.7700000000	69.0108132877
1.7750000000	103.5783891780
1.7800000000	162.4803356358
1.7850000000	249.3456211584
1.7900000000	309.8659428628
1.7950000000	263.8526058492
1.8000000000	175.5977736320
1.8050000000	110.8912529284
1.8100000000	73.1110264027
1.8150000000	50.9666530866
1.8200000000	37.3386896758
1.8250000000	28.5035931871
1.8300000000	22.5047802088
1.8350000000	18.2704525125
1.8400000000	15.1854042228
1.8450000000	12.8764314582
1.8500000000	11.1083259865
1.8550000000	9.7339032340
1.8600000000	8.6504698748
1.8650000000	7.7882122696
1.8700000000	7.0974500479
1.8750000000	6.5416645870
1.8800000000	6.0918358883
1.8850000000	5.7222440480
1.8900000000	5.4031854634
1.8950000000	5.0903115779
1.9000000000	4.7070849317
1.9050000000	3.9840849460
1.9100000000	2.9873437979
1.9150000000	2.4417616825
1.9200000000	6.0585757513
1.9250000000	16.1136120622
1.9300000000	24.0890632907
1.9350000000	23.7275029138
1.9400000000	18.6682631336
1.9450000000	13.7620450077
1.9500000000	10.3168421580
1.9550000000	8.0591262687
1.9600000000	6.5669706256
1.9650000000	5.5683155117
1.9700000000	4.8471528018
1.9750000000	4.3185134188
1.9800000000	3.9149568416
1.9850000000	3.5875632537
1.9900000000	3.2989138034
1.9950000000	3.0163680889
2.0000000000	2.7351512159
2.0050000000	2.5556585025
2.0100000000	2.6587129333
2.0150000000	2.9423870672
2.0200000000	3.1175278762
2.0250000000	3.1644947688
2.0300000000	3.1756826486
2.0350000000	3.1956123951
2.0400000000	3.2408873393
2.0450000000	3.3157841958
2.0500000000	3.4231154055
2.0550000000	3.5654452213
2.0600000000	3.7427828588
2.0650000000	3.9443119252
2.0700000000	4.1432014263
2.0750000000	4.3193142051
2.0800000000	4.4903274741
2.0850000000	4.6928553614
2.0900000000	4.9514002718
2.0950000000	5.2762329121
2.1000000000	5.6783283739
2.1050000000	6.1540045499
2.1100000000	6.7366840789
2.1150000000	7.4507926787
2.1200000000	8.3305999622
2.1250000000	9.4241861611
2.1300000000	10.7993243631
2.1350000000	12.5527889664
2.1400000000	14.8243048969
2.1450000000	17.8181622259
2.1500000000	21.8320093357
2.1550000000	27.2870943019
2.1600000000	34.7225555671
2.1650000000	44.5949661750
2.1700000000	56.7219385956
2.1750000000	68.7796335458
2.1800000000	76.2328546501
2.1850000000	76.6280203635
2.1900000000	73.2532814330
2.1950000000	70.6319895968
2.2000000000	69.4744920149
2.2050000000	66.2255682601
2.2100000000	59.3136130619
2.2150000000	50.8099273638
2.2200000000	43.1733760890
2.2250000000	36.8652227930
2.2300000000	31.3203211092
2.2350000000	26.3159301322
2.2400000000	22.0216046496
2.2450000000	18.5865174806
2.2500000000	15.9525573388
2.2550000000	13.9725447433
2.2600000000	12.4883625384
2.2650000000	11.3419190939
2.2700000000	10.3627499658
2.2750000000	9.3833310687
2.2800000000	8.3313128640
2.2850000000	7.3325523405
2.2900000000	6.6444462310
2.2950000000	6.4121132186
2.3000000000	6.5000428363
2.3050000000	6.6317565388
2.3100000000	6.6442974650
2.3150000000	6.5390730700
2.3200000000	6.3866077513
2.3250000000	6.2597389145
2.3300000000	6.1957675846
2.3350000000	6.2012236757
2.3400000000	6.2555549822
2.3450000000	6.3121061505
2.3500000000	6.3121109192
2.3550000000	6.2180764301
2.3600000000	6.0406111426
2.3650000000	5.8260623345
2.3700000000	5.6222009570
2.3750000000	5.4575332001
2.3800000000	5.3412603765
2.3850000000	5.2706581265
2.3900000000	5.2396533611
2.3950000000	5.2412387298
2.4000000000	5.2773643118
2.4050000000	5.3597945986
2.4100000000	5.4924982747
2.4150000000	5.6809769316
2.4200000000	5.9285628231
2.4250000000	6.2409828399
2.4300000000	6.6265456618
2.4350000000	7.0963904701
2.4400000000	7.6648941836
2.4450000000	8.3504025442
2.4500000000	9.1760773450
2.4550000000	10.1710216138
2.4600000000	11.3710003365
2.4650000000	12.8189234088
2.4700000000	14.5640037334
2.4750000000	16.6555480869
2.4800000000	19.1444902890
2.4850000000	22.0510019667
2.4900000000	25.3466707028
2.4950000000	28.9134721321
2.5000000000	32.5017371998
2.5050000000	35.8575762862
2.5100000000	38.1230438954
2.5150000000	38.8036733448
2.5200000000	37.7824480846
2.5250000000	35.3746128797
2.5300000000	32.1280407607
2.5350000000	28.5703542325
2.5400000000	25.0737272015
2.5450000000	21.8481057302
2.5500000000	18.9866550366
2.5550000000	16.5104889576
2.5600000000	14.3855270828
2.5650000000	12.5988518261
2.5700000000	11.1084996668
2.5750000000	9.8882130323
2.5800000000	8.9183775522
2.5850000000	8.1776267273
2.5900000000	7.6307738691
2.5950000000	7.2283196561
2.6000000000	6.9187203070
2.6050000000	6.6986655503
2.6100000000	6.5080201180
2.6150000000	6.3437722755
2.6200000000	6.2091814028
2.6250000000	6.1078536655
2.6300000000	6.0421909756
2.6350000000	6.0134226234
2.6400000000	6.0222544533
2.6450000000	6.0693530614
2.6500000000	6.1560149789
2.6550000000	6.2826042091
2.6600000000	6.4510817919
2.6650000000	6.6634279307
2.6700000000	6.9220695810
2.6750000000	7.2299477209
2.6800000000	7.5903081587
2.6850000000	8.0064737284
2.6900000000	8.4811651299
2.6950000000	9.0159746983
2.7000000000	9.6103800455
2.7050000000	10.3320233271
2.7100000000	11.1198214947
2.7150000000	11.9585489909
2.7200000000	12.8260256842
2.7250000000	13.6943294425
2.7300000000	14.5318763098
2.7350000000	15.3052031013
2.7400000000	15.9794030890
2.7450000000	16.5233839564
2.7500000000	16.8889851053
2.7550000000	17.0469706950
2.7600000000	16.9751633066
2.7650000000	16.6709111303
2.7700000000	16.1546759435
2.7750000000	15.4675215117
2.7800000000	14.6629869678
2.7850000000	13.7978805230
2.7900000000	12.9231661026
2.7950000000	12.0797154865
2.8000000000	11.2964280943
2.8050000000	10.5038427041
2.8100000000	9.8253981179
2.8150000000	9.2592819496
2.8200000000	8.7963930118
2.8250000000	8.4247284278
2.8300000000	8.1321945574
2.8350000000	7.9084482489
2.8400000000	7.7425937098
2.8450000000	7.6350153078
2.8500000000	7.5777931308
2.8550000000	7.5679102957
2.8600000000	7.6031120230
2.8650000000	7.6813685899
2.8700000000	7.8004191448
2.8750000000	7.9573984904
2.8800000000	8.1485581524
2.8850000000	8.3690232005
2.8900000000	8.6129371258
2.8950000000	8.8736712905
2.9000000000	9.1442483581
2.9050000000	9.4697474573
2.9100000000	9.7822890906
2.9150000000	10.0720112047
2.9200000000	10.3285425002
2.9250000000	10.5401021115
2.9300000000	10.6958468317
2.9350000000	10.7789540801
2.9400000000	10.7821437186
2.9450000000	10.7023052829
2.9500000000	10.5440561224
2.9550000000	10.3194526512
2.9600000000	10.0459084617
2.9650000000	9.7431594084
2.9700000000	9.4302982122
2.9750000000	9.1236445876
2.9800000000	8.8357028584
2.9850000000	8.5750112641
2.9900000000	8.3467046079
2.9950000000	8.1531968510
3.0000000000	7.9950004305
