# energy (eV)    P(omega), $W$ = 300 nm, $h$ = 300 nm, $s$ = 20 nm, $d/W = 5$, $E_{\rm e}$ = 200 keV
0.2000000000	0.0941526392
0.2050000000	0.0955864153
0.2100000000	0.0969188153
0.2150000000	0.0981532244
0.2200000000	0.0992926900
0.2250000000	0.1003397281
0.2300000000	0.1012963479
0.2350000000	0.1021639483
0.2400000000	0.1029432413
0.2450000000	0.1036341272
0.2500000000	0.1042355973
0.2550000000	0.1047454813
0.2600000000	0.1051604023
0.2650000000	0.1054753408
0.2700000000	0.1056834752
0.2750000000	0.1057756696
0.2800000000	0.1057400110
0.2850000000	0.1055611235
0.2900000000	0.1052193409
0.2950000000	0.1046896048
0.3000000000	0.1039399338
0.3050000000	0.1029295705
0.3100000000	0.1016063123
0.3150000000	0.1075902237
0.3200000000	0.1146965365
0.3250000000	0.1236908478
0.3300000000	0.1357473725
0.3350000000	0.1507502082
0.3400000000	0.1703959518
0.3450000000	0.1942031630
0.3500000000	0.2253340479
0.3550000000	0.2665044306
0.3600000000	0.3202188089
0.3650000000	0.3950637674
0.3700000000	0.4936523734
0.3750000000	0.6306834945
0.3800000000	0.8287192644
0.3850000000	1.1370952882
0.3900000000	1.6238734816
0.3950000000	2.4500804421
0.4000000000	4.0239997707
0.4050000000	7.5501975846
0.4100000000	17.1645120551
0.4150000000	55.0317034092
0.4200000000	35.0864961042
0.4250000000	-65.8591720671
0.4300000000	18.2778372609
0.4350000000	11.3751075257
0.4400000000	6.9432635291
0.4450000000	4.5594477213
0.4500000000	3.1880980073
0.4550000000	2.3447215591
0.4600000000	1.7957643980
0.4650000000	1.4218864737
0.4700000000	1.1577595757
0.4750000000	0.9668019932
0.4800000000	0.8252513052
0.4850000000	0.7187375195
0.4900000000	0.6374112161
0.4950000000	0.5746633383
0.5000000000	0.5259755855
0.5050000000	0.4880364076
0.5100000000	0.4587097951
0.5150000000	0.4364216251
0.5200000000	0.4195369827
0.5250000000	0.4073102165
0.5300000000	0.3989485827
0.5350000000	0.3938697985
0.5400000000	0.3916439953
0.5450000000	0.3919122433
0.5500000000	0.3945538336
0.5550000000	0.3993641805
0.5600000000	0.4062342513
0.5650000000	0.4151119347
0.5700000000	0.4259469692
0.5750000000	0.4388133898
0.5800000000	0.4538310050
0.5850000000	0.4710764081
0.5900000000	0.4907033204
0.5950000000	0.5129085810
0.6000000000	0.5379420001
0.6050000000	0.5661721736
0.6100000000	0.5979460842
0.6150000000	0.6337416496
0.6200000000	0.6741968882
0.6250000000	0.7199228208
0.6300000000	0.7718244607
0.6350000000	0.8310294171
0.6400000000	0.8987094749
0.6450000000	0.9765589071
0.6500000000	1.0668035974
0.6550000000	1.1717593136
0.6600000000	1.2949885400
0.6650000000	1.4410574368
0.6700000000	1.6153332476
0.6750000000	1.8260048920
0.6800000000	2.0840793207
0.6850000000	2.4039699854
0.6900000000	2.8079994869
0.6950000000	3.3273807481
0.7000000000	4.0116869482
0.7050000000	4.9366827684
0.7100000000	6.2307178617
0.7150000000	8.1222373544
0.7200000000	11.0364168661
0.7250000000	15.8718454340
0.7300000000	24.7437678984
0.7350000000	43.7192723982
0.7400000000	95.7379211240
0.7450000000	317.3565689814
0.7500000000	982.3903595597
0.7550000000	246.9446525668
0.7600000000	81.7169584636
0.7650000000	39.1227486254
0.7700000000	22.7341121471
0.7750000000	14.8259723228
0.7800000000	10.4252423330
0.7850000000	7.7365698780
0.7900000000	5.9722807965
0.7950000000	4.7559533681
0.8000000000	3.8819054820
0.8050000000	3.2311764956
0.8100000000	2.7351404971
0.8150000000	2.3420957627
0.8200000000	2.0319954856
0.8250000000	1.7823872370
0.8300000000	1.5779902252
0.8350000000	1.4099799199
0.8400000000	1.2691795067
0.8450000000	1.1510567917
0.8500000000	1.0512214828
0.8550000000	0.9650933269
0.8600000000	0.8915720294
0.8650000000	0.8287636832
0.8700000000	0.7732830016
0.8750000000	0.7260667895
0.8800000000	0.6859716971
0.8850000000	0.6500277072
0.8900000000	0.6211240886
0.8950000000	0.5948326031
0.9000000000	0.5739172619
0.9050000000	0.5593666777
0.9100000000	0.5460225747
0.9150000000	0.5377454293
0.9200000000	0.5363120784
0.9250000000	0.5351504840
0.9300000000	0.5269379114
0.9350000000	0.5032721189
0.9400000000	0.3732375174
0.9450000000	-0.2161628634
0.9500000000	-3.3232423456
0.9550000000	-19.0705627144
0.9600000000	4.4978431599
0.9650000000	7.8945326028
0.9700000000	3.4998594393
0.9750000000	1.8371105171
0.9800000000	1.1515264539
0.9850000000	0.8309626923
0.9900000000	0.6463487238
0.9950000000	0.5344366688
1.0000000000	0.4629898402
1.0050000000	0.4176731975
1.0100000000	0.3825760062
1.0150000000	0.3569459340
1.0200000000	0.3396717594
1.0250000000	0.3252050666
1.0300000000	0.3142338131
1.0350000000	0.3059573914
1.0400000000	0.3007125818
1.0450000000	0.2963926120
1.0500000000	0.2935904771
1.0550000000	0.2921354547
1.0600000000	0.2924045743
1.0650000000	0.2933470534
1.0700000000	0.2953941909
1.0750000000	0.2985549732
1.0800000000	0.3031141295
1.0850000000	0.3088957510
1.0900000000	0.3173694366
1.0950000000	0.3274196753
1.1000000000	0.3393730908
1.1050000000	0.3531730719
1.1100000000	0.3692428633
1.1150000000	0.3879475378
1.1200000000	0.4097063316
1.1250000000	0.4351257082
1.1300000000	0.4649494534
1.1350000000	0.5001268193
1.1400000000	0.5417236273
1.1450000000	0.5917488112
1.1500000000	0.6523349142
1.1550000000	0.7265886026
1.1600000000	0.8188931532
1.1650000000	0.9349209190
1.1700000000	1.0853680470
1.1750000000	1.2843718348
1.1800000000	1.5553252935
1.1850000000	1.9366957935
1.1900000000	2.5008970772
1.1950000000	3.3871476768
1.2000000000	4.8909479353
1.2050000000	7.7332867945
1.2100000000	13.9858632024
1.2150000000	30.8819821835
1.2200000000	75.8013099896
1.2250000000	68.0377998537
1.2300000000	27.0780207473
1.2350000000	12.6513188408
1.2400000000	7.1859478518
1.2450000000	4.6737183473
1.2500000000	3.3449629917
1.2550000000	2.5741053346
1.2600000000	2.1004251322
1.2650000000	1.7983997665
1.2700000000	1.6113453916
1.2750000000	1.5024183694
1.2800000000	1.4535010258
1.2850000000	1.4559196983
1.2900000000	1.5074505019
1.2950000000	1.6103635441
1.3000000000	1.7784811274
1.3050000000	2.0292930495
1.3100000000	2.3965131019
1.3150000000	2.9387560054
1.3200000000	3.7618321278
1.3250000000	5.0670982990
1.3300000000	7.2969826273
1.3350000000	11.4758512245
1.3400000000	20.4080191236
1.3450000000	42.5771539371
1.3500000000	90.2629854261
1.3550000000	84.1263370472
1.3600000000	38.7803858551
1.3650000000	19.0522783730
1.3700000000	10.9272087752
1.3750000000	7.0286972869
1.3800000000	4.9031518114
1.3850000000	3.6225990144
1.3900000000	2.7968995900
1.3950000000	2.2332578573
1.4000000000	1.8317493706
1.4050000000	1.5361047207
1.4100000000	1.3119408643
1.4150000000	1.1381999739
1.4200000000	0.9992119842
1.4250000000	0.8878892499
1.4300000000	0.7978304682
1.4350000000	0.7062603524
1.4400000000	0.4163574636
1.4450000000	-0.3343987882
1.4500000000	-1.7078169124
1.4550000000	-0.6202478845
1.4600000000	1.5582398313
1.4650000000	0.9482289596
1.4700000000	-0.4046399897
1.4750000000	-2.4727702561
1.4800000000	-1.0778298916
1.4850000000	1.9411281036
1.4900000000	1.5703911244
1.4950000000	1.0232176322
1.5000000000	0.7237166729
1.5050000000	0.5610178963
1.5100000000	0.4677441460
1.5150000000	0.4103335795
1.5200000000	0.3725704936
1.5250000000	0.3485342456
1.5300000000	0.3294381909
1.5350000000	0.3154619635
1.5400000000	0.3052266401
1.5450000000	0.2978899115
1.5500000000	0.2928994278
1.5550000000	0.2899759624
1.5600000000	0.2895893232
1.5650000000	0.2906619664
1.5700000000	0.2941760185
1.5750000000	0.3008004919
1.5800000000	0.3118925423
1.5850000000	0.3301250602
1.5900000000	0.3611352236
1.5950000000	0.4173105385
1.6000000000	0.5244652495
1.6050000000	0.6979366016
1.6100000000	0.7748863927
1.6150000000	0.6258393510
1.6200000000	0.4910714996
1.6250000000	0.4242340174
1.6300000000	0.3950146926
1.6350000000	0.3845585334
1.6400000000	0.3844223430
1.6450000000	0.3907870532
1.6500000000	0.4018493990
1.6550000000	0.4168558703
1.6600000000	0.4355143662
1.6650000000	0.4578585376
1.6700000000	0.4841419960
1.6750000000	0.5148061908
1.6800000000	0.5504778337
1.6850000000	0.5919912371
1.6900000000	0.6404168604
1.6950000000	0.6967720095
1.7000000000	0.7632035584
1.7050000000	0.8436258016
1.7100000000	0.9426796732
1.7150000000	1.0833165994
1.7200000000	1.2781980803
1.7250000000	1.5144345214
1.7300000000	1.8111211528
1.7350000000	2.1281651030
1.7400000000	2.4080662360
1.7450000000	2.7561296167
1.7500000000	3.2961290138
1.7550000000	4.1112887332
1.7600000000	5.3370486963
1.7650000000	7.2292264516
1.7700000000	10.2772139026
1.7750000000	15.4092594326
1.7800000000	24.1456124516
1.7850000000	37.0090057202
1.7900000000	45.9282017688
1.7950000000	39.0467171809
1.8000000000	25.9390062148
1.8050000000	16.3461008142
1.8100000000	10.7506475155
1.8150000000	7.4730501585
1.8200000000	5.4566018750
1.8250000000	4.1492041014
1.8300000000	3.2609187756
1.8350000000	2.6329705871
1.8400000000	2.1742491038
1.8450000000	1.8293716176
1.8500000000	1.5633864667
1.8550000000	1.3543660031
1.8600000000	1.1868042937
1.8650000000	1.0499861281
1.8700000000	0.9360009406
1.8750000000	0.8386465212
1.8800000000	0.7524692693
1.8850000000	0.6719383217
1.8900000000	0.5900248427
1.8950000000	0.4960411435
1.9000000000	0.3720004831
1.9050000000	0.1608754225
1.9100000000	-0.1456931894
1.9150000000	-0.4758651620
1.9200000000	-0.3282321658
1.9250000000	0.6363673815
1.9300000000	1.4111719103
1.9350000000	1.4740575556
1.9400000000	1.2151018065
1.9450000000	0.9534503083
1.9500000000	0.7653155129
1.9550000000	0.6390899337
1.9600000000	0.5539269749
1.9650000000	0.4975446553
1.9700000000	0.4548476528
1.9750000000	0.4235115255
1.9800000000	0.3999090506
1.9850000000	0.3814778958
1.9900000000	0.3663921552
1.9950000000	0.3531727697
2.0000000000	0.3414630021
2.0050000000	0.3354964998
2.0100000000	0.3409700863
2.0150000000	0.3540569737
2.0200000000	0.3643583302
2.0250000000	0.3713818351
2.0300000000	0.3788806609
2.0350000000	0.3884739371
2.0400000000	0.4013972518
2.0450000000	0.4184549194
2.0500000000	0.4406138451
2.0550000000	0.4688546302
2.0600000000	0.5032239870
2.0650000000	0.5404567758
2.0700000000	0.5724527429
2.0750000000	0.5927784323
2.0800000000	0.6058258645
2.0850000000	0.6214043982
2.0900000000	0.6455866257
2.0950000000	0.6802286266
2.1000000000	0.7263287616
2.1050000000	0.7828325260
2.1100000000	0.8536821735
2.1150000000	0.9416144608
2.1200000000	1.0506911258
2.1250000000	1.1867509661
2.1300000000	1.3581192283
2.1350000000	1.5767368187
2.1400000000	1.8598638606
2.1450000000	2.2327292011
2.1500000000	2.7320588297
2.1550000000	3.4097617763
2.1600000000	4.3322068050
2.1650000000	5.5555198580
2.1700000000	7.0584409796
2.1750000000	8.5583706444
2.1800000000	9.5067293442
2.1850000000	9.6134940467
2.1900000000	9.2870285197
2.1950000000	9.0702910189
2.2000000000	9.0078763748
2.2050000000	8.5746563918
2.2100000000	7.5504782004
2.2150000000	6.2495444255
2.2200000000	5.0592299134
2.2250000000	4.1058594094
2.2300000000	3.3554806145
2.2350000000	2.7594803655
2.2400000000	2.2866220386
2.2450000000	1.9175475206
2.2500000000	1.6297131242
2.2550000000	1.4026146513
2.2600000000	1.2191371313
2.2650000000	1.0650407015
2.2700000000	0.9283607847
2.2750000000	0.8007000658
2.2800000000	0.6826528935
2.2850000000	0.5890391667
2.2900000000	0.5418107061
2.2950000000	0.5485334404
2.3000000000	0.5875522488
2.3050000000	0.6256843534
2.3100000000	0.6421437365
2.3150000000	0.6379856661
2.3200000000	0.6223108723
2.3250000000	0.6044099882
2.3300000000	0.5893036548
2.3350000000	0.5787319969
2.3400000000	0.5723346533
2.3450000000	0.5682491660
2.3500000000	0.5639889643
2.3550000000	0.5579639378
2.3600000000	0.5506150958
2.3650000000	0.5438711154
2.3700000000	0.5396440184
2.3750000000	0.5388681555
2.3800000000	0.5413849918
2.3850000000	0.5462358402
2.3900000000	0.5523527093
2.3950000000	0.5588221970
2.4000000000	0.5661894859
2.4050000000	0.5764855966
2.4100000000	0.5907430031
2.4150000000	0.6102708936
2.4200000000	0.6359597104
2.4250000000	0.6686195361
2.4300000000	0.7091590214
2.4350000000	0.7587171230
2.4400000000	0.8187592664
2.4450000000	0.8911760550
2.4500000000	0.9783736626
2.4550000000	1.0833962236
2.4600000000	1.2100027517
2.4650000000	1.3627415519
2.4700000000	1.5468811308
2.4750000000	1.7677844197
2.4800000000	2.0312522676
2.4850000000	2.3398931489
2.4900000000	2.6911525690
2.4950000000	3.0723256184
2.5000000000	3.4551870954
2.5050000000	3.8090429122
2.5100000000	4.0376431262
2.5150000000	4.0876904703
2.5200000000	3.9522935640
2.5250000000	3.6738153617
2.5300000000	3.3167055317
2.5350000000	2.9374954561
2.5400000000	2.5719916890
2.5450000000	2.2378912617
2.5500000000	1.9418070334
2.5550000000	1.6845791796
2.5600000000	1.4624756922
2.5650000000	1.2750097249
2.5700000000	1.1184407863
2.5750000000	0.9905548154
2.5800000000	0.8896226482
2.5850000000	0.8135021254
2.5900000000	0.7583261012
2.5950000000	0.7184962187
2.6000000000	0.6881569961
2.6050000000	0.6665186211
2.6100000000	0.6470894168
2.6150000000	0.6296304473
2.6200000000	0.6145779960
2.6250000000	0.6023609995
2.6300000000	0.5932384575
2.6350000000	0.5873226646
2.6400000000	0.5846725318
2.6450000000	0.5853546112
2.6500000000	0.5895118054
2.6550000000	0.5971681579
2.6600000000	0.6085245398
2.6650000000	0.6237583969
2.6700000000	0.6430788114
2.6750000000	0.6667338546
2.6800000000	0.6949996249
2.6850000000	0.7281776700
2.6900000000	0.7665593914
2.6950000000	0.8104089124
2.7000000000	0.8599092030
2.7050000000	0.9210207572
2.7100000000	0.9895145868
2.7150000000	1.0649204755
2.7200000000	1.1462221094
2.7250000000	1.2317264553
2.7300000000	1.3189435394
2.7350000000	1.4044810379
2.7400000000	1.4839892173
2.7450000000	1.5528762366
2.7500000000	1.6044763874
2.7550000000	1.6342111192
2.7600000000	1.6386417061
2.7650000000	1.6168836018
2.7700000000	1.5709185388
2.7750000000	1.5051930185
2.7800000000	1.4256042243
2.7850000000	1.3384257461
2.7900000000	1.2492620847
2.7950000000	1.1626003077
2.8000000000	1.0816053948
2.8050000000	0.9992458093
2.8100000000	0.9281497167
2.8150000000	0.8681549406
2.8200000000	0.8183184501
2.8250000000	0.7773868969
2.8300000000	0.7441029871
2.8350000000	0.7173951724
2.8400000000	0.6961243260
2.8450000000	0.6803671792
2.8500000000	0.6692889202
2.8550000000	0.6625785001
2.8600000000	0.6600158674
2.8650000000	0.6614271756
2.8700000000	0.6666576681
2.8750000000	0.6755489786
2.8800000000	0.6879178979
2.8850000000	0.7035366249
2.8900000000	0.7221246886
2.8950000000	0.7433395353
2.9000000000	0.7667748533
2.9050000000	0.7975598775
2.9100000000	0.8291662879
2.9150000000	0.8603752061
2.9200000000	0.8897209084
2.9250000000	0.9155039238
2.9300000000	0.9361269832
2.9350000000	0.9494636244
2.9400000000	0.9544486938
2.9450000000	0.9505367558
2.9500000000	0.9380488756
2.9550000000	0.9181243406
2.9600000000	0.8924983948
2.9650000000	0.8631840975
2.9700000000	0.8321568432
2.9750000000	0.8011306044
2.9800000000	0.7714346565
2.9850000000	0.7439963100
2.9900000000	0.7193862184
2.9950000000	0.6978950619
3.0000000000	0.6796165629
