# energy (eV)    P(omega), $W$ = 300 nm, $h$ = 300 nm, $s$ = 20 nm, $d/W = 5$, $E_{\rm e}$ = 200 keV
0.2000000000	0.3280715646
0.2050000000	0.3330687333
0.2100000000	0.3377122082
0.2150000000	0.3420137915
0.2200000000	0.3459841130
0.2250000000	0.3496319658
0.2300000000	0.3529643449
0.2350000000	0.3559861907
0.2400000000	0.3586999450
0.2450000000	0.3611052864
0.2500000000	0.3631987168
0.2550000000	0.3649726720
0.2600000000	0.3664153918
0.2650000000	0.3675094000
0.2700000000	0.3682308898
0.2750000000	0.3685480493
0.2800000000	0.3684193518
0.2850000000	0.3677912198
0.2900000000	0.3665950937
0.2950000000	0.3647436451
0.3000000000	0.3621253861
0.3050000000	0.3585982793
0.3100000000	0.3539803744
0.3150000000	0.3748374652
0.3200000000	0.3996067000
0.3250000000	0.4309569008
0.3300000000	0.4729811475
0.3350000000	0.5252748313
0.3400000000	0.5937518196
0.3450000000	0.6767328245
0.3500000000	0.7852402667
0.3550000000	0.9287394353
0.3600000000	1.1159587466
0.3650000000	1.3768263049
0.3700000000	1.7204458612
0.3750000000	2.1980473401
0.3800000000	2.8882645055
0.3850000000	3.9630422443
0.3900000000	5.6595838565
0.3950000000	8.5390871427
0.4000000000	14.0244678581
0.4050000000	26.3137592100
0.4100000000	59.8206134973
0.4150000000	191.7902262869
0.4200000000	122.2807708299
0.4250000000	-229.5180185931
0.4300000000	63.6961557486
0.4350000000	39.6402126660
0.4400000000	24.1955225404
0.4450000000	15.8881658755
0.4500000000	11.1091970189
0.4550000000	8.1701717845
0.4600000000	6.2571628024
0.4650000000	4.9542814490
0.4700000000	4.0338642323
0.4750000000	3.3684270812
0.4800000000	2.8751614773
0.4850000000	2.5039897179
0.4900000000	2.2205882239
0.4950000000	2.0019262833
0.5000000000	1.8322573631
0.5050000000	1.7000425148
0.5100000000	1.5978374594
0.5150000000	1.5201567667
0.5200000000	1.4613032819
0.5250000000	1.4186784442
0.5300000000	1.3895194092
0.5350000000	1.3717974491
0.5400000000	1.3640142427
0.5450000000	1.3649187586
0.5500000000	1.3740902236
0.5550000000	1.3908154778
0.5600000000	1.4147141429
0.5650000000	1.4456043325
0.5700000000	1.4833106404
0.5750000000	1.5280902970
0.5800000000	1.5803604797
0.5850000000	1.6403871621
0.5900000000	1.7087054378
0.5950000000	1.7860000905
0.6000000000	1.8731409114
0.6050000000	1.9714105525
0.6100000000	2.0820168550
0.6150000000	2.2066235238
0.6200000000	2.3474510442
0.6250000000	2.5066266055
0.6300000000	2.6873002824
0.6350000000	2.8933972268
0.6400000000	3.1289962257
0.6450000000	3.3999949528
0.6500000000	3.7141412642
0.6550000000	4.0794959602
0.6600000000	4.5084600877
0.6650000000	5.0169269841
0.6700000000	5.6235804958
0.6750000000	6.3569226436
0.6800000000	7.2552679823
0.6850000000	8.3687887928
0.6900000000	9.7751818961
0.6950000000	11.5830950120
0.7000000000	13.9650817119
0.7050000000	17.1848587759
0.7100000000	21.6891804250
0.7150000000	28.2732047712
0.7200000000	38.4168540470
0.7250000000	55.2478723655
0.7300000000	86.1287546095
0.7350000000	152.1771972385
0.7400000000	333.2383548192
0.7450000000	1104.6197406085
0.7500000000	3419.3513028225
0.7550000000	859.5152450883
0.7600000000	284.4202008110
0.7650000000	136.1670146051
0.7700000000	79.1252144462
0.7750000000	51.6005577737
0.7800000000	36.2837061105
0.7850000000	26.9257759884
0.7900000000	20.7852028630
0.7950000000	16.5518280770
0.8000000000	13.5097578141
0.8050000000	11.2449506567
0.8100000000	9.5185508861
0.8150000000	8.1506093236
0.8200000000	7.0713521258
0.8250000000	6.2026342430
0.8300000000	5.4912680061
0.8350000000	4.9065430389
0.8400000000	4.4165176161
0.8450000000	4.0054190300
0.8500000000	3.6579663611
0.8550000000	3.3582193728
0.8600000000	3.1023476087
0.8650000000	2.8837592026
0.8700000000	2.6906736385
0.8750000000	2.5263491662
0.8800000000	2.3868062856
0.8850000000	2.2617106178
0.8900000000	2.1611134164
0.8950000000	2.0696076383
0.9000000000	1.9968089806
0.9050000000	1.9461551458
0.9100000000	1.8997008803
0.9150000000	1.8708756023
0.9200000000	1.8658599933
0.9250000000	1.8617913146
0.9300000000	1.8331984622
0.9350000000	1.7508589302
0.9400000000	1.2985417005
0.9450000000	-0.7515517157
0.9500000000	-11.5586033928
0.9550000000	-66.3302211366
0.9600000000	15.6440798488
0.9650000000	27.4577732139
0.9700000000	12.1726875116
0.9750000000	6.3895611416
0.9800000000	4.0050854146
0.9850000000	2.8901631265
0.9900000000	2.2480801427
0.9950000000	1.8588545002
1.0000000000	1.6103659495
1.0050000000	1.4527555581
1.0100000000	1.3306903255
1.0150000000	1.2415514542
1.0200000000	1.1814729047
1.0250000000	1.1311606523
1.0300000000	1.0930058576
1.0350000000	1.0642242115
1.0400000000	1.0459857741
1.0450000000	1.0309661521
1.0500000000	1.0212264204
1.0550000000	1.0161728004
1.0600000000	1.0171162849
1.0650000000	1.0204037090
1.0700000000	1.0275349282
1.0750000000	1.0385410159
1.0800000000	1.0544118867
1.0850000000	1.0745383295
1.0900000000	1.1040332137
1.0950000000	1.1390150248
1.1000000000	1.1806197973
1.1050000000	1.2286530594
1.1100000000	1.2845871380
1.1150000000	1.3496927642
1.1200000000	1.4254290195
1.1250000000	1.5139089017
1.1300000000	1.6177212541
1.1350000000	1.7401706716
1.1400000000	1.8849671707
1.1450000000	2.0591066141
1.1500000000	2.2700130786
1.1550000000	2.5285024395
1.1600000000	2.8498355548
1.1650000000	3.2537602979
1.1700000000	3.7775185864
1.1750000000	4.4703301124
1.1800000000	5.4136413983
1.1850000000	6.7413783456
1.1900000000	8.7056550349
1.1950000000	11.7911830883
1.2000000000	17.0267645348
1.2050000000	26.9225759024
1.2100000000	48.6913570465
1.2150000000	107.5160819892
1.2200000000	263.9033614920
1.2250000000	236.8707451658
1.2300000000	94.2675810287
1.2350000000	44.0408338799
1.2400000000	25.0130454101
1.2450000000	16.2665379325
1.2500000000	11.6402042682
1.2550000000	8.9561035257
1.2600000000	7.3065291891
1.2650000000	6.2544667151
1.2700000000	5.6025409559
1.2750000000	5.2224594828
1.2800000000	5.0510994463
1.2850000000	5.0582115241
1.2900000000	5.2359672538
1.2950000000	5.5921607020
1.3000000000	6.1747132697
1.3050000000	7.0442483678
1.3100000000	8.3176890588
1.3150000000	10.1983482266
1.3200000000	13.0532614603
1.3250000000	17.5808819922
1.3300000000	25.3159663100
1.3350000000	39.8118858916
1.3400000000	70.7964017630
1.3450000000	147.6978496688
1.3500000000	313.1112437191
1.3550000000	291.8203430363
1.3600000000	134.5218478259
1.3650000000	66.0886602259
1.3700000000	37.9044529071
1.3750000000	24.3813572426
1.3800000000	17.0083091452
1.3850000000	12.5663464472
1.3900000000	9.7021522525
1.3950000000	7.7469701595
1.4000000000	6.3541673897
1.4050000000	5.3285557198
1.4100000000	4.5508475668
1.4150000000	3.9479577899
1.4200000000	3.4654518284
1.4250000000	3.0785580325
1.4300000000	2.7645928133
1.4350000000	2.4440741866
1.4400000000	1.4361953650
1.4450000000	-1.1713579461
1.4500000000	-5.9451585197
1.4550000000	-2.1615354635
1.4600000000	5.4159545807
1.4650000000	3.2982592316
1.4700000000	-1.3969125431
1.4750000000	-8.5701049657
1.4800000000	-3.7346106368
1.4850000000	6.7323847117
1.4900000000	5.4465284755
1.4950000000	3.5491095068
1.5000000000	2.5105210324
1.5050000000	1.9462984641
1.5100000000	1.6228327789
1.5150000000	1.4237324793
1.5200000000	1.2927690591
1.5250000000	1.2094175879
1.5300000000	1.1431983830
1.5350000000	1.0947408556
1.5400000000	1.0592646513
1.5450000000	1.0338495012
1.5500000000	1.0165846473
1.5550000000	1.0065039531
1.5600000000	1.0052439303
1.5650000000	1.0090745577
1.5700000000	1.0214182980
1.5750000000	1.0446207345
1.5800000000	1.0834344709
1.5850000000	1.1472168549
1.5900000000	1.2557006902
1.5950000000	1.4522436470
1.6000000000	1.8271869655
1.6050000000	2.4341420272
1.6100000000	2.7030954529
1.6150000000	2.1810543319
1.6200000000	1.7090819732
1.6250000000	1.4748696446
1.6300000000	1.3722855211
1.6350000000	1.3353255304
1.6400000000	1.3344329006
1.6450000000	1.3562354584
1.6500000000	1.3944177769
1.6550000000	1.4463302622
1.6600000000	1.5109426702
1.6650000000	1.5883607537
1.6700000000	1.6794572479
1.6750000000	1.7857598008
1.6800000000	1.9094412002
1.6850000000	2.0533954591
1.6900000000	2.2213411771
1.6950000000	2.4168248287
1.7000000000	2.6473226472
1.7050000000	2.9264878923
1.7100000000	3.2703610433
1.7150000000	3.7577156988
1.7200000000	4.4324401569
1.7250000000	5.2515747411
1.7300000000	6.2809637667
1.7350000000	7.3807627708
1.7400000000	8.3510622200
1.7450000000	9.5574114353
1.7500000000	11.4293655975
1.7550000000	14.2554752936
1.7600000000	18.5052652769
1.7650000000	25.0656279836
1.7700000000	35.6332752238
1.7750000000	53.4264375385
1.7800000000	83.7156755877
1.7850000000	128.3128515522
1.7900000000	159.2341439380
1.7950000000	135.3739477773
1.8000000000	89.9284899533
1.8050000000	56.6697190653
1.8100000000	37.2703818698
1.8150000000	25.9070985944
1.8200000000	18.9161988092
1.8250000000	14.3835518134
1.8300000000	11.3039345716
1.8350000000	9.1268798427
1.8400000000	7.5365087105
1.8450000000	6.3408117208
1.8500000000	5.4186099668
1.8550000000	4.6938776822
1.8600000000	4.1128539060
1.8650000000	3.6383838676
1.8700000000	3.2430335438
1.8750000000	2.9052884186
1.8800000000	2.6062234140
1.8850000000	2.3266371833
1.8900000000	2.0421218534
1.8950000000	1.7155617900
1.9000000000	1.2845000294
1.9050000000	0.5509734099
1.9100000000	-0.5142699233
1.9150000000	-1.6627223345
1.9200000000	-1.1569065898
1.9250000000	2.1789260044
1.9300000000	4.8585829652
1.9350000000	5.0783483880
1.9400000000	4.1882094134
1.9450000000	3.2883497497
1.9500000000	2.6411413151
1.9550000000	2.2067871602
1.9600000000	1.9136626771
1.9650000000	1.7196232687
1.9700000000	1.5726012079
1.9750000000	1.4646968385
1.9800000000	1.3834341209
1.9850000000	1.3200027711
1.9900000000	1.2681295564
1.9950000000	1.2227384956
2.0000000000	1.1825975960
2.0050000000	1.1622224851
2.0100000000	1.1810459696
2.0150000000	1.2259764397
2.0200000000	1.2614569403
2.0250000000	1.2858156006
2.0300000000	1.3119133390
2.0350000000	1.3452892669
2.0400000000	1.3902116381
2.0450000000	1.4494753955
2.0500000000	1.5264474030
2.0550000000	1.6245421688
2.0600000000	1.7439211836
2.0650000000	1.8732140536
2.0700000000	1.9842149677
2.0750000000	2.0545175839
2.0800000000	2.0994012760
2.0850000000	2.1530042383
2.0900000000	2.2364519421
2.0950000000	2.3561899685
2.1000000000	2.5156625386
2.1050000000	2.7111967754
2.1100000000	2.9564367969
2.1150000000	3.2608478435
2.1200000000	3.6384864552
2.1250000000	4.1095642571
2.1300000000	4.7029022447
2.1350000000	5.4598422140
2.1400000000	6.4401430394
2.1450000000	7.7311517699
2.1500000000	9.4600204318
2.1550000000	11.8064673920
2.1600000000	15.0002646449
2.1650000000	19.2357197196
2.1700000000	24.4392087692
2.1750000000	29.6323257809
2.1800000000	32.9159178671
2.1850000000	33.2860903578
2.1900000000	32.1567916024
2.1950000000	31.4076310306
2.2000000000	31.1923063921
2.2050000000	29.6913561503
2.2100000000	26.1422152394
2.2150000000	21.6336484864
2.2200000000	17.5081951765
2.2250000000	14.2044684385
2.2300000000	11.6056179191
2.2350000000	9.5429330097
2.2400000000	7.9072408620
2.2450000000	6.6307843787
2.2500000000	5.6352247565
2.2550000000	4.8495390402
2.2600000000	4.2145267173
2.2650000000	3.6809951844
2.2700000000	3.2076798628
2.2750000000	2.7657176367
2.2800000000	2.3573258954
2.2850000000	2.0338001721
2.2900000000	1.8709745881
2.2950000000	1.8948681903
2.3000000000	2.0304328530
2.3050000000	2.1628203325
2.3100000000	2.2200719594
2.3150000000	2.2058628386
2.3200000000	2.1517076444
2.3250000000	2.0897746336
2.3300000000	2.0374504671
2.3350000000	2.0007714836
2.3400000000	1.9785169011
2.3450000000	1.9642842966
2.3500000000	1.9495210772
2.3550000000	1.9287575501
2.3600000000	1.9035109533
2.3650000000	1.8804144325
2.3700000000	1.8660411227
2.3750000000	1.8635940554
2.3800000000	1.8725072176
2.3850000000	1.8894502310
2.3900000000	1.9107172840
2.3950000000	1.9331431836
2.4000000000	1.9586204788
2.4050000000	1.9941878633
2.4100000000	2.0434336201
2.4150000000	2.1109001743
2.4200000000	2.1996753728
2.4250000000	2.3125625135
2.4300000000	2.4527029422
2.4350000000	2.6240333677
2.4400000000	2.8316182784
2.4450000000	3.0819929901
2.4500000000	3.3834751706
2.4550000000	3.7465884838
2.4600000000	4.1843298661
2.4650000000	4.7124241939
2.4700000000	5.3490896198
2.4750000000	6.1128747674
2.4800000000	7.0238498374
2.4850000000	8.0910530919
2.4900000000	9.3056719798
2.4950000000	10.6237884150
2.5000000000	11.9477775438
2.5050000000	13.1714437612
2.5100000000	13.9618362243
2.5150000000	14.1346114060
2.5200000000	13.6660108571
2.5250000000	12.7026714506
2.5300000000	11.4675715185
2.5350000000	10.1562100761
2.5400000000	8.8923588618
2.5450000000	7.7371449945
2.5500000000	6.7133858058
2.5550000000	5.8239695523
2.5600000000	5.0559839186
2.5650000000	4.4077619204
2.5700000000	3.8663776621
2.5750000000	3.4241825804
2.5800000000	3.0752014065
2.5850000000	2.8120267641
2.5900000000	2.6212835044
2.5950000000	2.4836069448
2.6000000000	2.3787433187
2.6050000000	2.3039555109
2.6100000000	2.2367933817
2.6150000000	2.1764316923
2.6200000000	2.1243792273
2.6250000000	2.0821182259
2.6300000000	2.0505422284
2.6350000000	2.0300387956
2.6400000000	2.0208100560
2.6450000000	2.0230868975
2.6500000000	2.0373637195
2.6550000000	2.0637240222
2.6600000000	2.1028618899
2.6650000000	2.1553891703
2.6700000000	2.2220272051
2.6750000000	2.3036319523
2.6800000000	2.4011565031
2.6850000000	2.5156428973
2.6900000000	2.6480996328
2.6950000000	2.7994421573
2.7000000000	2.9703078129
2.7050000000	3.1812807489
2.7100000000	3.4177804204
2.7150000000	3.6782006197
2.7200000000	3.9590494040
2.7250000000	4.2544959034
2.7300000000	4.5559447522
2.7350000000	4.8516711187
2.7400000000	5.1266265179
2.7450000000	5.3649180583
2.7500000000	5.5434738314
2.7550000000	5.6464468989
2.7600000000	5.6619311366
2.7650000000	5.5868606634
2.7700000000	5.4280848008
2.7750000000	5.2009799200
2.7800000000	4.9259352733
2.7850000000	4.6246392247
2.7900000000	4.3164725903
2.7950000000	4.0169453050
2.8000000000	3.7369995934
2.8050000000	3.4523377129
2.8100000000	3.2065996379
2.8150000000	2.9992238040
2.8200000000	2.8269494408
2.8250000000	2.6854433422
2.8300000000	2.5703590183
2.8350000000	2.4779918078
2.8400000000	2.4044035016
2.8450000000	2.3498597151
2.8500000000	2.3114740077
2.8550000000	2.2881718493
2.8600000000	2.2791932922
2.8650000000	2.2839382583
2.8700000000	2.3018747211
2.8750000000	2.3324572832
2.8800000000	2.3750569338
2.8850000000	2.4288911294
2.8900000000	2.4929959643
2.8950000000	2.5661935303
2.9000000000	2.6470842922
2.9050000000	2.7534011421
2.9100000000	2.8625924270
2.9150000000	2.9704431499
2.9200000000	3.0718816001
2.9250000000	3.1610267012
2.9300000000	3.2323510021
2.9350000000	3.2784998411
2.9400000000	3.2957874373
2.9450000000	3.2823259195
2.9500000000	3.2392224902
2.9550000000	3.1704130620
2.9600000000	3.0818929401
2.9650000000	2.9806181359
2.9700000000	2.8734147540
2.9750000000	2.7662054609
2.9800000000	2.6635840004
2.9850000000	2.5687545679
2.9900000000	2.4836900426
2.9950000000	2.4093948360
3.0000000000	2.3461932585
