# energy (eV)    P(omega), $W$ = 400 nm, $h$ = 300 nm, $s$ = 20 nm, $d/W = 5$, $E_{\rm e}$ = 200 keV
0.2000000000	0.0661311544
0.2050000000	0.0667327847
0.2100000000	0.0671565367
0.2150000000	0.0673952734
0.2200000000	0.0674390174
0.2250000000	0.0672742155
0.2300000000	0.0668830381
0.2350000000	0.0662422709
0.2400000000	0.0653220639
0.2450000000	0.0640839439
0.2500000000	0.0624787277
0.2550000000	0.0604431294
0.2600000000	0.0578955996
0.2650000000	0.0605657618
0.2700000000	0.0673479749
0.2750000000	0.0770532255
0.2800000000	0.0905755948
0.2850000000	0.1105113568
0.2900000000	0.1352137585
0.2950000000	0.1706272138
0.3000000000	0.2182338626
0.3050000000	0.2912043088
0.3100000000	0.3928516184
0.3150000000	0.5895355107
0.3200000000	0.8967223529
0.3250000000	1.1070471960
0.3300000000	1.3979973723
0.3350000000	1.8104653726
0.3400000000	2.4579614814
0.3450000000	3.5688647886
0.3500000000	5.7841171320
0.3550000000	10.9121930954
0.3600000000	26.8184428467
0.3650000000	0.1207858594
0.3700000000	12.4298878289
0.3750000000	16.3450188462
0.3800000000	7.6163506126
0.3850000000	4.2904395333
0.3900000000	2.7519906917
0.3950000000	1.9393090954
0.4000000000	1.4687649701
0.4050000000	1.1620014854
0.4100000000	0.9622917072
0.4150000000	0.8305730367
0.4200000000	0.7473263524
0.4250000000	0.6819470937
0.4300000000	0.6046877720
0.4350000000	0.5435415643
0.4400000000	0.4951819126
0.4450000000	0.4567305874
0.4500000000	0.4263739278
0.4550000000	0.4023024809
0.4600000000	0.3835254569
0.4650000000	0.3689948586
0.4700000000	0.3580169087
0.4750000000	0.3501062184
0.4800000000	0.3448392080
0.4850000000	0.3418444560
0.4900000000	0.3409023418
0.4950000000	0.3418438922
0.5000000000	0.3445247683
0.5050000000	0.3488806467
0.5100000000	0.3548588459
0.5150000000	0.3624280924
0.5200000000	0.3716041143
0.5250000000	0.3823998393
0.5300000000	0.3949737395
0.5350000000	0.4093963195
0.5400000000	0.4257944673
0.5450000000	0.4443345548
0.5500000000	0.4652519921
0.5550000000	0.4888042450
0.5600000000	0.5153047217
0.5650000000	0.5451563853
0.5700000000	0.5789155354
0.5750000000	0.6169944944
0.5800000000	0.6601647156
0.5850000000	0.7094802317
0.5900000000	0.7656520950
0.5950000000	0.8301763557
0.6000000000	0.9050295048
0.6050000000	0.9916930210
0.6100000000	1.0935626194
0.6150000000	1.2134544320
0.6200000000	1.3562025182
0.6250000000	1.5287420567
0.6300000000	1.7381461052
0.6350000000	1.9977048774
0.6400000000	2.3220815692
0.6450000000	2.7378839700
0.6500000000	3.2791013762
0.6550000000	4.0033079823
0.6600000000	5.0077165777
0.6650000000	6.4459163038
0.6700000000	8.6237001447
0.6750000000	12.1252588649
0.6800000000	18.3149425396
0.6850000000	30.7349827933
0.6900000000	61.5982191899
0.6950000000	172.9165163075
0.7000000000	838.6650648048
0.7050000000	407.7403203090
0.7100000000	104.7406599208
0.7150000000	44.5419378636
0.7200000000	24.3250934622
0.7250000000	15.2806153047
0.7300000000	10.4804650303
0.7350000000	7.6428481068
0.7400000000	5.8257353795
0.7450000000	4.5923470187
0.7500000000	3.7186350792
0.7550000000	3.0767423929
0.7600000000	2.5929320016
0.7650000000	2.2177428488
0.7700000000	1.9215685606
0.7750000000	1.6837953892
0.7800000000	1.4905723957
0.7850000000	1.3314725742
0.7900000000	1.1981835232
0.7950000000	1.0868624626
0.8000000000	0.9922093454
0.8050000000	0.9111156916
0.8100000000	0.8420806001
0.8150000000	0.7815740901
0.8200000000	0.7288966164
0.8250000000	0.6846911236
0.8300000000	0.6459966784
0.8350000000	0.6123575099
0.8400000000	0.5855692714
0.8450000000	0.5621951973
0.8500000000	0.5423766434
0.8550000000	0.5298504241
0.8600000000	0.5198170940
0.8650000000	0.5126337595
0.8700000000	0.5151378648
0.8750000000	0.5160163342
0.8800000000	0.5132407234
0.8850000000	0.4909251435
0.8900000000	0.3809688287
0.8950000000	-0.1700868359
0.9000000000	-3.1250169910
0.9050000000	-20.5335860984
0.9100000000	3.9100048971
0.9150000000	9.2621268798
0.9200000000	3.8448896003
0.9250000000	2.0002149395
0.9300000000	1.2209674076
0.9350000000	0.8486651754
0.9400000000	0.6478210267
0.9450000000	0.5364913216
0.9500000000	0.4574260613
0.9550000000	0.4044965233
0.9600000000	0.3717563729
0.9650000000	0.3447365919
0.9700000000	0.3254475092
0.9750000000	0.3122887115
0.9800000000	0.3042569740
0.9850000000	0.3027382713
0.9900000000	0.3055726246
0.9950000000	0.3172125975
1.0000000000	0.3451194097
1.0050000000	0.4103394397
1.0100000000	0.5813041320
1.0150000000	1.1673273034
1.0200000000	2.2402502168
1.0250000000	1.0194002967
1.0300000000	0.5229454898
1.0350000000	0.3749791610
1.0400000000	0.3167971982
1.0450000000	0.2895095878
1.0500000000	0.2758419204
1.0550000000	0.2686805617
1.0600000000	0.2654795695
1.0650000000	0.2649017341
1.0700000000	0.2662056746
1.0750000000	0.2691314472
1.0800000000	0.2731594356
1.0850000000	0.2786341768
1.0900000000	0.2865390362
1.0950000000	0.2957519129
1.1000000000	0.3063633528
1.1050000000	0.3183928284
1.1100000000	0.3320307576
1.1150000000	0.3474587294
1.1200000000	0.3648921335
1.1250000000	0.3845091628
1.1300000000	0.4068181396
1.1350000000	0.4321614874
1.1400000000	0.4610522807
1.1450000000	0.4941427422
1.1500000000	0.5319402899
1.1550000000	0.5760254457
1.1600000000	0.6273973930
1.1650000000	0.6873648296
1.1700000000	0.7561999175
1.1750000000	0.8260148193
1.1800000000	0.8921092956
1.1850000000	1.2399246792
1.1900000000	1.5386849415
1.1950000000	2.1091720062
1.2000000000	2.8724380078
1.2050000000	2.5197769667
1.2100000000	2.4116152076
1.2150000000	2.6848964095
1.2200000000	3.2112074424
1.2250000000	4.0194293922
1.2300000000	5.2483787506
1.2350000000	7.1924451150
1.2400000000	10.4672276559
1.2450000000	16.6336305223
1.2500000000	29.9883469296
1.2550000000	64.9156172925
1.2600000000	156.7988873476
1.2650000000	158.8313909000
1.2700000000	66.0708878653
1.2750000000	30.4985119511
1.2800000000	16.8906963866
1.2850000000	10.6219243532
1.2900000000	7.2803961924
1.2950000000	5.3060903287
1.3000000000	4.0485439937
1.3050000000	3.2018423998
1.3100000000	2.6047825039
1.3150000000	2.1733789740
1.3200000000	1.8535817864
1.3250000000	1.6129265832
1.3300000000	1.4316954024
1.3350000000	1.2977899065
1.3400000000	1.2049303773
1.3450000000	1.1513983437
1.3500000000	1.1450152877
1.3550000000	1.2035852249
1.3600000000	1.3724043195
1.3650000000	1.7667348783
1.3700000000	2.7083965419
1.3750000000	5.0512788486
1.3800000000	8.2511387094
1.3850000000	5.7639873423
1.3900000000	2.9372611521
1.3950000000	1.7042237313
1.4000000000	1.1160561173
1.4050000000	0.7546005833
1.4100000000	0.4275056246
1.4150000000	-0.0603769342
1.4200000000	-1.1525853460
1.4250000000	-4.0465852215
1.4300000000	-5.4409737925
1.4350000000	2.4928552343
1.4400000000	3.1887250380
1.4450000000	1.9118014112
1.4500000000	1.1896158220
1.4550000000	0.8200618472
1.4600000000	0.6055650237
1.4650000000	0.4360270831
1.4700000000	0.2546547055
1.4750000000	0.2993157495
1.4800000000	0.4389029202
1.4850000000	0.3985357007
1.4900000000	0.3528860963
1.4950000000	0.3233600976
1.5000000000	0.3039640827
1.5050000000	0.2911389361
1.5100000000	0.2824134020
1.5150000000	0.2776507428
1.5200000000	0.2741383263
1.5250000000	0.2728671361
1.5300000000	0.2739527507
1.5350000000	0.2778939251
1.5400000000	0.2859359698
1.5450000000	0.3008449574
1.5500000000	0.3288381414
1.5550000000	0.3823081248
1.5600000000	0.4625671485
1.5650000000	0.4754340668
1.5700000000	0.4030263544
1.5750000000	0.3522251017
1.5800000000	0.3303228623
1.5850000000	0.3234478233
1.5900000000	0.3243677139
1.5950000000	0.3299419722
1.6000000000	0.3388026265
1.6050000000	0.3504792850
1.6100000000	0.3646204736
1.6150000000	0.3811743115
1.6200000000	0.4004047528
1.6250000000	0.4225395179
1.6300000000	0.4479525575
1.6350000000	0.4771258870
1.6400000000	0.5106758130
1.6450000000	0.5493894401
1.6500000000	0.5942547633
1.6550000000	0.6465238156
1.6600000000	0.7078187283
1.6650000000	0.7802333209
1.6700000000	0.8658035541
1.6750000000	0.9695252564
1.6800000000	1.0958146308
1.6850000000	1.2516190848
1.6900000000	1.4468025964
1.6950000000	1.6958405355
1.7000000000	2.0205239795
1.7050000000	2.4684374462
1.7100000000	3.0933635620
1.7150000000	4.0017200300
1.7200000000	5.3861092966
1.7250000000	7.5824209988
1.7300000000	10.9575380461
1.7350000000	15.2885776620
1.7400000000	20.7630128621
1.7450000000	30.3698639464
1.7500000000	42.8408009903
1.7550000000	43.5298891150
1.7600000000	30.5390779661
1.7650000000	19.0230769906
1.7700000000	12.1945965286
1.7750000000	8.3116595619
1.7800000000	6.0170042790
1.7850000000	4.6055052280
1.7900000000	3.7301630399
1.7950000000	3.2293082521
1.8000000000	3.0271610017
1.8050000000	2.9631707188
1.8100000000	2.6363717302
1.8150000000	2.0427991984
1.8200000000	1.5685813979
1.8250000000	1.3240929194
1.8300000000	1.1527702205
1.8350000000	1.0005049856
1.8400000000	0.8763426555
1.8450000000	0.7778124108
1.8500000000	0.6984081515
1.8550000000	0.6328122761
1.8600000000	0.5724744620
1.8650000000	0.5214667213
1.8700000000	0.4699183837
1.8750000000	0.3956065267
1.8800000000	0.2261975825
1.8850000000	-0.1451181115
1.8900000000	-0.6445701316
1.8950000000	-0.7302777289
1.9000000000	0.0781675952
1.9050000000	0.8319311203
1.9100000000	0.9198832453
1.9150000000	0.7771288274
1.9200000000	0.6372153527
1.9250000000	0.5379297655
1.9300000000	0.4777978609
1.9350000000	0.4318844530
1.9400000000	0.4013330741
1.9450000000	0.3810999113
1.9500000000	0.3669555190
1.9550000000	0.3551357161
1.9600000000	0.3449459086
1.9650000000	0.3377162596
1.9700000000	0.3338586592
1.9750000000	0.3331158133
1.9800000000	0.3352802362
1.9850000000	0.3404153586
1.9900000000	0.3488583092
1.9950000000	0.3610304194
2.0000000000	0.3766154772
2.0050000000	0.3942982096
2.0100000000	0.4069894836
2.0150000000	0.4154648048
2.0200000000	0.4256851941
2.0250000000	0.4414514484
2.0300000000	0.4638829020
2.0350000000	0.4935409812
2.0400000000	0.5314446418
2.0450000000	0.5793610163
2.0500000000	0.6398274824
2.0550000000	0.7156633758
2.0600000000	0.8082357960
2.0650000000	0.9160895859
2.0700000000	1.0408453838
2.0750000000	1.1964203827
2.0800000000	1.4057914676
2.0850000000	1.6913613691
2.0900000000	2.0661585302
2.0950000000	2.5032550399
2.1000000000	2.8928287691
2.1050000000	3.0815985654
2.1100000000	2.9919447362
2.1150000000	2.7856464808
2.1200000000	2.6398289407
2.1250000000	2.6335963973
2.1300000000	2.7904164402
2.1350000000	3.1288887998
2.1400000000	3.6862687854
2.1450000000	4.5284674618
2.1500000000	5.7477826498
2.1550000000	7.4135453615
2.1600000000	9.3914253028
2.1650000000	11.0538073824
2.1700000000	11.4466199672
2.1750000000	10.2465950309
2.1800000000	8.2723640583
2.1850000000	6.3825344382
2.1900000000	4.9049671879
2.1950000000	3.8374710910
2.2000000000	3.0885385997
2.2050000000	2.5718433811
2.2100000000	2.2131561317
2.2150000000	1.9380378378
2.2200000000	1.6915049224
2.2250000000	1.4570028494
2.2300000000	1.2446728221
2.2350000000	1.0623569104
2.2400000000	0.9079419985
2.2450000000	0.7746111515
2.2500000000	0.6555784709
2.2550000000	0.5470483043
2.2600000000	0.4385152608
2.2650000000	0.3595575890
2.2700000000	0.3166644696
2.2750000000	0.3274551587
2.2800000000	0.3897405965
2.2850000000	0.4690555955
2.2900000000	0.5271104768
2.2950000000	0.5528366371
2.3000000000	0.5557716650
2.3050000000	0.5468833131
2.3100000000	0.5351798427
2.3150000000	0.5248133671
2.3200000000	0.5174252835
2.3250000000	0.5139151947
2.3300000000	0.5150097597
2.3350000000	0.5213110767
2.3400000000	0.5333341744
2.3450000000	0.5516008001
2.3500000000	0.5766640351
2.3550000000	0.6093531203
2.3600000000	0.6491315993
2.3650000000	0.6962473467
2.3700000000	0.7505697167
2.3750000000	0.8126886746
2.3800000000	0.8848465115
2.3850000000	0.9697036683
2.3900000000	1.0678481874
2.3950000000	1.1749097351
2.4000000000	1.2796536209
2.4050000000	1.3699191170
2.4100000000	1.4199507071
2.4150000000	1.4247324454
2.4200000000	1.3964967917
2.4250000000	1.3561025208
2.4300000000	1.3220623680
2.4350000000	1.3055518460
2.4400000000	1.3110311710
2.4450000000	1.3392219757
2.4500000000	1.3902154669
2.4550000000	1.4651479663
2.4600000000	1.5688222197
2.4650000000	1.7061612533
2.4700000000	1.8826475275
2.4750000000	2.1017051356
2.4800000000	2.3616056650
2.4850000000	2.6512602130
2.4900000000	2.9453032939
2.4950000000	3.2016422860
2.5000000000	3.3676038774
2.5050000000	3.3889440985
2.5100000000	3.2440033535
2.5150000000	2.9723442934
2.5200000000	2.6371815232
2.5250000000	2.2940507692
2.5300000000	1.9768046909
2.5350000000	1.6996670716
2.5400000000	1.4647319792
2.5450000000	1.2685140200
2.5500000000	1.1059618985
2.5550000000	0.9725371708
2.5600000000	0.8609704979
2.5650000000	0.7774752817
2.5700000000	0.7174803688
2.5750000000	0.6788463837
2.5800000000	0.6572856292
2.5850000000	0.6469338992
2.5900000000	0.6422878375
2.5950000000	0.6399205597
2.6000000000	0.6387271359
2.6050000000	0.6438178075
2.6100000000	0.6518849854
2.6150000000	0.6641639300
2.6200000000	0.6813108987
2.6250000000	0.7033662796
2.6300000000	0.7297075421
2.6350000000	0.7590134756
2.6400000000	0.7892654027
2.6450000000	0.8179034113
2.6500000000	0.8422163892
2.6550000000	0.8599814185
2.6600000000	0.8701658799
2.6650000000	0.8733761590
2.6700000000	0.8717294927
2.6750000000	0.8683208507
2.6800000000	0.8661492752
2.6850000000	0.8680168860
2.6900000000	0.8758751123
2.6950000000	0.8909232968
2.7000000000	0.9137365393
2.7050000000	0.9478821133
2.7100000000	0.9918236819
2.7150000000	1.0448510219
2.7200000000	1.1054959460
2.7250000000	1.1712660060
2.7300000000	1.2383984237
2.7350000000	1.3018201998
2.7400000000	1.3554967639
2.7450000000	1.3933011904
2.7500000000	1.4102949694
2.7550000000	1.4039900811
2.7600000000	1.3750220338
2.7650000000	1.3269208681
2.7700000000	1.2650882226
2.7750000000	1.1955088890
2.7800000000	1.1236703871
2.7850000000	1.0539629755
2.7900000000	0.9889317923
2.7950000000	0.9313619541
2.8000000000	0.8818297599
2.8050000000	0.8359528783
2.8100000000	0.7997813948
2.8150000000	0.7718916202
2.8200000000	0.7507368840
2.8250000000	0.7348979141
2.8300000000	0.7231684015
2.8350000000	0.7145477281
2.8400000000	0.7081903585
2.8450000000	0.7033784034
2.8500000000	0.6995353788
2.8550000000	0.6962785733
2.8600000000	0.6934783618
2.8650000000	0.6912773493
2.8700000000	0.6900541105
2.8750000000	0.6903293846
2.8800000000	0.6926506902
2.8850000000	0.6974883997
2.8900000000	0.7051632019
2.8950000000	0.7158025240
2.9000000000	0.7293189102
2.9050000000	0.7495353757
2.9100000000	0.7717044116
2.9150000000	0.7943460080
2.9200000000	0.8155897619
2.9250000000	0.8334264024
2.9300000000	0.8459903788
2.9350000000	0.8518868658
2.9400000000	0.8504616762
2.9450000000	0.8419262016
2.9500000000	0.8272783909
2.9550000000	0.8080484179
2.9600000000	0.7859762036
2.9650000000	0.7627098403
2.9700000000	0.7396047040
2.9750000000	0.7176355890
2.9800000000	0.6974026312
2.9850000000	0.6791961325
2.9900000000	0.6630836207
2.9950000000	0.6489944389
3.0000000000	0.6367888152
