# energy (eV)    P(omega), $W$ = 400 nm, $h$ = 300 nm, $s$ = 20 nm, $d/W = 5$, $E_{\rm e}$ = 200 keV
0.2000000000	0.2311507594
0.2050000000	0.2332534363
0.2100000000	0.2347338272
0.2150000000	0.2355670006
0.2200000000	0.2357180934
0.2250000000	0.2351397424
0.2300000000	0.2337696269
0.2350000000	0.2315266024
0.2400000000	0.2283063134
0.2450000000	0.2239742674
0.2500000000	0.2183585137
0.2550000000	0.2112378035
0.2600000000	0.2023270240
0.2650000000	0.2116633279
0.2700000000	0.2353791995
0.2750000000	0.2693158928
0.2800000000	0.3165993341
0.2850000000	0.3863075093
0.2900000000	0.4726808917
0.2950000000	0.5965044173
0.3000000000	0.7629586054
0.3050000000	1.0180931225
0.3100000000	1.3734875524
0.3150000000	2.0611598174
0.3200000000	3.1351701132
0.3250000000	3.8704828455
0.3300000000	4.8876575919
0.3350000000	6.3296486382
0.3400000000	8.5932833146
0.3450000000	12.4769541027
0.3500000000	20.2213303417
0.3550000000	38.1485977742
0.3600000000	93.7548680248
0.3650000000	0.4236394675
0.3700000000	43.4520502117
0.3750000000	57.1377656774
0.3800000000	26.6242253141
0.3850000000	14.9976651444
0.3900000000	9.6196734567
0.3950000000	6.7787820706
0.4000000000	5.1339080479
0.4050000000	4.0615655153
0.4100000000	3.3634468654
0.4150000000	2.9029990063
0.4200000000	2.6119866307
0.4250000000	2.3834333229
0.4300000000	2.1133654106
0.4350000000	1.8996225732
0.4400000000	1.7305758335
0.4450000000	1.5961636660
0.4500000000	1.4900458934
0.4550000000	1.4058973743
0.4600000000	1.3402544885
0.4650000000	1.2894538738
0.4700000000	1.2510703287
0.4750000000	1.2234070177
0.4800000000	1.2049832053
0.4850000000	1.1945005275
0.4900000000	1.1911911669
0.4950000000	1.1944643952
0.5000000000	1.2038154701
0.5050000000	1.2190194070
0.5100000000	1.2398918955
0.5150000000	1.2663233971
0.5200000000	1.2983686808
0.5250000000	1.3360726621
0.5300000000	1.3799888739
0.5350000000	1.4303633832
0.5400000000	1.4876392995
0.5450000000	1.5523977211
0.5500000000	1.6254608109
0.5550000000	1.7077278807
0.5600000000	1.8002935483
0.5650000000	1.9045653720
0.5700000000	2.0224864343
0.5750000000	2.1554968635
0.5800000000	2.3062913137
0.5850000000	2.4785515641
0.5900000000	2.6747610120
0.5950000000	2.9001453837
0.6000000000	3.1616085414
0.6050000000	3.4643247644
0.6100000000	3.8201554086
0.6150000000	4.2389365869
0.6200000000	4.7375532581
0.6250000000	5.3402296189
0.6300000000	6.0716701950
0.6350000000	6.9782969525
0.6400000000	8.1113256274
0.6450000000	9.5636945188
0.6500000000	11.4541224738
0.6550000000	13.9837075854
0.6600000000	17.4919999372
0.6650000000	22.5154586188
0.6700000000	30.1221680951
0.6750000000	42.3525993471
0.6800000000	63.9721740557
0.6850000000	107.3532150220
0.6900000000	215.1526930309
0.6950000000	603.9648650958
0.7000000000	2929.2764914403
0.7050000000	1424.1380716243
0.7100000000	365.8309135781
0.7150000000	155.5718006464
0.7200000000	84.9597043910
0.7250000000	53.3698578745
0.7300000000	36.6043337078
0.7350000000	26.6934036544
0.7400000000	20.3468074520
0.7450000000	16.0389909861
0.7500000000	12.9874162540
0.7550000000	10.7455142060
0.7600000000	9.0557431734
0.7650000000	7.7453505374
0.7700000000	6.7109302942
0.7750000000	5.8804847733
0.7800000000	5.2056369834
0.7850000000	4.6499691525
0.7900000000	4.1844487317
0.7950000000	3.7956537716
0.8000000000	3.4650733375
0.8050000000	3.1818507129
0.8100000000	2.9407433252
0.8150000000	2.7294228983
0.8200000000	2.5454459237
0.8250000000	2.3910569488
0.8300000000	2.2559154399
0.8350000000	2.1384294648
0.8400000000	2.0448689705
0.8450000000	1.9632323278
0.8500000000	1.8940129361
0.8550000000	1.8502589818
0.8600000000	1.8152109142
0.8650000000	1.7901156022
0.8700000000	1.7988478357
0.8750000000	1.8019043834
0.8800000000	1.7922031962
0.8850000000	1.7142768658
0.8900000000	1.3303452718
0.8950000000	-0.5937235107
0.9000000000	-10.9110862756
0.9050000000	-71.6940454942
0.9100000000	13.6519579488
0.9150000000	32.3388961221
0.9200000000	13.4244969746
0.9250000000	6.9838132289
0.9300000000	4.2630891840
0.9350000000	2.9632175469
0.9400000000	2.2619927411
0.9450000000	1.8733081222
0.9500000000	1.5972801042
0.9550000000	1.4125103250
0.9600000000	1.2982384074
0.9650000000	1.2039517051
0.9700000000	1.1366727282
0.9750000000	1.0908215024
0.9800000000	1.0629077002
0.9850000000	1.0577913777
0.9900000000	1.0679729638
0.9950000000	1.1090793182
1.0000000000	1.2073526108
1.0050000000	1.4367896784
1.0100000000	2.0380807736
1.0150000000	4.0988888499
1.0200000000	7.8716762081
1.0250000000	3.5785306919
1.0300000000	1.8328072384
1.0350000000	1.3125010016
1.0400000000	1.1078926592
1.0450000000	1.0119030914
1.0500000000	0.9637827369
1.0550000000	0.9385329563
1.0600000000	0.9271933541
1.0650000000	0.9250610983
1.0700000000	0.9295288637
1.0750000000	0.9396783913
1.0800000000	0.9536891301
1.0850000000	0.9727592638
1.0900000000	1.0003184720
1.0950000000	1.0324485552
1.1000000000	1.0694642763
1.1050000000	1.1114322213
1.1100000000	1.1590165016
1.1150000000	1.2128502364
1.1200000000	1.2736848410
1.1250000000	1.3421421495
1.1300000000	1.4199956407
1.1350000000	1.5084407635
1.1400000000	1.6092677383
1.1450000000	1.7247530390
1.1500000000	1.8566681951
1.1550000000	2.0105290871
1.1600000000	2.1898236738
1.1650000000	2.3991204961
1.1700000000	2.6393668601
1.1750000000	2.8830199416
1.1800000000	3.1136012761
1.1850000000	4.3274572502
1.1900000000	5.3703959896
1.1950000000	7.3620119722
1.2000000000	10.0265675385
1.2050000000	8.7949851204
1.2100000000	8.4169205572
1.2150000000	9.3704302713
1.2200000000	11.2071114401
1.2250000000	14.0276774902
1.2300000000	18.3165509166
1.2350000000	25.1011016828
1.2400000000	36.5296795009
1.2450000000	58.0496153204
1.2500000000	104.6557262402
1.2550000000	226.5467757884
1.2600000000	547.2048099424
1.2650000000	554.2956697049
1.2700000000	230.5756660437
1.2750000000	106.4339332827
1.2800000000	58.9450110562
1.2850000000	37.0681276022
1.2900000000	25.4068156039
1.2950000000	18.5168639115
1.3000000000	14.1282692098
1.3050000000	11.1734422711
1.3100000000	9.0898129819
1.3150000000	7.5842872058
1.3200000000	6.4682385778
1.3250000000	5.6283707993
1.3300000000	4.9958681619
1.3350000000	4.5285044314
1.3400000000	4.2043566279
1.3450000000	4.0174121792
1.3500000000	3.9949393084
1.3550000000	4.1990170126
1.3600000000	4.7876028168
1.3650000000	6.1626561030
1.3700000000	9.4464819881
1.3750000000	17.6169174367
1.3800000000	28.7759645876
1.3850000000	20.1022086209
1.3900000000	10.2442351921
1.3950000000	5.9440619589
1.4000000000	3.8927688557
1.4050000000	2.6320381395
1.4100000000	1.4909626232
1.4150000000	-0.2113031494
1.4200000000	-4.0224201514
1.4250000000	-14.1208715940
1.4300000000	-18.9864258786
1.4350000000	8.6984466443
1.4400000000	11.1266508321
1.4450000000	6.6709071111
1.4500000000	4.1509061723
1.4550000000	2.8614004136
1.4600000000	2.1129757092
1.4650000000	1.5214932141
1.4700000000	0.8888205068
1.4750000000	1.0445000357
1.4800000000	1.5312752576
1.4850000000	1.3904488773
1.4900000000	1.2312107594
1.4950000000	1.1282142099
1.5000000000	1.0605537674
1.5050000000	1.0158166684
1.5100000000	0.9853827166
1.5150000000	0.9687768067
1.5200000000	0.9565356898
1.5250000000	0.9521193064
1.5300000000	0.9559343527
1.5350000000	0.9697270640
1.5400000000	0.9978540807
1.5450000000	1.0499908764
1.5500000000	1.1478843169
1.5550000000	1.3348820678
1.5600000000	1.6155785902
1.5650000000	1.6605635020
1.5700000000	1.4072628025
1.5750000000	1.2295164286
1.5800000000	1.1528397706
1.5850000000	1.1287144487
1.5900000000	1.1318432673
1.5950000000	1.1512402830
1.6000000000	1.1821192203
1.6050000000	1.2228323442
1.6100000000	1.2721492795
1.6150000000	1.3298868206
1.6200000000	1.3969647040
1.6250000000	1.4741763558
1.6300000000	1.5628257886
1.6350000000	1.6645941402
1.6400000000	1.7816311290
1.6450000000	1.9166823685
1.6500000000	2.0731942501
1.6550000000	2.2555343246
1.6600000000	2.4693612009
1.6650000000	2.7219789362
1.6700000000	3.0204893414
1.6750000000	3.3823204018
1.6800000000	3.8228770042
1.6850000000	4.3663938710
1.6900000000	5.0472797881
1.6950000000	5.9160283779
1.7000000000	7.0486519570
1.7050000000	8.6111366116
1.7100000000	10.7910807580
1.7150000000	13.9596760855
1.7200000000	18.7887232670
1.7250000000	26.4498163030
1.7300000000	38.2228223960
1.7350000000	53.3314156580
1.7400000000	72.4310690174
1.7450000000	105.9477826821
1.7500000000	149.4555669648
1.7550000000	151.8597714744
1.7600000000	106.5393195904
1.7650000000	66.3640612807
1.7700000000	42.5419724113
1.7750000000	28.9958535990
1.7800000000	20.9906757092
1.7850000000	16.0664997870
1.7900000000	13.0127636864
1.7950000000	11.2654537422
1.8000000000	10.5601942783
1.8050000000	10.3369093604
1.8100000000	9.1968763093
1.8150000000	7.1262613324
1.8200000000	5.4719826964
1.8250000000	4.6190411363
1.8300000000	4.0213529203
1.8350000000	3.4901743097
1.8400000000	3.0570377996
1.8450000000	2.7133166473
1.8500000000	2.4363132051
1.8550000000	2.2074766051
1.8600000000	1.9969776944
1.8650000000	1.8190192090
1.8700000000	1.6391637391
1.8750000000	1.3798877439
1.8800000000	0.7888803137
1.8850000000	-0.5064201341
1.8900000000	-2.2486761729
1.8950000000	-2.5476110592
1.9000000000	0.2726182169
1.9050000000	2.9020745802
1.9100000000	3.2088980431
1.9150000000	2.7109234932
1.9200000000	2.2228624151
1.9250000000	1.8765324057
1.9300000000	1.6667932709
1.9350000000	1.5066658429
1.9400000000	1.4001440043
1.9450000000	1.3296310754
1.9500000000	1.2803439399
1.9550000000	1.2391030539
1.9600000000	1.2034946344
1.9650000000	1.1782096252
1.9700000000	1.1647067919
1.9750000000	1.1620877156
1.9800000000	1.1696241726
1.9850000000	1.1875349503
1.9900000000	1.2169958914
1.9950000000	1.2594779255
2.0000000000	1.3138762687
2.0050000000	1.3755881298
2.0100000000	1.4198557484
2.0150000000	1.4493807530
2.0200000000	1.4849824251
2.0250000000	1.5399357553
2.0300000000	1.6181473201
2.0350000000	1.7215727669
2.0400000000	1.8537632084
2.0450000000	2.0208802271
2.0500000000	2.2317730228
2.0550000000	2.4962756670
2.0600000000	2.8191576853
2.0650000000	3.1953427112
2.0700000000	3.6304815658
2.0750000000	4.1731152279
2.0800000000	4.9033843144
2.0850000000	5.8994265610
2.0900000000	7.2066846705
2.0950000000	8.7312380755
2.1000000000	10.0900422244
2.1050000000	10.7484719437
2.1100000000	10.4357997446
2.1150000000	9.7162914441
2.1200000000	9.2077397637
2.1250000000	9.1860533355
2.1300000000	9.7330894078
2.1350000000	10.9137277804
2.1400000000	12.8579190600
2.1450000000	15.7955652980
2.1500000000	20.0486048687
2.1550000000	25.8588635267
2.1600000000	32.7577826549
2.1650000000	38.5562029713
2.1700000000	39.9262853291
2.1750000000	35.7404791865
2.1800000000	28.8542280835
2.1850000000	22.2623915702
2.1900000000	17.1085524347
2.1950000000	13.3850594393
2.2000000000	10.7727237207
2.2050000000	8.9704323586
2.2100000000	7.7192771798
2.2150000000	6.7596294382
2.2200000000	5.8997208095
2.2250000000	5.0818052440
2.2300000000	4.3412376832
2.2350000000	3.7053576699
2.2400000000	3.1667899676
2.2450000000	2.7017575772
2.2500000000	2.2865934042
2.2550000000	1.9080610058
2.2600000000	1.5295216102
2.2650000000	1.2541433687
2.2700000000	1.1045575506
2.2750000000	1.1422138377
2.2800000000	1.3594747621
2.2850000000	1.6361318390
2.2900000000	1.8386388631
2.2950000000	1.9283922453
2.3000000000	1.9386573013
2.3050000000	1.9076864315
2.3100000000	1.8668898844
2.3150000000	1.8307413637
2.3200000000	1.8049631851
2.3250000000	1.7926980909
2.3300000000	1.7964889456
2.3350000000	1.8184421592
2.3400000000	1.8603571243
2.3450000000	1.9240544608
2.3500000000	2.0114629590
2.3550000000	2.1254741446
2.3600000000	2.2642159340
2.3650000000	2.4285514767
2.3700000000	2.6180237253
2.3750000000	2.8346894697
2.3800000000	3.0863698292
2.3850000000	3.3823452680
2.3900000000	3.7246679608
2.3950000000	4.0980949050
2.4000000000	4.4634399738
2.4050000000	4.7782869817
2.4100000000	4.9527995420
2.4150000000	4.9694816052
2.4200000000	4.8709980776
2.4250000000	4.7301038848
2.4300000000	4.6113706534
2.4350000000	4.5537768329
2.4400000000	4.5728767443
2.4450000000	4.6711837799
2.4500000000	4.8490123632
2.4550000000	5.1103250869
2.4600000000	5.4718745514
2.4650000000	5.9508341346
2.4700000000	6.5663276295
2.4750000000	7.3302992431
2.4800000000	8.2367212754
2.4850000000	9.2469190891
2.4900000000	10.2724253276
2.4950000000	11.1664331316
2.5000000000	11.7452352471
2.5050000000	11.8196460704
2.5100000000	11.3141252994
2.5150000000	10.3666556786
2.5200000000	9.1977092753
2.5250000000	8.0009767497
2.5300000000	6.8945244202
2.5350000000	5.9279597976
2.5400000000	5.1085861445
2.5450000000	4.4242466854
2.5500000000	3.8573244020
2.5550000000	3.3919905903
2.5600000000	3.0028922003
2.5650000000	2.7116991156
2.5700000000	2.5024686212
2.5750000000	2.3677389597
2.5800000000	2.2925555747
2.5850000000	2.2564655626
2.5900000000	2.2402743263
2.5950000000	2.2320295418
2.6000000000	2.2278773869
2.6050000000	2.2456419979
2.6100000000	2.2737882354
2.6150000000	2.3166257655
2.6200000000	2.3764442726
2.6250000000	2.4533848235
2.6300000000	2.5452756395
2.6350000000	2.6475073510
2.6400000000	2.7530371143
2.6450000000	2.8529340493
2.6500000000	2.9377398751
2.6550000000	2.9996997918
2.6600000000	3.0352116200
2.6650000000	3.0463911813
2.6700000000	3.0406246935
2.6750000000	3.0287090367
2.6800000000	3.0211062417
2.6850000000	3.0275909614
2.6900000000	3.0549703159
2.6950000000	3.1074276672
2.7000000000	3.1869688124
2.7050000000	3.3060326182
2.7100000000	3.4592632027
2.7150000000	3.6441832816
2.7200000000	3.8556720594
2.7250000000	4.0850368510
2.7300000000	4.3191544973
2.7350000000	4.5403322576
2.7400000000	4.7275248587
2.7450000000	4.8593641868
2.7500000000	4.9186272672
2.7550000000	4.8966368308
2.7600000000	4.7956099084
2.7650000000	4.6278574414
2.7700000000	4.4122179116
2.7750000000	4.1695630732
2.7800000000	3.9190315142
2.7850000000	3.6759335982
2.7900000000	3.4491454450
2.7950000000	3.2483800284
2.8000000000	3.0756467327
2.8050000000	2.9156635440
2.8100000000	2.7895277727
2.8150000000	2.6922735917
2.8200000000	2.6185064089
2.8250000000	2.5632759599
2.8300000000	2.5223749357
2.8350000000	2.4923135204
2.8400000000	2.4701428904
2.8450000000	2.4533594597
2.8500000000	2.4399528614
2.8550000000	2.4285884986
2.8600000000	2.4188145502
2.8650000000	2.4111287069
2.8700000000	2.4068517439
2.8750000000	2.4078001942
2.8800000000	2.4158841172
2.8850000000	2.4327442733
2.8900000000	2.4594994938
2.8950000000	2.4965943007
2.9000000000	2.5437239483
2.9050000000	2.6142203468
2.9100000000	2.6915280629
2.9150000000	2.7704855625
2.9200000000	2.8445697756
2.9250000000	2.9067733440
2.9300000000	2.9505901309
2.9350000000	2.9711555696
2.9400000000	2.9661880395
2.9450000000	2.9364245518
2.9500000000	2.8853451781
2.9550000000	2.8182860757
2.9600000000	2.7413148290
2.9650000000	2.6601788038
2.9700000000	2.5796045676
2.9750000000	2.5029914279
2.9800000000	2.4324322037
2.9850000000	2.3689392245
2.9900000000	2.3127479154
2.9950000000	2.2636118936
3.0000000000	2.2210438021
