# energy (eV)    P(omega), $W$ = 300 nm, $h$ = 300 nm, $s$ = 20 nm, $d/W = 5$, $E_{\rm e}$ = 200 keV
0.2000000000	0.0751585572
0.2050000000	0.0762381805
0.2100000000	0.0772530267
0.2150000000	0.0782051208
0.2200000000	0.0790962087
0.2250000000	0.0799277336
0.2300000000	0.0807007554
0.2350000000	0.0814159362
0.2400000000	0.0820734645
0.2450000000	0.0826728935
0.2500000000	0.0832132315
0.2550000000	0.0836925738
0.2600000000	0.0841081370
0.2650000000	0.0844560416
0.2700000000	0.0847309699
0.2750000000	0.0849259605
0.2800000000	0.0850319901
0.2850000000	0.0850375218
0.2900000000	0.0849277335
0.2950000000	0.0846839352
0.3000000000	0.0842820594
0.3050000000	0.0836917005
0.3100000000	0.0828738236
0.3150000000	0.0873381853
0.3200000000	0.0926410012
0.3250000000	0.0993443594
0.3300000000	0.1083145571
0.3350000000	0.1194838116
0.3400000000	0.1341116512
0.3450000000	0.1518695421
0.3500000000	0.1751096981
0.3550000000	0.2058761397
0.3600000000	0.2460779074
0.3650000000	0.3021499789
0.3700000000	0.3761577925
0.3750000000	0.4791840789
0.3800000000	0.6282968126
0.3850000000	0.8607859743
0.3900000000	1.2283470610
0.3950000000	1.8531529987
0.4000000000	3.0450580496
0.4050000000	5.7190697022
0.4100000000	13.0207000666
0.4150000000	41.8215617536
0.4200000000	26.6204539575
0.4250000000	-50.2515066408
0.4300000000	14.0035497225
0.4350000000	8.7376642203
0.4400000000	5.3494516830
0.4450000000	3.5243348555
0.4500000000	2.4729699797
0.4550000000	1.8255749607
0.4600000000	1.4036891351
0.4650000000	1.1160497966
0.4700000000	0.9126582312
0.4750000000	0.7655134220
0.4800000000	0.6563945563
0.4850000000	0.5742846139
0.4900000000	0.5116224115
0.4950000000	0.4633298882
0.5000000000	0.4259370607
0.5050000000	0.3968949839
0.5100000000	0.3745656911
0.5150000000	0.3577439352
0.5200000000	0.3451624409
0.5250000000	0.3362567949
0.5300000000	0.3304161594
0.5350000000	0.3271950502
0.5400000000	0.3262655889
0.5450000000	0.3273540431
0.5500000000	0.3303788906
0.5550000000	0.3351874433
0.5600000000	0.3417053190
0.5650000000	0.3499011105
0.5700000000	0.3597482440
0.5750000000	0.3713171866
0.5800000000	0.3847224814
0.5850000000	0.4000393951
0.5900000000	0.4174111223
0.5950000000	0.4370152357
0.6000000000	0.4590776461
0.6050000000	0.4839221752
0.6100000000	0.5118607647
0.6150000000	0.5433167679
0.6200000000	0.5788552652
0.6250000000	0.6190172975
0.6300000000	0.6646025458
0.6350000000	0.7166077665
0.6400000000	0.7760705135
0.6450000000	0.8444876851
0.6500000000	0.9238280860
0.6550000000	1.0161416337
0.6600000000	1.1245777297
0.6650000000	1.2531806254
0.6700000000	1.4067048982
0.6750000000	1.5923979899
0.6800000000	1.8200178709
0.6850000000	2.1023380505
0.6900000000	2.4591586097
0.6950000000	2.9181624722
0.7000000000	3.5233498874
0.7050000000	4.3419837077
0.7100000000	5.4880682284
0.7150000000	7.1645697769
0.7200000000	9.7494314346
0.7250000000	14.0417245752
0.7300000000	21.9232618899
0.7350000000	38.7939571492
0.7400000000	85.0808096060
0.7450000000	282.4603720987
0.7500000000	875.7123864363
0.7550000000	220.4702574237
0.7600000000	73.0704145168
0.7650000000	35.0382778279
0.7700000000	20.3930208264
0.7750000000	13.3205411107
0.7800000000	9.3817855217
0.7850000000	6.9735484810
0.7900000000	5.3921017164
0.7950000000	4.3010202296
0.8000000000	3.5164131039
0.8050000000	2.9318577845
0.8100000000	2.4859492843
0.8150000000	2.1323312825
0.8200000000	1.8531588305
0.8250000000	1.6283092348
0.8300000000	1.4440605219
0.8350000000	1.2925408162
0.8400000000	1.1654933222
0.8450000000	1.0588608267
0.8500000000	0.9687181671
0.8550000000	0.8909070411
0.8600000000	0.8244810761
0.8650000000	0.7677554100
0.8700000000	0.7176184871
0.8750000000	0.6749921942
0.8800000000	0.6388555936
0.8850000000	0.6064537236
0.8900000000	0.5805309106
0.8950000000	0.5569463299
0.9000000000	0.5383300507
0.9050000000	0.5256515014
0.9100000000	0.5140398203
0.9150000000	0.5071707990
0.9200000000	0.5067639481
0.9250000000	0.5065502296
0.9300000000	0.4994675774
0.9350000000	0.4772896342
0.9400000000	0.3520919179
0.9450000000	-0.2184193170
0.9500000000	-3.2322501139
0.9550000000	-18.5298375122
0.9600000000	4.3767346418
0.9650000000	7.6926009694
0.9700000000	3.4142650943
0.9750000000	1.7932184940
0.9800000000	1.1241051268
0.9850000000	0.8110721075
0.9900000000	0.6306174837
0.9950000000	0.5211574593
1.0000000000	0.4512539072
1.0050000000	0.4069558169
1.0100000000	0.3725752272
1.0150000000	0.3474433093
1.0200000000	0.3305231513
1.0250000000	0.3162840576
1.0300000000	0.3054427950
1.0350000000	0.2972120095
1.0400000000	0.2919546429
1.0450000000	0.2875343401
1.0500000000	0.2845595829
1.0550000000	0.2828600210
1.0600000000	0.2828286401
1.0650000000	0.2833719402
1.0700000000	0.2849314407
1.0750000000	0.2875123159
1.0800000000	0.2914039633
1.0850000000	0.2963514558
1.0900000000	0.3037260271
1.0950000000	0.3124959727
1.1000000000	0.3229691727
1.1050000000	0.3350110904
1.1100000000	0.3490150686
1.1150000000	0.3652914551
1.1200000000	0.3842210719
1.1250000000	0.4062384889
1.1300000000	0.4320005523
1.1350000000	0.4623004689
1.1400000000	0.4980563893
1.1450000000	0.5408773685
1.1500000000	0.5925686722
1.1550000000	0.6557139970
1.1600000000	0.7339578848
1.1650000000	0.8320433099
1.1700000000	0.9587839429
1.1750000000	1.1259425165
1.1800000000	1.3529367819
1.1850000000	1.6716657783
1.1900000000	2.1423379273
1.1950000000	2.8803521985
1.2000000000	4.1311270960
1.2050000000	6.4935444431
1.2100000000	11.6891638363
1.2150000000	25.7346480333
1.2200000000	63.1165465819
1.2250000000	56.7622308818
1.2300000000	22.7093766310
1.2350000000	10.7072453128
1.2400000000	6.1634657123
1.2450000000	4.0811463427
1.2500000000	2.9871617031
1.2550000000	2.3608953684
1.2600000000	1.9856037272
1.2650000000	1.7571868493
1.2700000000	1.6296469582
1.2750000000	1.5733084273
1.2800000000	1.5747534076
1.2850000000	1.6290641358
1.2900000000	1.7377190577
1.2950000000	1.9069097370
1.3000000000	2.1560800323
1.3050000000	2.5105422585
1.3100000000	3.0160779346
1.3150000000	3.7515641355
1.3200000000	4.8582198682
1.3250000000	6.6057280200
1.3300000000	9.5827061464
1.3350000000	15.1558336607
1.3400000000	27.0663649684
1.3450000000	56.6409980876
1.3500000000	120.3255071870
1.3550000000	112.2937736166
1.3600000000	51.8037809166
1.3650000000	25.4568503898
1.3700000000	14.5991801099
1.3750000000	9.3877062540
1.3800000000	6.5460226345
1.3850000000	4.8345066931
1.3900000000	3.7319953992
1.3950000000	2.9802749406
1.4000000000	2.4464680204
1.4050000000	2.0555860853
1.4100000000	1.7626621330
1.4150000000	1.5416349396
1.4200000000	1.3754307460
1.4250000000	1.2641282669
1.4300000000	1.2234147877
1.4350000000	1.2461983904
1.4400000000	0.9599612133
1.4450000000	0.0831172036
1.4500000000	-1.3403169465
1.4550000000	-0.3756784275
1.4600000000	1.6234573770
1.4650000000	0.8788405237
1.4700000000	-0.8303450516
1.4750000000	-3.6334207884
1.4800000000	-1.6171275884
1.4850000000	2.6577465905
1.4900000000	2.1543822078
1.4950000000	1.3944640802
1.5000000000	0.9797709665
1.5050000000	0.7564744626
1.5100000000	0.6292024835
1.5150000000	0.5519107763
1.5200000000	0.5019821034
1.5250000000	0.4709602600
1.5300000000	0.4472636548
1.5350000000	0.4309302915
1.5400000000	0.4201721381
1.5450000000	0.4140299077
1.5500000000	0.4118842790
1.5550000000	0.4137511789
1.5600000000	0.4207340828
1.5650000000	0.4322670324
1.5700000000	0.4509398238
1.5750000000	0.4799117914
1.5800000000	0.5251149750
1.5850000000	0.5980964120
1.5900000000	0.7231839560
1.5950000000	0.9542133816
1.6000000000	1.4049020968
1.6050000000	2.1501021176
1.6100000000	2.4952279246
1.6150000000	1.8482490186
1.6200000000	1.2413061837
1.6250000000	0.9209219102
1.6300000000	0.7600543943
1.6350000000	0.6772316876
1.6400000000	0.6352491219
1.6450000000	0.6168146883
1.6500000000	0.6132690174
1.6550000000	0.6205555783
1.6600000000	0.6362532575
1.6650000000	0.6592563550
1.6700000000	0.6891443253
1.6750000000	0.7259193548
1.6800000000	0.7699099286
1.6850000000	0.8216257183
1.6900000000	0.8815170803
1.6950000000	0.9487318213
1.7000000000	1.0221393580
1.7050000000	1.0973597818
1.7100000000	1.1831865275
1.7150000000	1.3965653700
1.7200000000	1.7709765403
1.7250000000	2.1139806248
1.7300000000	2.4820579081
1.7350000000	2.8865056833
1.7400000000	3.2833881413
1.7450000000	3.7931689247
1.7500000000	4.5640749555
1.7550000000	5.7114808757
1.7600000000	7.4282085940
1.7650000000	10.0745571834
1.7700000000	14.3373605409
1.7750000000	21.5190780916
1.7800000000	33.7565895212
1.7850000000	51.8040752935
1.7900000000	64.3786267099
1.7950000000	54.8196998926
1.8000000000	36.4840829154
1.8050000000	23.0405639530
1.8100000000	15.1912172993
1.8150000000	10.5904047461
1.8200000000	7.7590016937
1.8250000000	5.9233940887
1.8300000000	4.6770808627
1.8350000000	3.7973821660
1.8400000000	3.1564815984
1.8450000000	2.6768432960
1.8500000000	2.3096026114
1.8550000000	2.0241837847
1.8600000000	1.7992576176
1.8650000000	1.6203285632
1.8700000000	1.4770872885
1.8750000000	1.3619654514
1.8800000000	1.2689601207
1.8850000000	1.1927675314
1.8900000000	1.1272767159
1.8950000000	1.0633688589
1.9000000000	0.9852972447
1.9050000000	0.8374839740
1.9100000000	0.6340670788
1.9150000000	0.5264608443
1.9200000000	1.2867581903
1.9250000000	3.3876723563
1.9300000000	5.0538323221
1.9350000000	4.9760299103
1.9400000000	3.9137387432
1.9450000000	2.8838255042
1.9500000000	2.1607118412
1.9550000000	1.6869075682
1.9600000000	1.3738042476
1.9650000000	1.1642385809
1.9700000000	1.0129502946
1.9750000000	0.9020502801
1.9800000000	0.8173824037
1.9850000000	0.7486760129
1.9900000000	0.6880719659
1.9950000000	0.6287111106
2.0000000000	0.5695935637
2.0050000000	0.5318244486
2.0100000000	0.5534632163
2.0150000000	0.6130737272
2.0200000000	0.6498285664
2.0250000000	0.6595910660
2.0300000000	0.6617875073
2.0350000000	0.6657842209
2.0400000000	0.6750610363
2.0450000000	0.6905047801
2.0500000000	0.7126904848
2.0550000000	0.7421402501
2.0600000000	0.7788544559
2.0650000000	0.8206102423
2.0700000000	0.8618949990
2.0750000000	0.8985778184
2.0800000000	0.9343047227
2.0850000000	0.9766153732
2.0900000000	1.0305641745
2.0950000000	1.0982801284
2.1000000000	1.1820542038
2.1050000000	1.2811282847
2.1100000000	1.4024654231
2.1150000000	1.5511558303
2.1200000000	1.7343378586
2.1250000000	1.9620240831
2.1300000000	2.2483281918
2.1350000000	2.6134001450
2.1400000000	3.0863358325
2.1450000000	3.7096736367
2.1500000000	4.5453935516
2.1550000000	5.6812142188
2.1600000000	7.2294017518
2.1650000000	9.2850317794
2.1700000000	11.8100705045
2.1750000000	14.3204857684
2.1800000000	15.8716022756
2.1850000000	15.9521884642
2.1900000000	15.2469158700
2.1950000000	14.6980865596
2.2000000000	14.4546993789
2.2050000000	13.7786647639
2.2100000000	12.3434164642
2.2150000000	10.5787844066
2.2200000000	8.9946581858
2.2250000000	7.6854360695
2.2300000000	6.5326016409
2.2350000000	5.4902739720
2.2400000000	4.5949607891
2.2450000000	3.8785952998
2.2500000000	3.3294411349
2.2550000000	2.9169137452
2.2600000000	2.6080406053
2.2650000000	2.3697795238
2.2700000000	2.1664103041
2.2750000000	1.9627394787
2.2800000000	1.7434591536
2.2850000000	1.5347944188
2.2900000000	1.3905935655
2.2950000000	1.3413389458
2.3000000000	1.3589445670
2.3050000000	1.3858284197
2.3100000000	1.3880869095
2.3150000000	1.3659950583
2.3200000000	1.3342289944
2.3250000000	1.3079474887
2.3300000000	1.2949067693
2.3350000000	1.2964388924
2.3400000000	1.3081985389
2.3450000000	1.3203516346
2.3500000000	1.3205152177
2.3550000000	1.3007890494
2.3600000000	1.2634089424
2.3650000000	1.2181448700
2.3700000000	1.1750674521
2.3750000000	1.1401914055
2.3800000000	1.1154706340
2.3850000000	1.1003526010
2.3900000000	1.0935772593
2.3950000000	1.0936849580
2.4000000000	1.1010731938
2.4050000000	1.1181751149
2.4100000000	1.1458060936
2.4150000000	1.1850949338
2.4200000000	1.2367200373
2.4250000000	1.3018689988
2.4300000000	1.3822739468
2.4350000000	1.4802584704
2.4400000000	1.5988209667
2.4450000000	1.7417898938
2.4500000000	1.9139954128
2.4550000000	2.1215085960
2.4600000000	2.3717885210
2.4650000000	2.6737845817
2.4700000000	3.0377607762
2.4750000000	3.4739983758
2.4800000000	3.9931154504
2.4850000000	4.5993151411
2.4900000000	5.2866721596
2.4950000000	6.0305888677
2.5000000000	6.7790459879
2.5050000000	7.4791976447
2.5100000000	7.9522053218
2.5150000000	8.0949192622
2.5200000000	7.8827551100
2.5250000000	7.3812049909
2.5300000000	6.7043711117
2.5350000000	5.9623036394
2.5400000000	5.2327532485
2.5450000000	4.5596508094
2.5500000000	3.9625321727
2.5550000000	3.4458448294
2.5600000000	3.0024847827
2.5650000000	2.6297316445
2.5700000000	2.3188091390
2.5750000000	2.0642231871
2.5800000000	1.8618699454
2.5850000000	1.7072884814
2.5900000000	1.5931420082
2.5950000000	1.5091157969
2.6000000000	1.4444700203
2.6050000000	1.3985273236
2.6100000000	1.3587472828
2.6150000000	1.3244993097
2.6200000000	1.2964599587
2.6250000000	1.2753788197
2.6300000000	1.2617564512
2.6350000000	1.2558482640
2.6400000000	1.2578026173
2.6450000000	1.2677575361
2.6500000000	1.2859832113
2.6550000000	1.3125553368
2.6600000000	1.3478816752
2.6650000000	1.3923741624
2.6700000000	1.4465388374
2.6750000000	1.5109889102
2.6800000000	1.5864040337
2.6850000000	1.6734794399
2.6900000000	1.7727845727
2.6950000000	1.8846496422
2.7000000000	2.0089612598
2.7050000000	2.1598577431
2.7100000000	2.3245395791
2.7150000000	2.4997995816
2.7200000000	2.6809732480
2.7250000000	2.8622009819
2.7300000000	3.0368713456
2.7350000000	3.1980022211
2.7400000000	3.3383326144
2.7450000000	3.4514176364
2.7500000000	3.5272598347
2.7550000000	3.5598072246
2.7600000000	3.5444676150
2.7650000000	3.4807071932
2.7700000000	3.3727987842
2.7750000000	3.2293030266
2.7800000000	3.0613780854
2.7850000000	2.8808612411
2.7900000000	2.6983734438
2.7950000000	2.5224317188
2.8000000000	2.3590584385
2.8050000000	2.1937632137
2.8100000000	2.0522924874
2.8150000000	1.9342668092
2.8200000000	1.8377862741
2.8250000000	1.7603468306
2.8300000000	1.6994260626
2.8350000000	1.6528652291
2.8400000000	1.6183918416
2.8450000000	1.5960849909
2.8500000000	1.5842931618
2.8550000000	1.5823870708
2.8600000000	1.5898968127
2.8650000000	1.6063990547
2.8700000000	1.6314202336
2.8750000000	1.6643595123
2.8800000000	1.7044291982
2.8850000000	1.7506048824
2.8900000000	1.8016551521
2.8950000000	1.8561873235
2.9000000000	1.9127368446
2.9050000000	1.9806906646
2.9100000000	2.0458789047
2.9150000000	2.1062511657
2.9200000000	2.1596556152
2.9250000000	2.2036507350
2.9300000000	2.2359883904
2.9350000000	2.2531722601
2.9400000000	2.2536933619
2.9450000000	2.2369089373
2.9500000000	2.2037873701
2.9550000000	2.1568459116
2.9600000000	2.0997178985
2.9650000000	2.0365201937
2.9700000000	1.9712337533
2.9750000000	1.9072607125
2.9800000000	1.8472079023
2.9850000000	1.7928538839
2.9900000000	1.7452683955
2.9950000000	1.7049535808
3.0000000000	1.6720150827
