# energy (eV)    P(omega), $W$ = 300 nm, $h$ = 300 nm, $s$ = 20 nm, $d/W = 5$, $E_{\rm e}$ = 200 keV
0.2000000000	0.1327961224
0.2050000000	0.1347858184
0.2100000000	0.1366459832
0.2150000000	0.1383808401
0.2200000000	0.1399939966
0.2250000000	0.1414885151
0.2300000000	0.1428667372
0.2350000000	0.1441302152
0.2400000000	0.1452795403
0.2450000000	0.1463142773
0.2500000000	0.1472327247
0.2550000000	0.1480316262
0.2600000000	0.1487060932
0.2650000000	0.1492490232
0.2700000000	0.1496507953
0.2750000000	0.1498986566
0.2800000000	0.1499760525
0.2850000000	0.1498616951
0.2900000000	0.1495283194
0.2950000000	0.1489413265
0.3000000000	0.1480565208
0.3050000000	0.1468175845
0.3100000000	0.1451524160
0.3150000000	0.1534065891
0.3200000000	0.1632094964
0.3250000000	0.1756083781
0.3300000000	0.1922134564
0.3350000000	0.2128824432
0.3400000000	0.2399488207
0.3450000000	0.2727771820
0.3500000000	0.3157215242
0.3550000000	0.3725432852
0.3600000000	0.4467327911
0.3650000000	0.5501582201
0.3700000000	0.6865266318
0.3750000000	0.8762138246
0.3800000000	1.1505467510
0.3850000000	1.5779982290
0.3900000000	2.2532568236
0.3950000000	3.4002311989
0.4000000000	5.5867170792
0.4050000000	10.4886512199
0.4100000000	23.8638639957
0.4150000000	76.5827753943
0.4200000000	48.7947545867
0.4250000000	-91.8393947107
0.4300000000	25.5369319394
0.4350000000	15.9129759912
0.4400000000	9.7272080088
0.4450000000	6.3975544167
0.4500000000	4.4807954297
0.4550000000	3.3012573282
0.4600000000	2.5330446649
0.4650000000	2.0095604070
0.4700000000	1.6395751217
0.4750000000	1.3719955891
0.4800000000	1.1736080487
0.4850000000	1.0243259332
0.4900000000	0.9103734886
0.4950000000	0.8225031336
0.5000000000	0.7543938256
0.5050000000	0.7014079745
0.5100000000	0.6605592010
0.5150000000	0.6296488120
0.5200000000	0.6063791818
0.5250000000	0.5897146253
0.5300000000	0.5785438869
0.5350000000	0.5720541422
0.5400000000	0.5696461263
0.5450000000	0.5708192437
0.5500000000	0.5754148029
0.5550000000	0.5831505364
0.5600000000	0.5938820416
0.5650000000	0.6075443382
0.5700000000	0.6240781418
0.5750000000	0.6435988991
0.5800000000	0.6662943224
0.5850000000	0.6922867819
0.5900000000	0.7218137074
0.5950000000	0.7551738734
0.6000000000	0.7927478633
0.6050000000	0.8350875086
0.6100000000	0.8827191407
0.6150000000	0.9363619788
0.6200000000	0.9969754474
0.6250000000	1.0654793752
0.6300000000	1.1432334129
0.6350000000	1.2319321735
0.6400000000	1.3333388410
0.6450000000	1.4499985996
0.6500000000	1.5852578495
0.6550000000	1.7426000187
0.6600000000	1.9273791778
0.6650000000	2.1464649224
0.6700000000	2.4079336194
0.6750000000	2.7241009056
0.6800000000	3.1115290758
0.6850000000	3.5919140418
0.6900000000	4.1988590888
0.6950000000	4.9793606976
0.7000000000	6.0080729739
0.7050000000	7.3991218093
0.7100000000	9.3458791998
0.7150000000	12.1925685537
0.7200000000	16.5800256745
0.7250000000	23.8628773650
0.7300000000	37.2305638438
0.7350000000	65.8333965883
0.7400000000	144.2770605536
0.7450000000	478.6318969611
0.7500000000	1482.7900221481
0.7550000000	373.0244679155
0.7600000000	123.5359320303
0.7650000000	59.1908375439
0.7700000000	34.4229595234
0.7750000000	22.4666900560
0.7800000000	15.8106128888
0.7850000000	11.7424441634
0.7900000000	9.0719145574
0.7950000000	7.2301182341
0.8000000000	5.9061239369
0.8050000000	4.9200477179
0.8100000000	4.1681128874
0.8150000000	3.5720452873
0.8200000000	3.1016138249
0.8250000000	2.7228295798
0.8300000000	2.4125470735
0.8350000000	2.1574383513
0.8400000000	1.9435837049
0.8450000000	1.7641324300
0.8500000000	1.6124447054
0.8550000000	1.4815450272
0.8600000000	1.3698004852
0.8650000000	1.2743518141
0.8700000000	1.1900153298
0.8750000000	1.1182749670
0.8800000000	1.0574015230
0.8850000000	1.0028251682
0.8900000000	0.9590451832
0.8950000000	0.9192188797
0.9000000000	0.8876545769
0.9050000000	0.8659160096
0.9100000000	0.8459946350
0.9150000000	0.8339107157
0.9200000000	0.8324563491
0.9250000000	0.8313778189
0.9300000000	0.8191827146
0.9350000000	0.7825885839
0.9400000000	0.5787257843
0.9450000000	-0.3478856934
0.9500000000	-5.2379786575
0.9550000000	-30.0412268448
0.9600000000	7.0886634351
0.9650000000	12.4522072596
0.9700000000	5.5230134870
0.9750000000	2.8994490057
0.9800000000	1.8171267228
0.9850000000	1.3109224439
0.9900000000	1.0192589794
0.9950000000	0.8424014228
1.0000000000	0.7294773950
1.0050000000	0.6578862257
1.0100000000	0.6023853994
1.0150000000	0.5618384954
1.0200000000	0.5345278824
1.0250000000	0.5116046304
1.0300000000	0.4941901893
1.0350000000	0.4810162731
1.0400000000	0.4726408042
1.0450000000	0.4656765533
1.0500000000	0.4610825728
1.0550000000	0.4585868240
1.0600000000	0.4588040203
1.0650000000	0.4600232031
1.0700000000	0.4629419209
1.0750000000	0.4675722891
1.0800000000	0.4743720426
1.0850000000	0.4830012505
1.0900000000	0.4957305653
1.0950000000	0.5108473408
1.1000000000	0.5288587792
1.1050000000	0.5496175061
1.1100000000	0.5737792063
1.1150000000	0.6018871634
1.1200000000	0.6345854117
1.1250000000	0.6727157574
1.1300000000	0.7174058249
1.1350000000	0.7700593872
1.1400000000	0.8322749988
1.1450000000	0.9069712560
1.1500000000	0.9973215140
1.1550000000	1.1079135882
1.1600000000	1.2452200307
1.1650000000	1.4176392808
1.1700000000	1.6409043529
1.1750000000	1.9359007616
1.1800000000	2.3371559403
1.1850000000	2.9014239228
1.1900000000	3.7356666993
1.1950000000	5.0452595086
1.2000000000	7.2665135318
1.2050000000	11.4640923572
1.2100000000	20.6979178295
1.2150000000	45.6568374947
1.2200000000	112.0509683958
1.2250000000	100.6708002363
1.2300000000	40.1569631864
1.2350000000	18.8342309197
1.2400000000	10.7577068691
1.2450000000	7.0493764601
1.2500000000	5.0930810777
1.2550000000	3.9640626183
1.2600000000	3.2770489159
1.2650000000	2.8467193459
1.2700000000	2.5901272203
1.2750000000	2.4534925256
1.2800000000	2.4112153812
1.2850000000	2.4521168471
1.2900000000	2.5752977516
1.2950000000	2.7871650177
1.3000000000	3.1138757204
1.3050000000	3.5889746459
1.3100000000	4.2750008028
1.3150000000	5.2801611194
1.3200000000	6.7989830478
1.3250000000	9.2022331076
1.3300000000	13.3019303106
1.3350000000	20.9807375843
1.3400000000	37.3925907710
1.3450000000	78.1353173875
1.3500000000	165.8220599865
1.3550000000	154.6530765012
1.3600000000	71.3179966228
1.3650000000	35.0411594661
1.3700000000	20.0957160686
1.3750000000	12.9233852582
1.3800000000	9.0126412945
1.3850000000	6.6568514188
1.3900000000	5.1385168697
1.3950000000	4.1026053410
1.4000000000	3.3657432563
1.4050000000	2.8245400004
1.4100000000	2.4163774381
1.4150000000	2.1038501408
1.4200000000	1.8605730386
1.4250000000	1.6795478882
1.4300000000	1.5643949982
1.4350000000	1.4882957952
1.4400000000	1.0231330187
1.4450000000	-0.2654254059
1.4500000000	-2.5076101055
1.4550000000	-0.8379206150
1.4600000000	2.5504081364
1.4650000000	1.4775156830
1.4700000000	-0.9424553577
1.4750000000	-4.7706303393
1.4800000000	-2.1046684212
1.4850000000	3.6064284036
1.4900000000	2.9195149315
1.4950000000	1.8942016186
1.5000000000	1.3336449427
1.5050000000	1.0301865947
1.5100000000	0.8564790986
1.5150000000	0.7499761781
1.5200000000	0.6802193746
1.5250000000	0.6359452667
1.5300000000	0.6010574091
1.5350000000	0.5757160571
1.5400000000	0.5573616514
1.5450000000	0.5444681346
1.5500000000	0.5359809033
1.5550000000	0.5314610566
1.5600000000	0.5318191843
1.5650000000	0.5352216445
1.5700000000	0.5436311587
1.5750000000	0.5585930410
1.5800000000	0.5831840410
1.5850000000	0.6234623314
1.5900000000	0.6922437445
1.5950000000	0.8178597410
1.6000000000	1.0600156902
1.6050000000	1.4574445406
1.6100000000	1.6427156472
1.6150000000	1.3076534126
1.6200000000	0.9969917153
1.6250000000	0.8390728191
1.6300000000	0.7665823428
1.6350000000	0.7366877005
1.6400000000	0.7299877760
1.6450000000	0.7376080866
1.6500000000	0.7552289105
1.6550000000	0.7810747247
1.6600000000	0.8142407603
1.6650000000	0.8546036465
1.6700000000	0.9024972611
1.6750000000	0.9586113961
1.6800000000	1.0239555559
1.6850000000	1.0998773930
1.6900000000	1.1879433634
1.6950000000	1.2890617939
1.7000000000	1.4054598737
1.7050000000	1.5401271181
1.7100000000	1.7033435279
1.7150000000	1.9777190157
1.7200000000	2.3921750490
1.7250000000	2.8401632473
1.7300000000	3.3728290325
1.7350000000	3.9491356446
1.7400000000	4.4811607627
1.7450000000	5.1516699579
1.7500000000	6.1795431428
1.7550000000	7.7212500389
1.7600000000	10.0343142382
1.7650000000	13.6027894993
1.7700000000	19.3512064258
1.7750000000	29.0332212046
1.7800000000	45.5233626504
1.7850000000	69.8234024884
1.7900000000	86.7142244435
1.7950000000	73.7799804644
1.8000000000	49.0553431327
1.8050000000	30.9435693491
1.8100000000	20.3735041297
1.8150000000	14.1796641601
1.8200000000	10.3681795636
1.8250000000	7.8967455187
1.8300000000	6.2178133746
1.8350000000	5.0314763711
1.8400000000	4.1655980264
1.8450000000	3.5156264424
1.8500000000	3.0156022056
1.8550000000	2.6241701135
1.8600000000	2.3122425581
1.8650000000	2.0598260891
1.8700000000	1.8523527991
1.8750000000	1.6786489713
1.8800000000	1.5292045506
1.8850000000	1.3947485502
1.8900000000	1.2638078437
1.8950000000	1.1190025712
1.9000000000	0.9308834320
1.9050000000	0.6033433964
1.9100000000	0.1330000527
1.9150000000	-0.3196619933
1.9200000000	0.2282793761
1.9250000000	2.4184277804
1.9300000000	4.1679824000
1.9350000000	4.2070014214
1.9400000000	3.3770885054
1.9450000000	2.5594129696
1.9500000000	1.9798740064
1.9550000000	1.5965377996
1.9600000000	1.3410886146
1.9650000000	1.1708727958
1.9700000000	1.0455734648
1.9750000000	0.9536935849
1.9800000000	0.8839574827
1.9850000000	0.8282789757
1.9900000000	0.7806387527
1.9950000000	0.7359342993
2.0000000000	0.6932486086
2.0050000000	0.6678659048
2.0100000000	0.6849274674
2.0150000000	0.7294221595
2.0200000000	0.7594841573
2.0250000000	0.7725495009
2.0300000000	0.7825110456
2.0350000000	0.7957971065
2.0400000000	0.8155337755
2.0450000000	0.8430476355
2.0500000000	0.8796871126
2.0550000000	0.9267930635
2.0600000000	0.9844420235
2.0650000000	1.0480328909
2.0700000000	1.1061126579
2.0750000000	1.1497373542
2.0800000000	1.1855566054
2.0850000000	1.2280210567
2.0900000000	1.2863222643
2.0950000000	1.3636461075
2.1000000000	1.4624322870
2.1050000000	1.5811913562
2.1100000000	1.7281977493
2.1150000000	1.9093820456
2.1200000000	2.1332740708
2.1250000000	2.4119769841
2.1300000000	2.7626400103
2.1350000000	3.2097999439
2.1400000000	3.7888948308
2.1450000000	4.5517242211
2.1500000000	5.5737207247
2.1550000000	6.9615756037
2.1600000000	8.8517933631
2.1650000000	11.3600544644
2.1700000000	14.4422588883
2.1750000000	17.5156890588
2.1800000000	19.4458035595
2.1850000000	19.6265973987
2.1900000000	18.8936317869
2.1950000000	18.3735963870
2.2000000000	18.1918617546
2.2050000000	17.3370438045
2.2100000000	15.3763725568
2.2150000000	12.9094278001
2.2200000000	10.6656118424
2.2250000000	8.8474414054
2.2300000000	7.3547769255
2.2350000000	6.1055171687
2.2400000000	5.0797675372
2.2450000000	4.2698113836
2.2500000000	3.6421415210
2.2550000000	3.1563669091
2.2600000000	2.7750966530
2.2650000000	2.4646264746
2.2700000000	2.1930509610
2.2750000000	1.9334056594
2.2800000000	1.6794261536
2.2850000000	1.4621217196
2.2900000000	1.3343129361
2.2950000000	1.3196782701
2.3000000000	1.3774467067
2.3050000000	1.4383267575
2.3100000000	1.4598400870
2.3150000000	1.4433230958
2.3200000000	1.4071425000
2.3250000000	1.3701751537
2.3300000000	1.3424423911
2.3350000000	1.3268696947
2.3400000000	1.3212554275
2.3450000000	1.3191948199
2.3500000000	1.3124380765
2.3550000000	1.2957150094
2.3600000000	1.2704836606
2.3650000000	1.2431724560
2.3700000000	1.2203152086
2.3750000000	1.2055434809
2.3800000000	1.1994403006
2.3850000000	1.2005467378
2.3900000000	1.2069991486
2.3950000000	1.2170115964
2.4000000000	1.2314735056
2.4050000000	1.2541605432
2.4100000000	1.2866778648
2.4150000000	1.3312412769
2.4200000000	1.3893784091
2.4250000000	1.4627273750
2.4300000000	1.5532983497
2.4350000000	1.6636684770
2.4400000000	1.7971545123
2.4450000000	1.9580094542
2.4500000000	2.1516236620
2.4550000000	2.3847980282
2.4600000000	2.6658956847
2.4650000000	3.0049980930
2.4700000000	3.4137069631
2.4750000000	3.9037200623
2.4800000000	4.4873827781
2.4850000000	5.1698230892
2.4900000000	5.9446482707
2.4950000000	6.7835952166
2.5000000000	7.6256446174
2.5050000000	8.4060858016
2.5100000000	8.9178180749
2.5150000000	9.0446687575
2.5200000000	8.7672171104
2.5250000000	8.1715124407
2.5300000000	7.3942861532
2.5350000000	6.5595822431
2.5400000000	5.7492638343
2.5450000000	5.0060500501
2.5500000000	4.3471432120
2.5550000000	3.7754979036
2.5600000000	3.2829598894
2.5650000000	2.8677358485
2.5700000000	2.5210094535
2.5750000000	2.2374536041
2.5800000000	2.0129957529
2.5850000000	1.8428304289
2.5900000000	1.7185551089
2.5950000000	1.6281100461
2.6000000000	1.5588891825
2.6050000000	1.5094970275
2.6100000000	1.4657063716
2.6150000000	1.4269297465
2.6200000000	1.3940773699
2.6250000000	1.3680823252
2.6300000000	1.3495429775
2.6350000000	1.3387459704
2.6400000000	1.3358424561
2.6450000000	1.3409858505
2.6500000000	1.3544913669
2.6550000000	1.3764295510
2.6600000000	1.4072819407
2.6650000000	1.4475065699
2.6700000000	1.4976431029
2.6750000000	1.5583224025
2.6800000000	1.6302188722
2.6850000000	1.7140231447
2.6900000000	1.8103460681
2.6950000000	1.9196551609
2.7000000000	2.0421224914
2.7050000000	2.1920777164
2.7100000000	2.3581200492
2.7150000000	2.5382230437
2.7200000000	2.7289817740
2.7250000000	2.9255542306
2.7300000000	3.1216727671
2.7350000000	3.3096657598
2.7400000000	3.4804072326
2.7450000000	3.6247906594
2.7500000000	3.7292934440
2.7550000000	3.7849646675
2.7600000000	3.7850446268
2.7650000000	3.7280447560
2.7700000000	3.6185050227
2.7750000000	3.4662280476
2.7800000000	3.2841513950
2.7850000000	3.0860356270
2.7900000000	2.8842085533
2.7950000000	2.6885513398
2.8000000000	2.5060555854
2.8050000000	2.3206876981
2.8100000000	2.1611174806
2.8150000000	2.0269876933
2.8200000000	1.9162028118
2.8250000000	1.8259770254
2.8300000000	1.7535005510
2.8350000000	1.6963814879
2.8400000000	1.6520756689
2.8450000000	1.6207376659
2.8500000000	1.6004985947
2.8550000000	1.5906516739
2.8600000000	1.5906757663
2.8650000000	1.6001289083
2.8700000000	1.6185799365
2.8750000000	1.6455364768
2.8800000000	1.6803974024
2.8850000000	1.7224006544
2.8900000000	1.7706364933
2.8950000000	1.8240272946
2.9000000000	1.8813871569
2.9050000000	1.9539213350
2.9100000000	2.0264132019
2.9150000000	2.0962744745
2.9200000000	2.1605333881
2.9250000000	2.2157609059
2.9300000000	2.2587625401
2.9350000000	2.2850585434
2.9400000000	2.2925138395
2.9450000000	2.2800854441
2.9500000000	2.2486257377
2.9550000000	2.2008100225
2.9600000000	2.1406174830
2.9650000000	2.0726294844
2.9700000000	2.0013268359
2.9750000000	1.9305733397
2.9800000000	1.8633567458
2.9850000000	1.8017418405
2.9900000000	1.7470007803
2.9950000000	1.6997506250
3.0000000000	1.6601701925
