# energy (eV)    P(omega), $W$ = 300 nm, $h$ = 300 nm, $s$ = 20 nm, $d/W = 5$, $E_{\rm e}$ = 200 keV
0.2000000000	0.1585266166
0.2050000000	0.1609017111
0.2100000000	0.1631220655
0.2150000000	0.1651927260
0.2200000000	0.1671180070
0.2250000000	0.1689015693
0.2300000000	0.1705462139
0.2350000000	0.1720537980
0.2400000000	0.1734250325
0.2450000000	0.1746594012
0.2500000000	0.1757548768
0.2550000000	0.1767075752
0.2600000000	0.1775116627
0.2650000000	0.1781586631
0.2700000000	0.1786370931
0.2750000000	0.1789317304
0.2800000000	0.1790228137
0.2850000000	0.1788849303
0.2900000000	0.1784855327
0.2950000000	0.1777833167
0.3000000000	0.1767255225
0.3050000000	0.1752449184
0.3100000000	0.1732554305
0.3150000000	0.1831092897
0.3200000000	0.1948120418
0.3250000000	0.2096139761
0.3300000000	0.2294374812
0.3350000000	0.2541125246
0.3400000000	0.2864249111
0.3450000000	0.3256158112
0.3500000000	0.3768831502
0.3550000000	0.4447172307
0.3600000000	0.5332845216
0.3650000000	0.6567531418
0.3700000000	0.8195477067
0.3750000000	1.0459921394
0.3800000000	1.3734830165
0.3850000000	1.8837600781
0.3900000000	2.6898562219
0.3950000000	4.0590596518
0.4000000000	6.6691689065
0.4050000000	12.5208042132
0.4100000000	28.4872428477
0.4150000000	91.4192152787
0.4200000000	58.2478891529
0.4250000000	-109.6297538144
0.4300000000	30.4833474826
0.4350000000	18.9950894136
0.4400000000	11.6111098401
0.4450000000	7.6365090176
0.4500000000	5.3484891132
0.4550000000	3.9404904740
0.4600000000	3.0234893231
0.4650000000	2.3986184356
0.4700000000	1.9569771416
0.4750000000	1.6375755964
0.4800000000	1.4007667961
0.4850000000	1.2225735800
0.4900000000	1.0865520301
0.4950000000	0.9816634719
0.5000000000	0.9003625818
0.5050000000	0.8371135797
0.5100000000	0.7883516713
0.5150000000	0.7514522769
0.5200000000	0.7236728505
0.5250000000	0.7037770522
0.5300000000	0.6904384206
0.5350000000	0.6826866836
0.5400000000	0.6798064908
0.5450000000	0.6812002863
0.5500000000	0.6866785528
0.5550000000	0.6959043274
0.5600000000	0.7087051748
0.5650000000	0.7250034649
0.5700000000	0.7447283436
0.5750000000	0.7680175163
0.5800000000	0.7950949024
0.5850000000	0.8261064356
0.5900000000	0.8613353626
0.5950000000	0.9011381329
0.6000000000	0.9459687944
0.6050000000	0.9964857665
0.6100000000	1.0533169920
0.6150000000	1.1173205826
0.6200000000	1.1896412535
0.6250000000	1.2713764613
0.6300000000	1.3641484445
0.6350000000	1.4699790945
0.6400000000	1.5909720936
0.6450000000	1.7301641827
0.6500000000	1.8915480406
0.6550000000	2.0792798042
0.6600000000	2.2997475929
0.6650000000	2.5611476192
0.6700000000	2.8731159977
0.6750000000	3.2503466959
0.6800000000	3.7126006429
0.6850000000	4.2857635308
0.6900000000	5.0099280358
0.6950000000	5.9411662801
0.7000000000	7.1685492309
0.7050000000	8.8282418380
0.7100000000	11.1509584144
0.7150000000	14.5473954045
0.7200000000	19.7821393940
0.7250000000	28.4714053262
0.7300000000	44.4205327484
0.7350000000	78.5467965904
0.7400000000	172.1383296937
0.7450000000	571.0577543574
0.7500000000	1769.1153942112
0.7550000000	445.0532237526
0.7600000000	147.3893365012
0.7650000000	70.6196246818
0.7700000000	41.0692985182
0.7750000000	26.8044162772
0.7800000000	18.8631471133
0.7850000000	14.0094843434
0.7900000000	10.8233277702
0.7950000000	8.6259211281
0.8000000000	7.0462959242
0.8050000000	5.8698348520
0.8100000000	4.9727233714
0.8150000000	4.2615742522
0.8200000000	3.7003185106
0.8250000000	3.2484048124
0.8300000000	2.8782186788
0.8350000000	2.5738587111
0.8400000000	2.3187177585
0.8450000000	2.1046222641
0.8500000000	1.9236503958
0.8550000000	1.7674800768
0.8600000000	1.6341629141
0.8650000000	1.5202875454
0.8700000000	1.4196697553
0.8750000000	1.3340796173
0.8800000000	1.2614540639
0.8850000000	1.1963413311
0.8900000000	1.1441087076
0.8950000000	1.0965931184
0.9000000000	1.0589340182
0.9050000000	1.0329966889
0.9100000000	1.0092274434
0.9150000000	0.9948079137
0.9200000000	0.9930687055
0.9250000000	0.9917780500
0.9300000000	0.9772268887
0.9350000000	0.9335713157
0.9400000000	0.6903861612
0.9450000000	-0.4149409090
0.9500000000	-6.2481548957
0.9550000000	-35.8349375756
0.9600000000	8.4557651744
0.9650000000	14.8536430725
0.9700000000	6.5881269465
0.9750000000	3.4586073686
0.9800000000	2.1675617804
0.9850000000	1.5637378355
0.9900000000	1.2158287449
0.9950000000	1.0048654169
1.0000000000	0.8701647684
1.0050000000	0.7847675033
1.0100000000	0.7185637540
1.0150000000	0.6701976913
1.0200000000	0.6376202752
1.0250000000	0.6102765031
1.0300000000	0.5895039197
1.0350000000	0.5737896838
1.0400000000	0.5637991743
1.0450000000	0.5554922353
1.0500000000	0.5500127532
1.0550000000	0.5470362329
1.0600000000	0.5472958477
1.0650000000	0.5487509150
1.0700000000	0.5522334247
1.0750000000	0.5577578181
1.0800000000	0.5658700703
1.0850000000	0.5761649545
1.0900000000	0.5913511915
1.0950000000	0.6093856424
1.1000000000	0.6308733386
1.1050000000	0.6556387198
1.1100000000	0.6844639314
1.1150000000	0.7179971466
1.1200000000	0.7570066345
1.1250000000	0.8024969730
1.1300000000	0.8558133769
1.1350000000	0.9186306505
1.1400000000	0.9928558824
1.1450000000	1.0819714092
1.1500000000	1.1897631719
1.1550000000	1.3217047928
1.1600000000	1.4855185217
1.1650000000	1.6912242108
1.1700000000	1.9575928575
1.1750000000	2.3095423415
1.1800000000	2.7882666579
1.1850000000	3.4614776373
1.1900000000	4.4567886890
1.1950000000	6.0192285081
1.2000000000	8.6693481582
1.2050000000	13.6773680628
1.2100000000	24.6939910474
1.2150000000	54.4717348005
1.2200000000	133.6843314974
1.2250000000	120.1064572800
1.2300000000	47.9092921975
1.2350000000	22.4698742785
1.2400000000	12.8340554669
1.2450000000	8.4097633345
1.2500000000	6.0757507442
1.2550000000	4.7287215696
1.2600000000	3.9090209520
1.2650000000	3.3955488028
1.2700000000	3.0893409148
1.2750000000	2.9262318971
1.2800000000	2.8756746510
1.2850000000	2.9243256316
1.2900000000	3.0711024708
1.2950000000	3.3236372113
1.3000000000	3.7131137979
1.3050000000	4.2795228762
1.3100000000	5.0974269989
1.3150000000	6.2958381439
1.3200000000	8.1066882751
1.3250000000	10.9720350021
1.3300000000	15.8600399273
1.3350000000	25.0153748831
1.3400000000	44.5830024466
1.3450000000	93.1599668890
1.3500000000	197.7074474038
1.3550000000	184.3904950379
1.3600000000	85.0312762125
1.3650000000	41.7789906815
1.3700000000	23.9597956890
1.3750000000	15.4083532068
1.3800000000	10.7456440477
1.3850000000	7.9368780807
1.3900000000	6.1265935568
1.3950000000	4.8914927849
1.4000000000	4.0129414560
1.4050000000	3.3676687230
1.4100000000	2.8810145456
1.4150000000	2.5083781686
1.4200000000	2.2182958172
1.4250000000	2.0024106278
1.4300000000	1.8650051089
1.4350000000	1.7740685952
1.4400000000	1.2192801351
1.4450000000	-0.3173519554
1.4500000000	-2.9914852660
1.4550000000	-0.9998417038
1.4600000000	3.0417004982
1.4650000000	1.7623664333
1.4700000000	-1.1231169553
1.4750000000	-5.6873254366
1.4800000000	-2.5090091184
1.4850000000	4.2998141972
1.4900000000	3.4808316149
1.4950000000	2.2584184124
1.5000000000	1.5901029220
1.5050000000	1.2283076704
1.5100000000	1.0212070222
1.5150000000	0.8942304896
1.5200000000	0.8110647031
1.5250000000	0.7582815301
1.5300000000	0.7166895290
1.5350000000	0.6864803934
1.5400000000	0.6646027500
1.5450000000	0.6492374872
1.5500000000	0.6391278961
1.5550000000	0.6337513932
1.5600000000	0.6341948644
1.5650000000	0.6382738307
1.5700000000	0.6483313991
1.5750000000	0.6662150381
1.5800000000	0.6956021586
1.5850000000	0.7437331843
1.5900000000	0.8259244443
1.5950000000	0.9760344907
1.6000000000	1.2654140379
1.6050000000	1.7403386551
1.6100000000	1.9616845787
1.6150000000	1.5611926103
1.6200000000	1.1898804074
1.6250000000	1.0011093976
1.6300000000	0.9144261478
1.6350000000	0.8786403057
1.6400000000	0.8705651433
1.6450000000	0.8795941064
1.6500000000	0.9005641278
1.6550000000	0.9313513336
1.6600000000	0.9708731546
1.6650000000	1.0189801642
1.6700000000	1.0760689611
1.6750000000	1.1429609831
1.6800000000	1.2208592704
1.6850000000	1.3113700428
1.6900000000	1.4163607954
1.6950000000	1.5369146277
1.7000000000	1.6756870603
1.7050000000	1.8362432068
1.7100000000	2.0308351321
1.7150000000	2.3579306987
1.7200000000	2.8520214267
1.7250000000	3.3861302292
1.7300000000	4.0212166342
1.7350000000	4.7083195364
1.7400000000	5.3425869915
1.7450000000	6.1419393680
1.7500000000	7.3673495186
1.7550000000	9.2053604068
1.7600000000	11.9629866914
1.7650000000	16.2173123788
1.7700000000	23.0705561441
1.7750000000	34.6134119412
1.7800000000	54.2728643213
1.7850000000	83.2431780566
1.7900000000	103.3801691285
1.7950000000	87.9598918230
1.8000000000	58.4832791653
1.8050000000	36.8905423961
1.8100000000	24.2889965039
1.8150000000	16.9047587843
1.8200000000	12.3607461348
1.8250000000	9.4143299357
1.8300000000	7.4127266612
1.8350000000	5.9983898459
1.8400000000	4.9660999492
1.8450000000	4.1912110054
1.8500000000	3.5950868359
1.8550000000	3.1284241785
1.8600000000	2.7565448051
1.8650000000	2.4556125712
1.8700000000	2.2082595060
1.8750000000	2.0011639507
1.8800000000	1.8229874764
1.8850000000	1.6626764112
1.8900000000	1.5065511540
1.8950000000	1.3338894981
1.9000000000	1.1095788988
1.9050000000	0.7190331258
1.9100000000	0.1582100702
1.9150000000	-0.3815843714
1.9200000000	0.2714346646
1.9250000000	2.8821647639
1.9300000000	4.9676935146
1.9350000000	5.0142722700
1.9400000000	4.0251545747
1.9450000000	3.0506136349
1.9500000000	2.3598905886
1.9550000000	1.9030090835
1.9600000000	1.5985489318
1.9650000000	1.3956757249
1.9700000000	1.2463347763
1.9750000000	1.1368254862
1.9800000000	1.0537090335
1.9850000000	0.9873479874
1.9900000000	0.9305684300
1.9950000000	0.8772891656
2.0000000000	0.8264171443
2.0050000000	0.7961676701
2.0100000000	0.8165017712
2.0150000000	0.8695303862
2.0200000000	0.9053608721
2.0250000000	0.9209377759
2.0300000000	0.9328180670
2.0350000000	0.9486627553
2.0400000000	0.9721982477
2.0450000000	1.0050065988
2.0500000000	1.0486962796
2.0550000000	1.1048667535
2.0600000000	1.1736091571
2.0650000000	1.2494346661
2.0700000000	1.3186809226
2.0750000000	1.3706782069
2.0800000000	1.4133576726
2.0850000000	1.4639558724
2.0900000000	1.5334357020
2.0950000000	1.6255960124
2.1000000000	1.7433442259
2.1050000000	1.8849035273
2.1100000000	2.0601370624
2.1150000000	2.2761136540
2.1200000000	2.5430009298
2.1250000000	2.8752260278
2.1300000000	3.2932314540
2.1350000000	3.8262659190
2.1400000000	4.5165730379
2.1450000000	5.4259000888
2.1500000000	6.6441656616
2.1550000000	8.2985500206
2.1600000000	10.5517715510
2.1650000000	13.5417245286
2.1700000000	17.2158369356
2.1750000000	20.8794826186
2.1800000000	23.1802410285
2.1850000000	23.3957380988
2.1900000000	22.5220043556
2.1950000000	21.9020959202
2.2000000000	21.6854420019
2.2050000000	20.6664018818
2.2100000000	18.3290920908
2.2150000000	15.3882577081
2.2200000000	12.7134100223
2.2250000000	10.5459955900
2.2300000000	8.7666690250
2.2350000000	7.2775482617
2.2400000000	6.0548816223
2.2450000000	5.0894441355
2.2500000000	4.3412840387
2.2550000000	3.7622532189
2.2600000000	3.3077827115
2.2650000000	2.9376996482
2.2700000000	2.6139767485
2.2750000000	2.3044775925
2.2800000000	2.0017393344
2.2850000000	1.7427257746
2.2900000000	1.5903958898
2.2950000000	1.5729699407
2.3000000000	1.6418456055
2.3050000000	1.7144271282
2.3100000000	1.7400799979
2.3150000000	1.7203982918
2.3200000000	1.6772759535
2.3250000000	1.6332147955
2.3300000000	1.6001604881
2.3350000000	1.5816005253
2.3400000000	1.5749107126
2.3450000000	1.5724567572
2.3500000000	1.5644050399
2.3550000000	1.5444735985
2.3600000000	1.5144003919
2.3650000000	1.4818479618
2.3700000000	1.4546044121
2.3750000000	1.4369983444
2.3800000000	1.4297244488
2.3850000000	1.4310433158
2.3900000000	1.4387330577
2.3950000000	1.4506646152
2.4000000000	1.4678983885
2.4050000000	1.4949351365
2.4100000000	1.5336889125
2.4150000000	1.5868012825
2.4200000000	1.6560931546
2.4250000000	1.7435171037
2.4300000000	1.8514690159
2.4350000000	1.9830205163
2.4400000000	2.1421248348
2.4450000000	2.3338511689
2.4500000000	2.5646243924
2.4550000000	2.8425504256
2.4600000000	3.1775976417
2.4650000000	3.5817821617
2.4700000000	4.0689326272
2.4750000000	4.6529919634
2.4800000000	5.3486756347
2.4850000000	6.1620965911
2.4900000000	7.0856362849
2.4950000000	8.0856079472
2.5000000000	9.0892804611
2.5050000000	10.0195221560
2.5100000000	10.6294778968
2.5150000000	10.7806747833
2.5200000000	10.4499647983
2.5250000000	9.7399156248
2.5300000000	8.8135048144
2.5350000000	7.8185860076
2.5400000000	6.8527347525
2.5450000000	5.9668690701
2.5500000000	5.1814925607
2.5550000000	4.5001267270
2.5600000000	3.9130521624
2.5650000000	3.4181313392
2.5700000000	3.0048557918
2.5750000000	2.6668758996
2.5800000000	2.3993372996
2.5850000000	2.1965121277
2.5900000000	2.0483850078
2.5950000000	1.9405813974
2.6000000000	1.8580757007
2.6050000000	1.7992044722
2.6100000000	1.7470097902
2.6150000000	1.7007913826
2.6200000000	1.6616340925
2.6250000000	1.6306499389
2.6300000000	1.6085519983
2.6350000000	1.5956817455
2.6400000000	1.5922193671
2.6450000000	1.5983477494
2.6500000000	1.6144426416
2.6550000000	1.6405882127
2.6600000000	1.6773583799
2.6650000000	1.7252990203
2.6700000000	1.7850533789
2.6750000000	1.8573733033
2.6800000000	1.9430624926
2.6850000000	2.0429442162
2.6900000000	2.1577465867
2.6950000000	2.2880268767
2.7000000000	2.4339903581
2.7050000000	2.6127160479
2.7100000000	2.8106160919
2.7150000000	3.0252753196
2.7200000000	3.2526356655
2.7250000000	3.4869261763
2.7300000000	3.7206766129
2.7350000000	3.9447431501
2.7400000000	4.1482483784
2.7450000000	4.3203379531
2.7500000000	4.4448940846
2.7550000000	4.5112480612
2.7600000000	4.5113429074
2.7650000000	4.4434044939
2.7700000000	4.3128441074
2.7750000000	4.1313456056
2.7800000000	3.9143293083
2.7850000000	3.6781964065
2.7900000000	3.4376403429
2.7950000000	3.2044383456
2.8000000000	2.9869235614
2.8050000000	2.7659860895
2.8100000000	2.5757966575
2.8150000000	2.4159293738
2.8200000000	2.2838864885
2.8250000000	2.1763475613
2.8300000000	2.0899636112
2.8350000000	2.0218836415
2.8400000000	1.9690752940
2.8450000000	1.9317226360
2.8500000000	1.9075982660
2.8550000000	1.8958597393
2.8600000000	1.8958859052
2.8650000000	1.9071501558
2.8700000000	1.9291385586
2.8750000000	1.9612642837
2.8800000000	2.0028110406
2.8850000000	2.0528705964
2.8900000000	2.1103585549
2.8950000000	2.1739907826
2.9000000000	2.2423536969
2.9050000000	2.3288025972
2.9100000000	2.4152013721
2.9150000000	2.4984651702
2.9200000000	2.5750519087
2.9250000000	2.6408746444
2.9300000000	2.6921257880
2.9350000000	2.7234662603
2.9400000000	2.7323511553
2.9450000000	2.7175374107
2.9500000000	2.6800411019
2.9550000000	2.6230507252
2.9600000000	2.5513089447
2.9650000000	2.4702762123
2.9700000000	2.3852928685
2.9750000000	2.3009640696
2.9800000000	2.2208507824
2.9850000000	2.1474139163
2.9900000000	2.0821695757
2.9950000000	2.0258532983
3.0000000000	1.9786781632
