# energy (eV)    P(omega), $W$ = 300 nm, $h$ = 300 nm, $s$ = 20 nm, $d/W = 5$, $E_{\rm e}$ = 200 keV
0.2000000000	0.1729762635
0.2050000000	0.1756106187
0.2100000000	0.1780587961
0.2150000000	0.1803270090
0.2200000000	0.1824208528
0.2250000000	0.1843449455
0.2300000000	0.1861029741
0.2350000000	0.1876975059
0.2400000000	0.1891298456
0.2450000000	0.1903998068
0.2500000000	0.1915055342
0.2550000000	0.1924430372
0.2600000000	0.1932061102
0.2650000000	0.1937855294
0.2700000000	0.1941687594
0.2750000000	0.1943390153
0.2800000000	0.1942744080
0.2850000000	0.1939466880
0.2900000000	0.1933197227
0.2950000000	0.1923474739
0.3000000000	0.1909711840
0.3050000000	0.1891159717
0.3100000000	0.1866859280
0.3150000000	0.1976797558
0.3200000000	0.2107356833
0.3250000000	0.2272602268
0.3300000000	0.2494106203
0.3350000000	0.2769740344
0.3400000000	0.3130674501
0.3450000000	0.3568065292
0.3500000000	0.4140008962
0.3550000000	0.4896401951
0.3600000000	0.5883259650
0.3650000000	0.7258337971
0.3700000000	0.9069650500
0.3750000000	1.1587253813
0.3800000000	1.5225676025
0.3850000000	2.0891345361
0.3900000000	2.9834756166
0.3950000000	4.5014426225
0.4000000000	7.3931693858
0.4050000000	13.8717930790
0.4100000000	31.5360679417
0.4150000000	101.1092736612
0.4200000000	64.4641408691
0.4250000000	-121.0036390631
0.4300000000	33.5822603945
0.4350000000	20.8998387382
0.4400000000	12.7571471316
0.4450000000	8.3773134466
0.4500000000	5.8576971004
0.4550000000	4.3081355018
0.4600000000	3.2995169847
0.4650000000	2.6125762422
0.4700000000	2.1272844230
0.4750000000	1.7764292513
0.4800000000	1.5163513927
0.4850000000	1.3206484836
0.4900000000	1.1712238708
0.4950000000	1.0559345095
0.5000000000	0.9664787650
0.5050000000	0.8967721954
0.5100000000	0.8428902419
0.5150000000	0.8019407350
0.5200000000	0.7709197298
0.5250000000	0.7484572495
0.5300000000	0.7330967496
0.5350000000	0.7237683867
0.5400000000	0.7196823562
0.5450000000	0.7201791936
0.5500000000	0.7250371594
0.5550000000	0.7338803866
0.5600000000	0.7465085720
0.5650000000	0.7628260216
0.5700000000	0.7827404261
0.5750000000	0.8063878847
0.5800000000	0.8339886116
0.5850000000	0.8656834170
0.5900000000	0.9017548319
0.5950000000	0.9425646450
0.6000000000	0.9885719781
0.6050000000	1.0404542515
0.6100000000	1.0988491781
0.6150000000	1.1646351020
0.6200000000	1.2389845960
0.6250000000	1.3230206191
0.6300000000	1.4184064480
0.6350000000	1.5272144333
0.6400000000	1.6515981352
0.6450000000	1.7946713464
0.6500000000	1.9605248721
0.6550000000	2.1534147323
0.6600000000	2.3798881879
0.6650000000	2.6483370986
0.6700000000	2.9686256345
0.6750000000	3.3558037181
0.6800000000	3.8301003483
0.6850000000	4.4180052325
0.6900000000	5.1605438382
0.6950000000	6.1150807254
0.7000000000	7.3727237963
0.7050000000	9.0727170557
0.7100000000	11.4509478441
0.7150000000	14.9272641045
0.7200000000	20.2830757832
0.7250000000	29.1698574000
0.7300000000	45.4751209739
0.7350000000	80.3492989408
0.7400000000	175.9520298352
0.7450000000	583.2555646735
0.7500000000	1805.4962497323
0.7550000000	453.8509128039
0.7600000000	150.1851017397
0.7650000000	71.9026803039
0.7700000000	41.7825334294
0.7750000000	27.2483995475
0.7800000000	19.1604189261
0.7850000000	14.2189757118
0.7900000000	10.9764293043
0.7950000000	8.7409663858
0.8000000000	7.1345700255
0.8050000000	5.9386058847
0.8100000000	5.0269484322
0.8150000000	4.3045761259
0.8200000000	3.7346458678
0.8250000000	3.2758928307
0.8300000000	2.9002327904
0.8350000000	2.5914473626
0.8400000000	2.3326706509
0.8450000000	2.1155730531
0.8500000000	1.9320857506
0.8550000000	1.7737906795
0.8600000000	1.6386657347
0.8650000000	1.5232301536
0.8700000000	1.4212620174
0.8750000000	1.3344832644
0.8800000000	1.2607925458
0.8850000000	1.1947311087
0.8900000000	1.1416094704
0.8950000000	1.0932886353
0.9000000000	1.0548489054
0.9050000000	1.0281074241
0.9100000000	1.0035833019
0.9150000000	0.9883721754
0.9200000000	0.9857399643
0.9250000000	0.9836071493
0.9300000000	0.9685142400
0.9350000000	0.9250173314
0.9400000000	0.6860090752
0.9450000000	-0.3973386583
0.9500000000	-6.1083260925
0.9550000000	-35.0528518071
0.9600000000	8.2673104754
0.9650000000	14.5106719559
0.9700000000	6.4329788057
0.9750000000	3.3767338731
0.9800000000	2.1165825721
0.9850000000	1.5273637437
0.9900000000	1.1880299568
0.9950000000	0.9823274771
1.0000000000	0.8510030509
1.0050000000	0.7677079491
1.0100000000	0.7031968301
1.0150000000	0.6560869816
1.0200000000	0.6243359776
1.0250000000	0.5977452439
1.0300000000	0.5775793716
1.0350000000	0.5623667844
1.0400000000	0.5527265643
1.0450000000	0.5447861882
1.0500000000	0.5396356768
1.0550000000	0.5369612287
1.0600000000	0.5374558983
1.0650000000	0.5391881635
1.0700000000	0.5429508270
1.0750000000	0.5487604163
1.0800000000	0.5571402993
1.0850000000	0.5677670365
1.0900000000	0.5833418128
1.0950000000	0.6018143166
1.1000000000	0.6237849100
1.1050000000	0.6491494603
1.1100000000	0.6786859210
1.1150000000	0.7130653000
1.1200000000	0.7530581825
1.1250000000	0.7997791587
1.1300000000	0.8545953293
1.1350000000	0.9192514197
1.1400000000	0.9957064253
1.1450000000	1.0876526470
1.1500000000	1.1990097167
1.1550000000	1.3354876379
1.1600000000	1.5051428115
1.1650000000	1.7184009993
1.1700000000	1.9949214432
1.1750000000	2.3606883730
1.1800000000	2.8586978441
1.1850000000	3.5596523706
1.1900000000	4.5966477943
1.1950000000	6.2255660717
1.2000000000	8.9895342394
1.2050000000	14.2137243572
1.2100000000	25.7059057123
1.2150000000	56.7608629548
1.2200000000	139.3224518273
1.2250000000	125.0534639528
1.2300000000	49.7695867767
1.2350000000	23.2533356843
1.2400000000	13.2079867333
1.2450000000	8.5905119261
1.2500000000	6.1482658694
1.2550000000	4.7314396765
1.2600000000	3.8608297284
1.2650000000	3.3057256736
1.2700000000	2.9619437155
1.2750000000	2.7617659615
1.2800000000	2.6718936419
1.2850000000	2.6763866871
1.2900000000	2.7711607238
1.2950000000	2.9603919564
1.3000000000	3.2694935496
1.3050000000	3.7306216389
1.3100000000	4.4057587749
1.3150000000	5.4026671370
1.3200000000	6.9158760751
1.3250000000	9.3155747875
1.3300000000	13.4151533504
1.3350000000	21.0978787423
1.3400000000	37.5194018636
1.3450000000	78.2767037396
1.3500000000	165.9457639778
1.3550000000	154.6638506752
1.3600000000	71.2966549249
1.3650000000	35.0270836388
1.3700000000	20.0893659126
1.3750000000	12.9220572779
1.3800000000	9.0142983897
1.3850000000	6.6600359710
1.3900000000	5.1420097466
1.3950000000	4.1057696782
1.4000000000	3.3676076676
1.4050000000	2.8240738952
1.4100000000	2.4119563551
1.4150000000	2.0925414155
1.4200000000	1.8370209634
1.4250000000	1.6323668673
1.4300000000	1.4668168906
1.4350000000	1.2985075424
1.4400000000	0.7655867521
1.4450000000	-0.6145286776
1.4500000000	-3.1392343660
1.4550000000	-1.1400597441
1.4600000000	2.8644773411
1.4650000000	1.7430395264
1.4700000000	-0.7441085197
1.4750000000	-4.5463285177
1.4800000000	-1.9816841798
1.4850000000	3.5687239826
1.4900000000	2.8871300837
1.4950000000	1.8811499928
1.5000000000	1.3305165344
1.5050000000	1.0313942894
1.5100000000	0.8599096366
1.5150000000	0.7543591584
1.5200000000	0.6849301403
1.5250000000	0.6407372851
1.5300000000	0.6056264437
1.5350000000	0.5799276111
1.5400000000	0.5611054413
1.5450000000	0.5476110751
1.5500000000	0.5384285948
1.5550000000	0.5330440594
1.5600000000	0.5323202907
1.5650000000	0.5342748450
1.5700000000	0.5407110310
1.5750000000	0.5528548921
1.5800000000	0.5731944482
1.5850000000	0.6066301218
1.5900000000	0.6634972765
1.5950000000	0.7665075443
1.6000000000	0.9629893611
1.6050000000	1.2810621847
1.6100000000	1.4221686172
1.6150000000	1.1489315155
1.6200000000	0.9018836581
1.6250000000	0.7793884961
1.6300000000	0.7258701273
1.6350000000	0.7067596769
1.6400000000	0.7065779232
1.6450000000	0.7183238396
1.6500000000	0.7386922902
1.6550000000	0.7663033323
1.6600000000	0.8006230489
1.6650000000	0.8417151694
1.6700000000	0.8900471414
1.6750000000	0.9464313903
1.6800000000	1.0120206779
1.6850000000	1.0883494623
1.6900000000	1.1773862931
1.6950000000	1.2810023915
1.7000000000	1.4031464391
1.7050000000	1.5510185768
1.7100000000	1.7331523648
1.7150000000	1.9917206348
1.7200000000	2.3499897593
1.7250000000	2.7843069113
1.7300000000	3.3297758045
1.7350000000	3.9126751977
1.7400000000	4.4272891217
1.7450000000	5.0672228083
1.7500000000	6.0600377208
1.7550000000	7.5587458896
1.7600000000	9.8123603773
1.7650000000	13.2912140503
1.7700000000	18.8950772611
1.7750000000	28.3305795208
1.7800000000	44.3927757698
1.7850000000	68.0427486750
1.7900000000	84.4411619920
1.7950000000	71.7892776632
1.8000000000	47.6901473539
1.8050000000	30.0531322412
1.8100000000	19.7656183557
1.8150000000	13.7395926526
1.8200000000	10.0322504537
1.8250000000	7.6285323739
1.8300000000	5.9953731859
1.8350000000	4.8408568197
1.8400000000	3.9974721404
1.8450000000	3.3633953592
1.8500000000	2.8743659396
1.8550000000	2.4900688280
1.8600000000	2.1819954328
1.8650000000	1.9304452311
1.8700000000	1.7208740917
1.8750000000	1.5418787255
1.8800000000	1.3834321018
1.8850000000	1.2353649866
1.8900000000	1.0847537951
1.8950000000	0.9119475265
1.9000000000	0.6838747299
1.9050000000	0.2956824385
1.9100000000	-0.2680029341
1.9150000000	-0.8751070699
1.9200000000	-0.6037665898
1.9250000000	1.1695949929
1.9300000000	2.5940366679
1.9350000000	2.7096883273
1.9400000000	2.2336974916
1.9450000000	1.7527425584
1.9500000000	1.4069189592
1.9550000000	1.1748928621
1.9600000000	1.0183463218
1.9650000000	0.9147047232
1.9700000000	0.8362181240
1.9750000000	0.7786153311
1.9800000000	0.7352289057
1.9850000000	0.7013489018
1.9900000000	0.6736190997
1.9950000000	0.6493209071
2.0000000000	0.6277985541
2.0050000000	0.6168337331
2.0100000000	0.6268959198
2.0150000000	0.6509514989
2.0200000000	0.6698881733
2.0250000000	0.6828013501
2.0300000000	0.6965894857
2.0350000000	0.7142283667
2.0400000000	0.7379893575
2.0450000000	0.7693511115
2.0500000000	0.8100912334
2.0550000000	0.8620125355
2.0600000000	0.9252009710
2.0650000000	0.9936540551
2.0700000000	1.0524804584
2.0750000000	1.0898530690
2.0800000000	1.1138462239
2.0850000000	1.1424934834
2.0900000000	1.1869588391
2.0950000000	1.2506547141
2.1000000000	1.3354168524
2.1050000000	1.4393067568
2.1100000000	1.5695727076
2.1150000000	1.7312466440
2.1200000000	1.9317966060
2.1250000000	2.1819579064
2.1300000000	2.4970374343
2.1350000000	2.8989899298
2.1400000000	3.4195499380
2.1450000000	4.1051035014
2.1500000000	5.0231753506
2.1550000000	6.2692059045
2.1600000000	7.9652216149
2.1650000000	10.2144167318
2.1700000000	12.9777044144
2.1750000000	15.7354983885
2.1800000000	17.4791806039
2.1850000000	17.6755143128
2.1900000000	17.0753184366
2.1950000000	16.6768750374
2.2000000000	16.5621634903
2.2050000000	15.7656495793
2.2100000000	13.8825472133
2.2150000000	11.4905711157
2.2200000000	9.3019791138
2.2250000000	7.5490520076
2.2300000000	6.1693727807
2.2350000000	5.0735559469
2.2400000000	4.2041582344
2.2450000000	3.5255793905
2.2500000000	2.9963669016
2.2550000000	2.5788206663
2.2600000000	2.2414732132
2.2650000000	1.9581438994
2.2700000000	1.7068363826
2.2750000000	1.4721138999
2.2800000000	1.2550713736
2.2850000000	1.0829568608
2.2900000000	0.9961294106
2.2950000000	1.0084978400
2.3000000000	1.0802455185
2.3050000000	1.1503617297
2.3100000000	1.1806282775
2.3150000000	1.1729854110
2.3200000000	1.1441660548
2.3250000000	1.1112523543
2.3300000000	1.0834755536
2.3350000000	1.0640353359
2.3400000000	1.0522696505
2.3450000000	1.0447550424
2.3500000000	1.0369207401
2.3550000000	1.0258438602
2.3600000000	1.0123350977
2.3650000000	0.9999397939
2.3700000000	0.9921726300
2.3750000000	0.9907510085
2.3800000000	0.9953831345
2.3850000000	1.0043061490
2.3900000000	1.0155562988
2.3950000000	1.0274541285
2.4000000000	1.0410020552
2.4050000000	1.0599345379
2.4100000000	1.0861499395
2.4150000000	1.1220555124
2.4200000000	1.1692886037
2.4250000000	1.2293387261
2.4300000000	1.3038765884
2.4350000000	1.3949963327
2.4400000000	1.5053923525
2.4450000000	1.6385407908
2.4500000000	1.7988657343
2.4550000000	1.9919642530
2.4600000000	2.2247478241
2.4650000000	2.5055792056
2.4700000000	2.8441452113
2.4750000000	3.2503065375
2.4800000000	3.7347289975
2.4850000000	4.3022087795
2.4900000000	4.9480493039
2.4950000000	5.6488909846
2.5000000000	6.3528373506
2.5050000000	7.0034521316
2.5100000000	7.4237649621
2.5150000000	7.5157808941
2.5200000000	7.2668303166
2.5250000000	6.7548055334
2.5300000000	6.0982078170
2.5350000000	5.4009781035
2.5400000000	4.7289507980
2.5450000000	4.1146631121
2.5500000000	3.5702729753
2.5550000000	3.0973248936
2.5600000000	2.6889571095
2.5650000000	2.3442747747
2.5700000000	2.0564007559
2.5750000000	1.8212644223
2.5800000000	1.6356865941
2.5850000000	1.4957286721
2.5900000000	1.3942803476
2.5950000000	1.3210481304
2.6000000000	1.2652657409
2.6050000000	1.2254808660
2.6100000000	1.1897575870
2.6150000000	1.1576566419
2.6200000000	1.1299802755
2.6250000000	1.1075172261
2.6300000000	1.0907437673
2.6350000000	1.0798664046
2.6400000000	1.0749934574
2.6450000000	1.0762472623
2.6500000000	1.0838905162
2.6550000000	1.0979673491
2.6600000000	1.1188470420
2.6650000000	1.1468557922
2.6700000000	1.1823779873
2.6750000000	1.2258697159
2.6800000000	1.2778386123
2.6850000000	1.3388391320
2.6900000000	1.4094071075
2.6950000000	1.4900282301
2.7000000000	1.5810390350
2.7050000000	1.6933985279
2.7100000000	1.8193317265
2.7150000000	1.9579744318
2.7200000000	2.1074583982
2.7250000000	2.2646711423
2.7300000000	2.4250346203
2.7350000000	2.5823115951
2.7400000000	2.7285041812
2.7450000000	2.8551690471
2.7500000000	2.9500497267
2.7550000000	3.0047272465
2.7600000000	3.0128785061
2.7650000000	2.9728768567
2.7700000000	2.8883659792
2.7750000000	2.7675214571
2.7800000000	2.6211863376
2.7850000000	2.4608957502
2.7900000000	2.2969546152
2.7950000000	2.1376132655
2.8000000000	1.9886910836
2.8050000000	1.8372594721
2.8100000000	1.7065374131
2.8150000000	1.5962267539
2.8200000000	1.5045935809
2.8250000000	1.4293334184
2.8300000000	1.3681345383
2.8350000000	1.3190267329
2.8400000000	1.2799155345
2.8450000000	1.2509420570
2.8500000000	1.2305713572
2.8550000000	1.2182315324
2.8600000000	1.2135179899
2.8650000000	1.2161110986
2.8700000000	1.2257263441
2.8750000000	1.2420725848
2.8800000000	1.2648130407
2.8850000000	1.2935289369
2.8900000000	1.3277046897
2.8950000000	1.3667105698
2.9000000000	1.4097995992
2.9050000000	1.4664029834
2.9100000000	1.5245173766
2.9150000000	1.5819015961
2.9200000000	1.6358605133
2.9250000000	1.6832691725
2.9300000000	1.7211905370
2.9350000000	1.7457145792
2.9400000000	1.7548826858
2.9450000000	1.7476918696
2.9500000000	1.7247324084
2.9550000000	1.6880990189
2.9600000000	1.6409822490
2.9650000000	1.5870834665
2.9700000000	1.5300348060
2.9750000000	1.4729877374
2.9800000000	1.4183864104
2.9850000000	1.3679358866
2.9900000000	1.3226854386
2.9950000000	1.2831695713
3.0000000000	1.2495606285
