# energy (eV)    P(omega), $W$ = 300 nm, $h$ = 300 nm, $s$ = 20 nm, $d/W = 5$, $E_{\rm e}$ = 200 keV
0.2000000000	0.1254770530
0.2050000000	0.1273878901
0.2100000000	0.1291636502
0.2150000000	0.1308088431
0.2200000000	0.1323275290
0.2250000000	0.1337230592
0.2300000000	0.1349981104
0.2350000000	0.1361545449
0.2400000000	0.1371933113
0.2450000000	0.1381142756
0.2500000000	0.1389160923
0.2550000000	0.1395958684
0.2600000000	0.1401491030
0.2650000000	0.1405691055
0.2700000000	0.1408467849
0.2750000000	0.1409699650
0.2800000000	0.1409227692
0.2850000000	0.1406847056
0.2900000000	0.1402295652
0.2950000000	0.1395239524
0.3000000000	0.1385252462
0.3050000000	0.1371791289
0.3100000000	0.1354160301
0.3150000000	0.1433907432
0.3200000000	0.1528612692
0.3250000000	0.1648478909
0.3300000000	0.1809154508
0.3350000000	0.2009095276
0.3400000000	0.2270911409
0.3450000000	0.2588187498
0.3500000000	0.3003065703
0.3550000000	0.3551739899
0.3600000000	0.4267588047
0.3650000000	0.5265043154
0.3700000000	0.6578931619
0.3750000000	0.8405145900
0.3800000000	1.1044373696
0.3850000000	1.5154114812
0.3900000000	2.1641440964
0.3950000000	3.2652376390
0.4000000000	5.3628176161
0.4050000000	10.0622284006
0.4100000000	22.8753754966
0.4150000000	73.3416595202
0.4200000000	46.7603379361
0.4250000000	-87.7720407196
0.4300000000	24.3593892269
0.4350000000	15.1599696204
0.4400000000	9.2535381920
0.4450000000	6.0765607261
0.4500000000	4.2489220929
0.4550000000	3.1249275240
0.4600000000	2.3933139364
0.4650000000	1.8950337025
0.4700000000	1.5430221347
0.4750000000	1.2885257937
0.4800000000	1.0998757818
0.4850000000	0.9579207838
0.4900000000	0.8495341630
0.4950000000	0.7659078006
0.5000000000	0.7010200271
0.5050000000	0.6504574031
0.5100000000	0.6113732124
0.5150000000	0.5816695732
0.5200000000	0.5591675606
0.5250000000	0.5428734310
0.5300000000	0.5317306717
0.5350000000	0.5249632482
0.5400000000	0.5219982686
0.5450000000	0.5223573818
0.5500000000	0.5258797283
0.5550000000	0.5322926608
0.5600000000	0.5414508837
0.5650000000	0.5532849635
0.5700000000	0.5677279313
0.5750000000	0.5848784881
0.5800000000	0.6048963368
0.5850000000	0.6278835935
0.5900000000	0.6540451647
0.5950000000	0.6836434389
0.6000000000	0.7170113973
0.6050000000	0.7546403618
0.6100000000	0.7969928436
0.6150000000	0.8447058766
0.6200000000	0.8986299068
0.6250000000	0.9595793833
0.6300000000	1.0287606372
0.6350000000	1.1076766980
0.6400000000	1.1978894872
0.6450000000	1.3016573616
0.6500000000	1.4219472890
0.6550000000	1.5618460512
0.6600000000	1.7261022098
0.6650000000	1.9208021916
0.6700000000	2.1531001934
0.6750000000	2.4339115924
0.6800000000	2.7779079708
0.6850000000	3.2043015891
0.6900000000	3.7428472374
0.6950000000	4.4351499020
0.7000000000	5.3472877848
0.7050000000	6.5802509544
0.7100000000	8.3051222732
0.7150000000	10.8264063721
0.7200000000	14.7108389294
0.7250000000	21.1561899160
0.7300000000	32.9819673110
0.7350000000	58.2752748497
0.7400000000	127.6133395213
0.7450000000	423.0193611781
0.7500000000	1309.4759066525
0.7550000000	329.1650442729
0.7600000000	108.9248411636
0.7650000000	52.1488522156
0.7700000000	30.3035871452
0.7750000000	19.7624085392
0.7800000000	13.8964378399
0.7850000000	10.3125583753
0.7900000000	7.9608386121
0.7950000000	6.3395264162
0.8000000000	5.1744573659
0.8050000000	4.3070623527
0.8100000000	3.6458662626
0.8150000000	3.1219529762
0.8200000000	2.7086011379
0.8250000000	2.3758826295
0.8300000000	2.1034288797
0.8350000000	1.8794771338
0.8400000000	1.6917951194
0.8450000000	1.5343416022
0.8500000000	1.4012645237
0.8550000000	1.2864585554
0.8600000000	1.1884570942
0.8650000000	1.1047356501
0.8700000000	1.0307817042
0.8750000000	0.9678440703
0.8800000000	0.9143987125
0.8850000000	0.8664866207
0.8900000000	0.8279592520
0.8950000000	0.7929137494
0.9000000000	0.7650345980
0.9050000000	0.7456396839
0.9100000000	0.7278529472
0.9150000000	0.7168205015
0.9200000000	0.7149109388
0.9250000000	0.7133635818
0.9300000000	0.7024169547
0.9350000000	0.6708704368
0.9400000000	0.4975298967
0.9450000000	-0.2881648884
0.9500000000	-4.4300372385
0.9550000000	-25.4219312674
0.9600000000	5.9958322070
0.9650000000	10.5237936879
0.9700000000	4.6654849808
0.9750000000	2.4489588896
0.9800000000	1.5350408683
0.9850000000	1.1077130939
0.9900000000	0.8616131337
0.9950000000	0.7124285364
1.0000000000	0.6171861910
1.0050000000	0.5567768109
1.0100000000	0.5099904233
1.0150000000	0.4758242013
1.0200000000	0.4527968727
1.0250000000	0.4335120065
1.0300000000	0.4188867334
1.0350000000	0.4078537975
1.0400000000	0.4008621819
1.0450000000	0.3951033657
1.0500000000	0.3913678801
1.0550000000	0.3894281439
1.0600000000	0.3897867730
1.0650000000	0.3910429688
1.0700000000	0.3937716889
1.0750000000	0.3979849182
1.0800000000	0.4040622268
1.0850000000	0.4117690463
1.0900000000	0.4230643886
1.0950000000	0.4364612714
1.1000000000	0.4523951015
1.1050000000	0.4707903516
1.1100000000	0.4922112241
1.1150000000	0.5171443569
1.1200000000	0.5461485972
1.1250000000	0.5800322929
1.1300000000	0.6197869081
1.1350000000	0.6666777745
1.1400000000	0.7221256197
1.1450000000	0.7888082371
1.1500000000	0.8695682609
1.1550000000	0.9685467814
1.1600000000	1.0915865669
1.1650000000	1.2462487149
1.1700000000	1.4467907773
1.1750000000	1.7120573529
1.1800000000	2.0732305606
1.1850000000	2.5815862325
1.1900000000	3.3336497097
1.1950000000	4.5149947873
1.2000000000	6.5195146353
1.2050000000	10.3082660895
1.2100000000	18.6427636180
1.2150000000	41.1648003991
1.2200000000	101.0410339554
1.2250000000	90.6926402009
1.2300000000	36.0944153711
1.2350000000	16.8640119317
1.2400000000	9.5788186794
1.2450000000	6.2300866702
1.2500000000	4.4588969754
1.2550000000	3.4313727544
1.2600000000	2.7999809993
1.2650000000	2.3974035368
1.2700000000	2.1480831031
1.2750000000	2.0029086556
1.2800000000	1.9377309914
1.2850000000	1.9409897875
1.2900000000	2.0097229436
1.2950000000	2.1469593132
1.3000000000	2.3711291189
1.3050000000	2.7055529545
1.3100000000	3.1951824852
1.3150000000	3.9181698673
1.3200000000	5.0155935500
1.3250000000	6.7559257418
1.3300000000	9.7290606085
1.3350000000	15.3007987302
1.3400000000	27.2101693114
1.3450000000	56.7685619344
1.3500000000	120.3487398032
1.3550000000	112.1667670596
1.3600000000	51.7064289817
1.3650000000	25.4026707570
1.3700000000	14.5693988366
1.3750000000	9.3714561963
1.3800000000	6.5374348307
1.3850000000	4.8300548594
1.3900000000	3.7291380243
1.3950000000	2.9776267550
1.4000000000	2.4422906742
1.4050000000	2.0481049803
1.4100000000	1.7492266581
1.4150000000	1.5175798361
1.4200000000	1.3322729248
1.4250000000	1.1838595680
1.4300000000	1.0638144696
1.4350000000	0.9417811942
1.4400000000	0.5553028495
1.4450000000	-0.4456003752
1.4500000000	-2.2765593848
1.4550000000	-0.8267511814
1.4600000000	2.0773622411
1.4650000000	1.2640678815
1.4700000000	-0.5396751771
1.4750000000	-3.2971602922
1.4800000000	-1.4371889054
1.4850000000	2.5881539673
1.4900000000	2.0938413477
1.4950000000	1.3642723357
1.5000000000	0.9649356072
1.5050000000	0.7480031931
1.5100000000	0.6236376642
1.5150000000	0.5470898295
1.5200000000	0.4967385598
1.5250000000	0.4646894699
1.5300000000	0.4392271702
1.5350000000	0.4205909952
1.5400000000	0.4069422941
1.5450000000	0.3971578973
1.5500000000	0.3905011398
1.5550000000	0.3865995212
1.5600000000	0.3860790781
1.5650000000	0.3875025866
1.5700000000	0.3921786333
1.5750000000	0.4009977227
1.5800000000	0.4157666657
1.5850000000	0.4400440752
1.5900000000	0.4813352428
1.5950000000	0.5561328724
1.6000000000	0.6988061441
1.6050000000	0.9297761214
1.6100000000	1.0322399653
1.6150000000	0.8338133377
1.6200000000	0.6543991024
1.6250000000	0.5654292727
1.6300000000	0.5265466551
1.6350000000	0.5126480239
1.6400000000	0.5124924190
1.6450000000	0.5209954909
1.6500000000	0.5357567235
1.6550000000	0.5557735292
1.6600000000	0.5806575889
1.6650000000	0.6104544672
1.6700000000	0.6455027542
1.6750000000	0.6863913307
1.6800000000	0.7339559799
1.6850000000	0.7893092669
1.6900000000	0.8538785130
1.6950000000	0.9290200734
1.7000000000	1.0175964035
1.7050000000	1.1248263052
1.7100000000	1.2568989266
1.7150000000	1.4444232609
1.7200000000	1.7042784156
1.7250000000	2.0192619712
1.7300000000	2.4148396921
1.7350000000	2.8375646503
1.7400000000	3.2107775578
1.7450000000	3.6748800961
1.7500000000	4.3949000473
1.7550000000	5.4818056282
1.7600000000	7.1161884935
1.7650000000	9.6391472348
1.7700000000	13.7032199650
1.7750000000	20.5461006605
1.7800000000	32.1948399350
1.7850000000	49.3464423401
1.7900000000	61.2390229534
1.7950000000	52.0635427749
1.8000000000	34.5862049833
1.8050000000	21.7953650004
1.8100000000	14.3345810749
1.8150000000	9.9643438263
1.8200000000	7.2756789348
1.8250000000	5.5324377074
1.8300000000	4.3480270150
1.8350000000	3.5107412882
1.8400000000	2.8990970071
1.8450000000	2.4392487538
1.8500000000	2.0845931866
1.8550000000	1.8058927762
1.8600000000	1.5824724410
1.8650000000	1.4000449492
1.8700000000	1.2480627153
1.8750000000	1.1182560553
1.8800000000	1.0033535271
1.8850000000	0.8959807667
1.8900000000	0.7867662078
1.8950000000	0.6614599473
1.9000000000	0.4960801481
1.9050000000	0.2145910611
1.9100000000	-0.1941500091
1.9150000000	-0.6343466430
1.9200000000	-0.4374236277
1.9250000000	0.8488504676
1.9300000000	1.8820357646
1.9350000000	1.9658658623
1.9400000000	1.6204881717
1.9450000000	1.2715200561
1.9500000000	1.0206042241
1.9550000000	0.8522582796
1.9600000000	0.7386780277
1.9650000000	0.6634816814
1.9700000000	0.6065382391
1.9750000000	0.5647464146
1.9800000000	0.5332685423
1.9850000000	0.5086871733
1.9900000000	0.4885669889
1.9950000000	0.4709352093
2.0000000000	0.4553161257
2.0050000000	0.4473568350
2.0100000000	0.4546573011
2.0150000000	0.4721127080
2.0200000000	0.4858512409
2.0250000000	0.4952160372
2.0300000000	0.5052134010
2.0350000000	0.5180031560
2.0400000000	0.5352329573
2.0450000000	0.5579751126
2.0500000000	0.5875185919
2.0550000000	0.6251706308
2.0600000000	0.6709935428
2.0650000000	0.7206347040
2.0700000000	0.7632959158
2.0750000000	0.7904010121
2.0800000000	0.8078051303
2.0850000000	0.8285852062
2.0900000000	0.8608368297
2.0950000000	0.9070346386
2.1000000000	0.9685101524
2.1050000000	1.0438576817
2.1100000000	1.1383341507
2.1150000000	1.2555891130
2.1200000000	1.4010388616
2.1250000000	1.5824692738
2.1300000000	1.8109817975
2.1350000000	2.1024991663
2.1400000000	2.4800370697
2.1450000000	2.9772371913
2.1500000000	3.6430722178
2.1550000000	4.5467608334
2.1600000000	5.7768034215
2.1650000000	7.4080420811
2.1700000000	9.4121283104
2.1750000000	11.4122275827
2.1800000000	12.6768296995
2.1850000000	12.8191972409
2.1900000000	12.3838648181
2.1950000000	12.0948480467
2.2000000000	12.0116202647
2.2050000000	11.4339580286
2.2100000000	10.0682988415
2.2150000000	8.3336094985
2.2200000000	6.7464241145
2.2250000000	5.4751764337
2.2300000000	4.4745830912
2.2350000000	3.6798256085
2.2400000000	3.0492649132
2.2450000000	2.5570975539
2.2500000000	2.1732661620
2.2550000000	1.8704295089
2.2600000000	1.6257646204
2.2650000000	1.4202816463
2.2700000000	1.2380241821
2.2750000000	1.0677920011
2.2800000000	0.9103756071
2.2850000000	0.7855370023
2.2900000000	0.7225503514
2.2950000000	0.7315068740
2.3000000000	0.7835311600
2.3050000000	0.8343745045
2.3100000000	0.8563192248
2.3150000000	0.8507721308
2.3200000000	0.8298686558
2.3250000000	0.8059975428
2.3300000000	0.7858536203
2.3350000000	0.7717571601
2.3400000000	0.7632273340
2.3450000000	0.7577801151
2.3500000000	0.7520991241
2.3550000000	0.7440636182
2.3600000000	0.7342617851
2.3650000000	0.7252659647
2.3700000000	0.7196263167
2.3750000000	0.7185891468
2.3800000000	0.7219432518
2.3850000000	0.7284103865
2.3900000000	0.7365665238
2.3950000000	0.7451937058
2.4000000000	0.7550188407
2.4050000000	0.7687501585
2.4100000000	0.7877642108
2.4150000000	0.8138066353
2.4200000000	0.8480647663
2.4250000000	0.8916188658
2.4300000000	0.9456806743
2.4350000000	1.0117690669
2.4400000000	1.0918382951
2.4450000000	1.1884095915
2.4500000000	1.3046917299
2.4550000000	1.4447442305
2.4600000000	1.6135799133
2.4650000000	1.8172641821
2.4700000000	2.0628227985
2.4750000000	2.3574074091
2.4800000000	2.7087535411
2.4850000000	3.1203394398
2.4900000000	3.5887583079
2.4950000000	4.0970674324
2.5000000000	4.6076276627
2.5050000000	5.0795079059
2.5100000000	5.3843567142
2.5150000000	5.4511006782
2.5200000000	5.2705490106
2.5250000000	4.8991925181
2.5300000000	4.4229759210
2.5350000000	3.9172858041
2.5400000000	3.4298720975
2.5450000000	2.9843352767
2.5500000000	2.5894944637
2.5550000000	2.2464702635
2.5600000000	1.9502860381
2.5650000000	1.7002923676
2.5700000000	1.4915010934
2.5750000000	1.3209596167
2.5800000000	1.1863619984
2.5850000000	1.0848516001
2.5900000000	1.0112714692
2.5950000000	0.9581560371
2.6000000000	0.9176968411
2.6050000000	0.8888406950
2.6100000000	0.8629307129
2.6150000000	0.8396482624
2.6200000000	0.8195751641
2.6250000000	0.8032834598
2.6300000000	0.7911185884
2.6350000000	0.7832303208
2.6400000000	0.7796972452
2.6450000000	0.7806080897
2.6500000000	0.7861534042
2.6550000000	0.7963652241
2.6600000000	0.8115114127
2.6650000000	0.8318286144
2.6700000000	0.8575956643
2.6750000000	0.8891433986
2.6800000000	0.9268400300
2.6850000000	0.9710877007
2.6900000000	1.0222750051
2.6950000000	1.0807541461
2.7000000000	1.1467690762
2.7050000000	1.2282687399
2.7100000000	1.3196130719
2.7150000000	1.4201747942
2.7200000000	1.5285983510
2.7250000000	1.6426257296
2.7300000000	1.7589362557
2.7350000000	1.8730060375
2.7400000000	1.9790345715
2.7450000000	2.0708985341
2.7500000000	2.1397091292
2.7550000000	2.1793607380
2.7600000000	2.1852677906
2.7650000000	2.1562507538
2.7700000000	2.0949523841
2.7750000000	2.0073022891
2.7800000000	1.9011647038
2.7850000000	1.7849058721
2.7900000000	1.6659996770
2.7950000000	1.5504299635
2.8000000000	1.4424174295
2.8050000000	1.3325849240
2.8100000000	1.2377731516
2.8150000000	1.1577658643
2.8200000000	1.0913054857
2.8250000000	1.0367206079
2.8300000000	0.9923345547
2.8350000000	0.9567183583
2.8400000000	0.9283529287
2.8450000000	0.9073405934
2.8500000000	0.8925680874
2.8550000000	0.8836205971
2.8600000000	0.8802046606
2.8650000000	0.8820884320
2.8700000000	0.8890654925
2.8750000000	0.9009246291
2.8800000000	0.9174214702
2.8850000000	0.9382521700
2.8900000000	0.9630426376
2.8950000000	0.9913359840
2.9000000000	1.0225903106
2.9050000000	1.0636458217
2.9100000000	1.1057963372
2.9150000000	1.1474164076
2.9200000000	1.1865514336
2.9250000000	1.2209351109
2.9300000000	1.2484374216
2.9350000000	1.2662226050
2.9400000000	1.2728702290
2.9450000000	1.2676529276
2.9500000000	1.2509988914
2.9550000000	1.2244274595
2.9600000000	1.1902527486
2.9650000000	1.1511593561
2.9700000000	1.1097816534
2.9750000000	1.0684053835
2.9800000000	1.0288032601
2.9850000000	0.9922119473
2.9900000000	0.9593924536
2.9950000000	0.9307324382
3.0000000000	0.9063568864
