# energy (eV)    P(omega), $W$ = 400 nm, $h$ = 300 nm, $s$ = 20 nm, $d/W = 5$, $E_{\rm e}$ = 200 keV
0.2000000000	0.0667606604
0.2050000000	0.0673679463
0.2100000000	0.0677954917
0.2150000000	0.0680360965
0.2200000000	0.0680796919
0.2250000000	0.0679125987
0.2300000000	0.0675168174
0.2350000000	0.0668689122
0.2400000000	0.0659387427
0.2450000000	0.0646874646
0.2500000000	0.0630654147
0.2550000000	0.0610086911
0.2600000000	0.0584349464
0.2650000000	0.0611315163
0.2700000000	0.0679813225
0.2750000000	0.0777831787
0.2800000000	0.0914399285
0.2850000000	0.1115735338
0.2900000000	0.1365204540
0.2950000000	0.1722839279
0.3000000000	0.2203601827
0.3050000000	0.2940495319
0.3100000000	0.3966963542
0.3150000000	0.5953132722
0.3200000000	0.9055138580
0.3250000000	1.1178892881
0.3300000000	1.4116727768
0.3350000000	1.8281526340
0.3400000000	2.4819415026
0.3450000000	3.6036327917
0.3500000000	5.8403812456
0.3550000000	11.0181721395
0.3600000000	27.0784804218
0.3650000000	0.1223885021
0.3700000000	12.5498733928
0.3750000000	16.5025818138
0.3800000000	7.6896219954
0.3850000000	4.3316265093
0.3900000000	2.7783502548
0.3950000000	1.9578419655
0.4000000000	1.4827684388
0.4050000000	1.1730539500
0.4100000000	0.9714229828
0.4150000000	0.8384361294
0.4200000000	0.7543855654
0.4250000000	0.6883744720
0.4300000000	0.6103734409
0.4350000000	0.5486402221
0.4400000000	0.4998161186
0.4450000000	0.4609951508
0.4500000000	0.4303461406
0.4550000000	0.4060422598
0.4600000000	0.3870831405
0.4650000000	0.3724107309
0.4700000000	0.3613245830
0.4750000000	0.3533346145
0.4800000000	0.3480131576
0.4850000000	0.3449852179
0.4900000000	0.3440290321
0.4950000000	0.3449739844
0.5000000000	0.3476742907
0.5050000000	0.3520649676
0.5100000000	0.3580927791
0.5150000000	0.3657260830
0.5200000000	0.3749806930
0.5250000000	0.3858695751
0.5300000000	0.3985525908
0.5350000000	0.4131008000
0.5400000000	0.4296421717
0.5450000000	0.4483445273
0.5500000000	0.4694453071
0.5550000000	0.4932042343
0.5600000000	0.5199374344
0.5650000000	0.5500514148
0.5700000000	0.5841073407
0.5750000000	0.6225211227
0.5800000000	0.6660709832
0.5850000000	0.7158202310
0.5900000000	0.7724860707
0.5950000000	0.8375777067
0.6000000000	0.9130889921
0.6050000000	1.0005142607
0.6100000000	1.1032791069
0.6150000000	1.2242242115
0.6200000000	1.3682259864
0.6250000000	1.5422804365
0.6300000000	1.7535222545
0.6350000000	2.0153582131
0.6400000000	2.3425794877
0.6450000000	2.7620268465
0.6500000000	3.3079864795
0.6550000000	4.0385358530
0.6600000000	5.0517376180
0.6650000000	6.5025219500
0.6700000000	8.6993533439
0.6750000000	12.2315228067
0.6800000000	18.4752910461
0.6850000000	31.0038020565
0.6900000000	62.1364460807
0.6950000000	174.4259204297
0.7000000000	845.9787309811
0.7050000000	411.2926088411
0.7100000000	105.6522969893
0.7150000000	44.9292485783
0.7200000000	24.5364092841
0.7250000000	15.4132350401
0.7300000000	10.5713390646
0.7350000000	7.7090558958
0.7400000000	5.8761552613
0.7450000000	4.6320557676
0.7500000000	3.7507597591
0.7550000000	3.1032977293
0.7600000000	2.6152914527
0.7650000000	2.2368498519
0.7700000000	1.9381092052
0.7750000000	1.6982765347
0.7800000000	1.5033805353
0.7850000000	1.3429037455
0.7900000000	1.2084615466
0.7950000000	1.0961776651
0.8000000000	1.0007061426
0.8050000000	0.9189115579
0.8100000000	0.8492798440
0.8150000000	0.7882506065
0.8200000000	0.7351181536
0.8250000000	0.6905306880
0.8300000000	0.6515018817
0.8350000000	0.6175719825
0.8400000000	0.5905517157
0.8450000000	0.5669750476
0.8500000000	0.5469844649
0.8550000000	0.5343482157
0.8600000000	0.5242262096
0.8650000000	0.5169785340
0.8700000000	0.5195001000
0.8750000000	0.5203825739
0.8800000000	0.5175807161
0.8850000000	0.4950758926
0.8900000000	0.3841987548
0.8950000000	-0.1714599141
0.9000000000	-3.1510458757
0.9050000000	-20.7047528990
0.9100000000	3.9425925420
0.9150000000	9.3392472738
0.9200000000	3.8769008804
0.9250000000	2.0168772421
0.9300000000	1.2311519541
0.9350000000	0.8557587949
0.9400000000	0.6532506046
0.9450000000	0.5410018136
0.9500000000	0.4612875741
0.9550000000	0.4079281968
0.9600000000	0.3749282641
0.9650000000	0.3477002231
0.9700000000	0.3282722099
0.9750000000	0.3150329596
0.9800000000	0.3069747926
0.9850000000	0.3055017693
0.9900000000	0.3084490861
0.9950000000	0.3203316359
1.0000000000	0.3487326328
1.0050000000	0.4150343498
1.0100000000	0.5887893735
1.0150000000	1.1842947354
1.0200000000	2.2745004563
1.0250000000	1.0339259211
1.0300000000	0.5294719225
1.0350000000	0.3791212525
1.0400000000	0.3199959939
1.0450000000	0.2922574170
1.0500000000	0.2783508334
1.0550000000	0.2710528717
1.0600000000	0.2677740922
1.0650000000	0.2671555196
1.0700000000	0.2684437174
1.0750000000	0.2713732381
1.0800000000	0.2754181659
1.0850000000	0.2809244112
1.0900000000	0.2888823526
1.0950000000	0.2981604302
1.1000000000	0.3088495107
1.1050000000	0.3209687915
1.1100000000	0.3347100448
1.1150000000	0.3502560897
1.1200000000	0.3678239151
1.1250000000	0.3875930934
1.1300000000	0.4100757636
1.1350000000	0.4356171589
1.1400000000	0.4647342553
1.1450000000	0.4980844635
1.1500000000	0.5361793832
1.1550000000	0.5806119026
1.1600000000	0.6323892921
1.1650000000	0.6928308620
1.1700000000	0.7622100056
1.1750000000	0.8325719910
1.1800000000	0.8991556720
1.1850000000	1.2497014803
1.1900000000	1.5508905534
1.1950000000	2.1260476972
1.2000000000	2.8955418514
1.2050000000	2.5398651890
1.2100000000	2.4306746990
1.2150000000	2.7060275114
1.2200000000	3.2364274809
1.2250000000	4.0509573131
1.2300000000	5.2895091832
1.2350000000	7.2487693773
1.2400000000	10.5491435724
1.2450000000	16.7637254390
1.2500000000	30.2227547489
1.2550000000	65.4227506586
1.2600000000	158.0231392666
1.2650000000	160.0708053884
1.2700000000	66.5861616054
1.2750000000	30.7362219753
1.2800000000	17.0222625498
1.2850000000	10.7046072310
1.2900000000	7.3370279181
1.2950000000	5.3473327522
1.3000000000	4.0799849763
1.3050000000	3.2266837463
1.3100000000	2.6249687996
1.3150000000	2.1901997535
1.3200000000	1.8679046386
1.3250000000	1.6253654838
1.3300000000	1.4427094777
1.3350000000	1.3077423563
1.3400000000	1.2141330468
1.3450000000	1.1601449925
1.3500000000	1.1536523690
1.3550000000	1.2125816931
1.3600000000	1.3825465430
1.3650000000	1.7796214234
1.3700000000	2.7278964331
1.3750000000	5.0872870318
1.3800000000	8.3097043778
1.3850000000	5.8049657830
1.3900000000	2.9582589820
1.3950000000	1.7164885607
1.4000000000	1.1241310632
1.4050000000	0.7600647775
1.4100000000	0.4305491564
1.4150000000	-0.0610287763
1.4200000000	-1.1616019149
1.4250000000	-4.0778322182
1.4300000000	-5.4829050504
1.4350000000	2.5119334053
1.4400000000	3.2131497414
1.4450000000	1.9264205829
1.4500000000	1.1986953359
1.4550000000	0.8263124428
1.4600000000	0.6101830527
1.4650000000	0.4393760432
1.4700000000	0.2566752118
1.4750000000	0.3016306153
1.4800000000	0.4421982774
1.4850000000	0.4015308367
1.4900000000	0.3555466839
1.4950000000	0.3258037459
1.5000000000	0.3062650431
1.5050000000	0.2933460941
1.5100000000	0.2845575971
1.5150000000	0.2797623784
1.5200000000	0.2762276843
1.5250000000	0.2749527130
1.5300000000	0.2760549810
1.5350000000	0.2800388897
1.5400000000	0.2881627895
1.5450000000	0.3032212653
1.5500000000	0.3314954954
1.5550000000	0.3855056594
1.5600000000	0.4665788819
1.5650000000	0.4795714988
1.5700000000	0.4064096412
1.5750000000	0.3550697864
1.5800000000	0.3329217433
1.5850000000	0.3259519406
1.5900000000	0.3268537540
1.5950000000	0.3324540808
1.6000000000	0.3413704654
1.6050000000	0.3531269394
1.6100000000	0.3673681111
1.6150000000	0.3840410282
1.6200000000	0.4034112647
1.6250000000	0.4257079212
1.6300000000	0.4513075529
1.6350000000	0.4806956222
1.6400000000	0.5144929081
1.6450000000	0.5534922706
1.6500000000	0.5986889361
1.6550000000	0.6513441402
1.6600000000	0.7130919433
1.6650000000	0.7860415696
1.6700000000	0.8722438329
1.6750000000	0.9767314979
1.6800000000	1.1039530918
1.6850000000	1.2609069722
1.6900000000	1.4575295091
1.6950000000	1.7084019320
1.7000000000	2.0354746034
1.7050000000	2.4866799526
1.7100000000	3.1161913710
1.7150000000	4.0311990240
1.7200000000	5.4257007581
1.7250000000	7.6380212649
1.7300000000	11.0377537581
1.7350000000	15.4007304281
1.7400000000	20.9162541304
1.7450000000	30.5950739903
1.7500000000	43.1590569445
1.7550000000	43.8533316397
1.7600000000	30.7659050347
1.7650000000	19.1642858367
1.7700000000	12.2850582624
1.7750000000	8.3732766209
1.7800000000	6.0615814954
1.7850000000	4.6396035785
1.7900000000	3.7577628250
1.7950000000	3.2531866100
1.8000000000	3.0495303299
1.8050000000	2.9850566498
1.8100000000	2.6558435445
1.8150000000	2.0578965998
1.8200000000	1.5801776461
1.8250000000	1.3338666017
1.8300000000	1.1612675592
1.8350000000	1.0078754796
1.8400000000	0.8827958547
1.8450000000	0.7835373373
1.8500000000	0.7035453148
1.8550000000	0.6374626930
1.8600000000	0.5766755004
1.8650000000	0.5252850351
1.8700000000	0.4733465553
1.8750000000	0.3984732602
1.8800000000	0.2278047841
1.8850000000	-0.1462441193
1.8900000000	-0.6493612665
1.8950000000	-0.7356848443
1.9000000000	0.0787243869
1.9050000000	0.8380430490
1.9100000000	0.9266459080
1.9150000000	0.7828441575
1.9200000000	0.6419052176
1.9250000000	0.5418945997
1.9300000000	0.4813280101
1.9350000000	0.4350882582
1.9400000000	0.4043287833
1.9450000000	0.3839680848
1.9500000000	0.3697365151
1.9550000000	0.3578270421
1.9600000000	0.3475428359
1.9650000000	0.3402396885
1.9700000000	0.3363393594
1.9750000000	0.3355823857
1.9800000000	0.3377583666
1.9850000000	0.3429304142
1.9900000000	0.3514380601
1.9950000000	0.3637060816
2.0000000000	0.3794154201
2.0050000000	0.3972366899
2.0100000000	0.4100200504
2.0150000000	0.4185455811
2.0200000000	0.4288257268
2.0250000000	0.4446942237
2.0300000000	0.4672792293
2.0350000000	0.4971454506
2.0400000000	0.5353183129
2.0450000000	0.5835770910
2.0500000000	0.6444771960
2.0550000000	0.7208584854
2.0600000000	0.8140983435
2.0650000000	0.9227308863
2.0700000000	1.0483879428
2.0750000000	1.2050868952
2.0800000000	1.4159702798
2.0850000000	1.7036022757
2.0900000000	2.0811055980
2.0950000000	2.5213582980
2.1000000000	2.9137465544
2.1050000000	3.1038837645
2.1100000000	3.0135904006
2.1150000000	2.8058123763
2.1200000000	2.6589528600
2.1250000000	2.6526872569
2.1300000000	2.8106536575
2.1350000000	3.1515873156
2.1400000000	3.7130141195
2.1450000000	4.5613232163
2.1500000000	5.7894813986
2.1550000000	7.4673212772
2.1600000000	9.4595360848
2.1650000000	11.1339572293
2.1700000000	11.5295974670
2.1750000000	10.3208520382
2.1800000000	8.3322937621
2.1850000000	6.4287544689
2.1900000000	4.9404687260
2.1950000000	3.8652268954
2.2000000000	3.1108559807
2.2050000000	2.5904029085
2.2100000000	2.2291025199
2.2150000000	1.9519819745
2.2200000000	1.7036645848
2.2250000000	1.4674747662
2.2300000000	1.2536213193
2.2350000000	1.0699985888
2.2400000000	0.9144766335
2.2450000000	0.7801893448
2.2500000000	0.6603024164
2.2550000000	0.5509936442
2.2600000000	0.4416829223
2.2650000000	0.3621623111
2.2700000000	0.3189669856
2.2750000000	0.3298416848
2.2800000000	0.3925808654
2.2850000000	0.4724718919
2.2900000000	0.5309506225
2.2950000000	0.5568695325
2.3000000000	0.5598346568
2.3050000000	0.5508921262
2.3100000000	0.5391120519
2.3150000000	0.5286737941
2.3200000000	0.5212297198
2.3250000000	0.5176875014
2.3300000000	0.5187816773
2.3350000000	0.5251207000
2.3400000000	0.5372242748
2.3450000000	0.5556181784
2.3500000000	0.5808593939
2.3550000000	0.6137829011
2.3600000000	0.6538480734
2.3650000000	0.7013041276
2.3700000000	0.7560190453
2.3750000000	0.8185867522
2.3800000000	0.8912658009
2.3850000000	0.9767361872
2.3900000000	1.0755905532
2.3950000000	1.1834270928
2.4000000000	1.2889297874
2.4050000000	1.3798498230
2.4100000000	1.4302445617
2.4150000000	1.4350615484
2.4200000000	1.4066213477
2.4250000000	1.3659338374
2.4300000000	1.3316457360
2.4350000000	1.3150130262
2.4400000000	1.3205273288
2.4450000000	1.3489143278
2.4500000000	1.4002646891
2.4550000000	1.4757226351
2.4600000000	1.5801258648
2.4650000000	1.7184336196
2.4700000000	1.8961683643
2.4750000000	2.1167793086
2.4800000000	2.3785258723
2.4850000000	2.6702399963
2.4900000000	2.9663749396
2.4950000000	3.2245372183
2.5000000000	3.3916776344
2.5050000000	3.4131649888
2.5100000000	3.2671854818
2.5150000000	2.9935844023
2.5200000000	2.6560274920
2.5250000000	2.3104468356
2.5300000000	1.9909364527
2.5350000000	1.7118215097
2.5400000000	1.4752109756
2.5450000000	1.2775943203
2.5500000000	1.1138842870
2.5550000000	0.9795100209
2.5600000000	0.8671503212
2.5650000000	0.7830628002
2.5700000000	0.7226436803
2.5750000000	0.6837382238
2.5800000000	0.6620279900
2.5850000000	0.6516067763
2.5900000000	0.6469317340
2.5950000000	0.6445513735
2.6000000000	0.6433528209
2.6050000000	0.6484832254
2.6100000000	0.6566115795
2.6150000000	0.6689824339
2.6200000000	0.6862570086
2.6250000000	0.7084760434
2.6300000000	0.7350123676
2.6350000000	0.7645348761
2.6400000000	0.7950097135
2.6450000000	0.8238577974
2.6500000000	0.8483477434
2.6550000000	0.8662401099
2.6600000000	0.8764946584
2.6650000000	0.8797224071
2.6700000000	0.8780563563
2.6750000000	0.8746144345
2.6800000000	0.8724178672
2.6850000000	0.8742893662
2.6900000000	0.8821946798
2.6950000000	0.8973418636
2.7000000000	0.9203101380
2.7050000000	0.9546913872
2.7100000000	0.9989390823
2.7150000000	1.0523378463
2.7200000000	1.1134089346
2.7250000000	1.1796421559
2.7300000000	1.2472479291
2.7350000000	1.3111171129
2.7400000000	1.3651724814
2.7450000000	1.4032435610
2.7500000000	1.4203568829
2.7550000000	1.4140067050
2.7600000000	1.3848332514
2.7650000000	1.3363915403
2.7700000000	1.2741215540
2.7750000000	1.2040504091
2.7800000000	1.1317047680
2.7850000000	1.0615057783
2.7900000000	0.9960165920
2.7950000000	0.9380420168
2.8000000000	0.8881622897
2.8050000000	0.8419644804
2.8100000000	0.8055407733
2.8150000000	0.7774571673
2.8200000000	0.7561558504
2.8250000000	0.7402073189
2.8300000000	0.7283966180
2.8350000000	0.7197159868
2.8400000000	0.7133138898
2.8450000000	0.7084673645
2.8500000000	0.7045958779
2.8550000000	0.7013140392
2.8600000000	0.6984913836
2.8650000000	0.6962716411
2.8700000000	0.6950362304
2.8750000000	0.6953097301
2.8800000000	0.6976437303
2.8850000000	0.7025120483
2.8900000000	0.7102377853
2.8950000000	0.7209493126
2.9000000000	0.7345586383
2.9050000000	0.7549155845
2.9100000000	0.7772394980
2.9150000000	0.8000398827
2.9200000000	0.8214330705
2.9250000000	0.8393955457
2.9300000000	0.8520485292
2.9350000000	0.8579872757
2.9400000000	0.8565529158
2.9450000000	0.8479582680
2.9500000000	0.8332082627
2.9550000000	0.8138438105
2.9600000000	0.7916170353
2.9650000000	0.7681875920
2.9700000000	0.7449203615
2.9750000000	0.7227969527
2.9800000000	0.7024217033
2.9850000000	0.6840869403
2.9900000000	0.6678606443
2.9950000000	0.6536716674
3.0000000000	0.6413792776
