# energy (eV)    P(omega), $W$ = 300 nm, $h$ = 300 nm, $s$ = 20 nm, $d/W = 5$, $E_{\rm e}$ = 200 keV
0.2000000000	0.4049050909
0.2050000000	0.4110768331
0.2100000000	0.4168097634
0.2150000000	0.4221186434
0.2200000000	0.4270166463
0.2250000000	0.4315146778
0.2300000000	0.4356215188
0.2350000000	0.4393433053
0.2400000000	0.4426830431
0.2450000000	0.4456405267
0.2500000000	0.4482113199
0.2550000000	0.4503863279
0.2600000000	0.4521509024
0.2650000000	0.4534834990
0.2700000000	0.4543547758
0.2750000000	0.4547254643
0.2800000000	0.4545442886
0.2850000000	0.4537450215
0.2900000000	0.4522430689
0.2950000000	0.4499304147
0.3000000000	0.4466694739
0.3050000000	0.4422846507
0.3100000000	0.4365513252
0.3150000000	0.4623188050
0.3200000000	0.4929193750
0.3250000000	0.5316517951
0.3300000000	0.5835744149
0.3350000000	0.6481843599
0.3400000000	0.7327887887
0.3450000000	0.8353087634
0.3500000000	0.9693618789
0.3550000000	1.1466409357
0.3600000000	1.3779214745
0.3650000000	1.7001740702
0.3700000000	2.1246293677
0.3750000000	2.7145592433
0.3800000000	3.5670758413
0.3850000000	4.8945334118
0.3900000000	6.9898400908
0.3950000000	10.5460101065
0.4000000000	17.3201545781
0.4050000000	32.4961681832
0.4100000000	73.8719554392
0.4150000000	236.8271638343
0.4200000000	151.0006527118
0.4250000000	-283.3806234344
0.4300000000	78.6358308516
0.4350000000	48.9341259653
0.4400000000	29.8658811753
0.4450000000	19.6099219211
0.4500000000	13.7102117814
0.4550000000	10.0820703501
0.4600000000	7.7205942708
0.4650000000	6.1123261549
0.4700000000	4.9761989123
0.4750000000	4.1548239848
0.4800000000	3.5459739961
0.4850000000	3.0878266283
0.4900000000	2.7380112720
0.4950000000	2.4680976204
0.5000000000	2.2586472434
0.5050000000	2.0954166372
0.5100000000	1.9692159347
0.5150000000	1.8732729548
0.5200000000	1.8005565401
0.5250000000	1.7478584689
0.5300000000	1.7117676489
0.5350000000	1.6897792891
0.5400000000	1.6800441460
0.5450000000	1.6810164912
0.5500000000	1.6921762515
0.5550000000	1.7126413803
0.5600000000	1.7419418634
0.5650000000	1.7798504287
0.5700000000	1.8261498940
0.5750000000	1.8811545080
0.5800000000	1.9453768322
0.5850000000	2.0191411828
0.5900000000	2.1031050775
0.5950000000	2.1981090246
0.6000000000	2.3052221775
0.6050000000	2.4260197425
0.6100000000	2.5619865861
0.6150000000	2.7151675147
0.6200000000	2.8882905093
0.6250000000	3.0839711866
0.6300000000	3.3060804741
0.6350000000	3.5594425293
0.6400000000	3.8490708784
0.6450000000	4.1822143001
0.6500000000	4.5683954238
0.6550000000	5.0175209730
0.6600000000	5.5448330424
0.6650000000	6.1698647973
0.6700000000	6.9155798327
0.6750000000	7.8170023078
0.6800000000	8.9212314683
0.6850000000	10.2899199336
0.6900000000	12.0185564049
0.6950000000	14.2406659671
0.7000000000	17.1682972025
0.7050000000	21.1255466403
0.7100000000	26.6614322990
0.7150000000	34.7531116385
0.7200000000	47.2192157562
0.7250000000	67.9032759683
0.7300000000	105.8526952365
0.7350000000	187.0172785715
0.7400000000	409.5110424192
0.7450000000	1357.3812968469
0.7500000000	4201.5668237959
0.7550000000	1056.0867610204
0.7600000000	349.4499491749
0.7650000000	167.2919629057
0.7700000000	97.2067725991
0.7750000000	63.3891043929
0.7800000000	44.5707894497
0.7850000000	33.0739041762
0.7900000000	25.5299558686
0.7950000000	20.3292026005
0.8000000000	16.5920706731
0.8050000000	13.8098551050
0.8100000000	11.6890980683
0.8150000000	10.0087275503
0.8200000000	8.6830019449
0.8250000000	7.6159184410
0.8300000000	6.7421338652
0.8350000000	6.0239216395
0.8400000000	5.4220353089
0.8450000000	4.9171007695
0.8500000000	4.4903434470
0.8550000000	4.1221876036
0.8600000000	3.8079208407
0.8650000000	3.5394445679
0.8700000000	3.3022953023
0.8750000000	3.1004651738
0.8800000000	2.9290654100
0.8850000000	2.7754118400
0.8900000000	2.6518311678
0.8950000000	2.5394192645
0.9000000000	2.4499680799
0.9050000000	2.3876900579
0.9100000000	2.3305721987
0.9150000000	2.2950831040
0.9200000000	2.2887981925
0.9250000000	2.2836822914
0.9300000000	2.2485126009
0.9350000000	2.1474859451
0.9400000000	1.5930023424
0.9450000000	-0.9196941537
0.9500000000	-14.1644005850
0.9550000000	-81.2869856760
0.9600000000	19.1713129645
0.9650000000	33.6466126063
0.9700000000	14.9159678795
0.9750000000	7.8295283359
0.9800000000	4.9077710130
0.9850000000	3.5416526425
0.9900000000	2.7549290101
0.9950000000	2.2780313440
1.0000000000	1.9735741206
1.0050000000	1.7804578150
1.0100000000	1.6309031963
1.0150000000	1.5216917111
1.0200000000	1.4480816556
1.0250000000	1.3864452053
1.0300000000	1.3397070980
1.0350000000	1.3044564240
1.0400000000	1.2821222151
1.0450000000	1.2637398411
1.0500000000	1.2518311454
1.0550000000	1.2456689830
1.0600000000	1.2468557038
1.0650000000	1.2509245715
1.0700000000	1.2597098978
1.0750000000	1.2732499048
1.0800000000	1.2927571811
1.0850000000	1.3174944611
1.0900000000	1.3537346303
1.0950000000	1.3967132775
1.1000000000	1.4478237920
1.1050000000	1.5068371763
1.1100000000	1.5755589306
1.1150000000	1.6555513644
1.1200000000	1.7486046070
1.1250000000	1.8573251091
1.1300000000	1.9848927359
1.1350000000	2.1353702865
1.1400000000	2.3133166190
1.1450000000	2.5273425212
1.1500000000	2.7865732791
1.1550000000	3.1043100397
1.1600000000	3.4993185362
1.1650000000	3.9958798980
1.1700000000	4.6398020223
1.1750000000	5.4916084854
1.1800000000	6.6514578819
1.1850000000	8.2840457028
1.1900000000	10.6993981819
1.1950000000	14.4935960566
1.2000000000	20.9317595302
1.2050000000	33.1006451683
1.2100000000	59.8695842406
1.2150000000	132.2044914597
1.2200000000	324.5013503635
1.2250000000	291.2438361486
1.2300000000	115.8913517171
1.2350000000	54.1317136999
1.2400000000	30.7347672679
1.2450000000	19.9793149983
1.2500000000	14.2896326585
1.2550000000	10.9877190615
1.2600000000	8.9574339370
1.2650000000	7.6613890159
1.2700000000	6.8567656334
1.2750000000	6.3857154833
1.2800000000	6.1704415785
1.2850000000	6.1734971637
1.2900000000	6.3848856237
1.2950000000	6.8137415263
1.3000000000	7.5180882466
1.3050000000	8.5713143233
1.3100000000	10.1152327399
1.3150000000	12.3965317358
1.3200000000	15.8606897708
1.3250000000	21.3553391751
1.3300000000	30.7434215757
1.3350000000	48.3377682621
1.3400000000	85.9452514919
1.3450000000	179.2830674419
1.3500000000	380.0432432609
1.3550000000	354.1852873238
1.3600000000	163.2666529975
1.3650000000	80.2101822053
1.3700000000	46.0040469155
1.3750000000	29.5917840077
1.3800000000	20.6435535007
1.3850000000	15.2525817032
1.3900000000	11.7763707737
1.3950000000	9.4033414553
1.4000000000	7.7127370665
1.4050000000	6.4676579736
1.4100000000	5.5232394604
1.4150000000	4.7906083092
1.4200000000	4.2033835129
1.4250000000	3.7307105313
1.4300000000	3.3430354468
1.4350000000	2.9418608118
1.4400000000	1.7089003960
1.4450000000	-1.4703954761
1.4500000000	-7.3060950720
1.4550000000	-2.6664144215
1.4600000000	6.6194990649
1.4650000000	4.0420152796
1.4700000000	-1.6664573328
1.4750000000	-10.3691660703
1.4800000000	-4.5145574488
1.4850000000	8.1666745619
1.4900000000	6.6067507400
1.4950000000	4.3065614510
1.5000000000	3.0474431965
1.5050000000	2.3633047437
1.5100000000	1.9710887395
1.5150000000	1.7296528367
1.5200000000	1.5708455243
1.5250000000	1.4698107455
1.5300000000	1.3895529376
1.5350000000	1.3308657538
1.5400000000	1.2879600268
1.5450000000	1.2573006852
1.5500000000	1.2365911169
1.5550000000	1.2246760155
1.5600000000	1.2235746510
1.5650000000	1.2288028829
1.5700000000	1.2445948190
1.5750000000	1.2739292614
1.5800000000	1.3228095623
1.5850000000	1.4030456410
1.5900000000	1.5395269183
1.5950000000	1.7869269971
1.6000000000	2.2591210171
1.6050000000	3.0234344172
1.6100000000	3.3608806944
1.6150000000	2.7009236891
1.6200000000	2.1043875798
1.6250000000	1.8075931968
1.6300000000	1.6765715834
1.6350000000	1.6280514392
1.6400000000	1.6247372615
1.6450000000	1.6497398204
1.6500000000	1.6950722725
1.6550000000	1.7573318174
1.6600000000	1.8351759241
1.6650000000	1.9286732618
1.6700000000	2.0388471745
1.6750000000	2.1675294233
1.6800000000	2.3173488623
1.6850000000	2.4918120118
1.6900000000	2.6954526627
1.6950000000	2.9326381808
1.7000000000	3.2125512463
1.7050000000	3.5520437052
1.7100000000	3.9703348132
1.7150000000	4.5597410332
1.7200000000	5.3734831122
1.7250000000	6.3663077444
1.7300000000	7.6165177978
1.7350000000	8.9513148112
1.7400000000	10.1262079912
1.7450000000	11.5859480555
1.7500000000	13.8526727311
1.7550000000	17.2759882650
1.7600000000	22.4244647043
1.7650000000	30.3723654718
1.7700000000	43.1750331032
1.7750000000	64.7309009072
1.7800000000	101.4241183989
1.7850000000	155.4474226608
1.7900000000	192.8981750957
1.7950000000	163.9853211455
1.8000000000	108.9290786794
1.8050000000	68.6393291468
1.8100000000	45.1397289839
1.8150000000	31.3750881544
1.8200000000	22.9070051680
1.8250000000	17.4166738882
1.8300000000	13.6863917232
1.8350000000	11.0493424860
1.8400000000	9.1228913244
1.8450000000	7.6744310795
1.8500000000	6.5571795245
1.8550000000	5.6790388653
1.8600000000	4.9748623902
1.8650000000	4.3996237193
1.8700000000	3.9200601574
1.8750000000	3.5100623096
1.8800000000	3.1466358633
1.8850000000	2.8064191845
1.8900000000	2.4596885302
1.8950000000	2.0612413698
1.9000000000	1.5350319145
1.9050000000	0.6402687537
1.9100000000	-0.6595596736
1.9150000000	-2.0656726941
1.9200000000	-1.4770374782
1.9250000000	2.5300274128
1.9300000000	5.7495850876
1.9350000000	6.0227129398
1.9400000000	4.9750675583
1.9450000000	3.9141624965
1.9500000000	3.1503874265
1.9550000000	2.6373164482
1.9600000000	2.2907850777
1.9650000000	2.0614889872
1.9700000000	1.8874300956
1.9750000000	1.7596730556
1.9800000000	1.6635049254
1.9850000000	1.5885447660
1.9900000000	1.5274246948
1.9950000000	1.4742007676
2.0000000000	1.4274022717
2.0050000000	1.4039600111
2.0100000000	1.4261428322
2.0150000000	1.4787970559
2.0200000000	1.5208367099
2.0250000000	1.5503784933
2.0300000000	1.5823920059
2.0350000000	1.6232925486
2.0400000000	1.6781870922
2.0450000000	1.7504907373
2.0500000000	1.8443420577
2.0550000000	1.9639385873
2.0600000000	2.1094736401
2.0650000000	2.2669608561
2.0700000000	2.4017178710
2.0750000000	2.4861736322
2.0800000000	2.5390570620
2.0850000000	2.6022668302
2.0900000000	2.7016980531
2.0950000000	2.8452012383
2.1000000000	3.0368778240
2.1050000000	3.2722060915
2.1100000000	3.5676147978
2.1150000000	3.9344732698
2.1200000000	4.3897015918
2.1250000000	4.9576495904
2.1300000000	5.6730579668
2.1350000000	6.5857524878
2.1400000000	7.7677917838
2.1450000000	9.3244696828
2.1500000000	11.4090693487
2.1550000000	14.2382480446
2.1600000000	18.0889726189
2.1650000000	23.1954092785
2.1700000000	29.4687396445
2.1750000000	35.7294585134
2.1800000000	39.6885577122
2.1850000000	40.1367164625
2.1900000000	38.7789896810
2.1950000000	37.8804657820
2.2000000000	37.6236629643
2.2050000000	35.8097677647
2.2100000000	31.5181129552
2.2150000000	26.0649446742
2.2200000000	21.0741817727
2.2250000000	17.0795807513
2.2300000000	13.9431031164
2.2350000000	11.4597346570
2.2400000000	9.4937429226
2.2450000000	7.9604665969
2.2500000000	6.7642957423
2.2550000000	5.8194961742
2.2600000000	5.0549292950
2.2650000000	4.4117126915
2.2700000000	3.8407497834
2.2750000000	3.3080872236
2.2800000000	2.8170346838
2.2850000000	2.4293767184
2.2900000000	2.2358586779
2.2950000000	2.2671431406
2.3000000000	2.4324614581
2.3050000000	2.5935181115
2.3100000000	2.6635982468
2.3150000000	2.6472217406
2.3200000000	2.5824028874
2.3250000000	2.5079289787
2.3300000000	2.4447760279
2.3350000000	2.4002671922
2.3400000000	2.3730347623
2.3450000000	2.3555434009
2.3500000000	2.3377042225
2.3550000000	2.3130628006
2.3600000000	2.2834104226
2.3650000000	2.2565681741
2.3700000000	2.2402743749
2.3750000000	2.2382658728
2.3800000000	2.2497910148
2.3850000000	2.2707907738
2.3900000000	2.2967645140
2.3950000000	2.3238852523
2.4000000000	2.3544554758
2.4050000000	2.3969866130
2.4100000000	2.4558605720
2.4150000000	2.5365929220
2.4200000000	2.6429235314
2.4250000000	2.7782275929
2.4300000000	2.9462722686
2.4350000000	3.1517743570
2.4400000000	3.4008028205
2.4450000000	3.7011922336
2.4500000000	4.0629166195
2.4550000000	4.4985975638
2.4600000000	5.0238270824
2.4650000000	5.6574716865
2.4700000000	6.4214027345
2.4750000000	7.3378974086
2.4800000000	8.4310910494
2.4850000000	9.7119096085
2.4900000000	11.1698702450
2.4950000000	12.7522889453
2.5000000000	14.3419087325
2.5050000000	15.8110201793
2.5100000000	16.7594384279
2.5150000000	16.9656927558
2.5200000000	16.4015547882
2.5250000000	15.2436427889
2.5300000000	13.7600649300
2.5350000000	12.1855944263
2.5400000000	10.6686044853
2.5450000000	9.2822151964
2.5500000000	8.0536171825
2.5550000000	6.9862002391
2.5600000000	6.0644542486
2.5650000000	5.2864263737
2.5700000000	4.6366415803
2.5750000000	4.1059431792
2.5800000000	3.6871746912
2.5850000000	3.3714460780
2.5900000000	3.1426878972
2.5950000000	2.9776329967
2.6000000000	2.8519473970
2.6050000000	2.7623184314
2.6100000000	2.6817918242
2.6150000000	2.6093782775
2.6200000000	2.5468890666
2.6250000000	2.4960990702
2.6300000000	2.4580726628
2.6350000000	2.4332690367
2.6400000000	2.4219270318
2.6450000000	2.4243249965
2.6500000000	2.4410596417
2.6550000000	2.4722322797
2.6600000000	2.5186741031
2.6650000000	2.5811144738
2.6700000000	2.6604121700
2.6750000000	2.7575857686
2.6800000000	2.8737744524
2.6850000000	3.0102257698
2.6900000000	3.1681526842
2.6950000000	3.3486629565
2.7000000000	3.5525391747
2.7050000000	3.8043807977
2.7100000000	4.0868597247
2.7150000000	4.3981243821
2.7200000000	4.7340732683
2.7250000000	5.0877953217
2.7300000000	5.4490390740
2.7350000000	5.8037585821
2.7400000000	6.1338518845
2.7450000000	6.4201813810
2.7500000000	6.6349798214
2.7550000000	6.7591568845
2.7600000000	6.7783711816
2.7650000000	6.6889194150
2.7700000000	6.4990035943
2.7750000000	6.2270764633
2.7800000000	5.8976082010
2.7850000000	5.5366139072
2.7900000000	5.1673427600
2.7950000000	4.8083991089
2.8000000000	4.4729047382
2.8050000000	4.1317630905
2.8100000000	3.8372427228
2.8150000000	3.5886663571
2.8200000000	3.3821220189
2.8250000000	3.2124108086
2.8300000000	3.0743188024
2.8350000000	2.9634034014
2.8400000000	2.8749403156
2.8450000000	2.8092478869
2.8500000000	2.7628654950
2.8550000000	2.7345055545
2.8600000000	2.7232602849
2.8650000000	2.7284149497
2.8700000000	2.7493402359
2.8750000000	2.7853942019
2.8800000000	2.8358368843
2.8850000000	2.8997512257
2.8900000000	2.9760031395
2.8950000000	3.0632043966
2.9000000000	3.1596990023
2.9050000000	3.2867519071
2.9100000000	3.4173903262
2.9150000000	3.5465530529
2.9200000000	3.6681399896
2.9250000000	3.7750760580
2.9300000000	3.8607113139
2.9350000000	3.9162127567
2.9400000000	3.9371474477
2.9450000000	3.9212424437
2.9500000000	3.8698156114
2.9550000000	3.7875758268
2.9600000000	3.6816989804
2.9650000000	3.5605131706
2.9700000000	3.4321921382
2.9750000000	3.3038275010
2.9800000000	3.1809209743
2.9850000000	3.0673101086
2.9900000000	2.9653583130
2.9950000000	2.8762694603
3.0000000000	2.8004340928
