# energy (eV)    P(omega), $W$ = 300 nm, $h$ = 300 nm, $s$ = 20 nm, $d/W = 5$, $E_{\rm e}$ = 200 keV
0.2000000000	0.1499740734
0.2050000000	0.1522580820
0.2100000000	0.1543806847
0.2150000000	0.1563472684
0.2200000000	0.1581626840
0.2250000000	0.1598309346
0.2300000000	0.1613552171
0.2350000000	0.1627377553
0.2400000000	0.1639796815
0.2450000000	0.1650808334
0.2500000000	0.1660396017
0.2550000000	0.1668525267
0.2600000000	0.1675142277
0.2650000000	0.1680167069
0.2700000000	0.1683490973
0.2750000000	0.1684968449
0.2800000000	0.1684409721
0.2850000000	0.1681569859
0.2900000000	0.1676135597
0.2950000000	0.1667707775
0.3000000000	0.1655776969
0.3050000000	0.1639693947
0.3100000000	0.1618627173
0.3150000000	0.1713944137
0.3200000000	0.1827139597
0.3250000000	0.1970408012
0.3300000000	0.2162452590
0.3350000000	0.2401428290
0.3400000000	0.2714359362
0.3450000000	0.3093578958
0.3500000000	0.3589456584
0.3550000000	0.4245252966
0.3600000000	0.5100863954
0.3650000000	0.6293064801
0.3700000000	0.7863484845
0.3750000000	1.0046265327
0.3800000000	1.3200806164
0.3850000000	1.8112989474
0.3900000000	2.5867008139
0.3950000000	3.9027930208
0.4000000000	6.4099501115
0.4050000000	12.0269877207
0.4100000000	27.3421190314
0.4150000000	87.6629390171
0.4200000000	55.8911361232
0.4250000000	-104.9118073448
0.4300000000	29.1163336671
0.4350000000	18.1205028880
0.4400000000	11.0606716669
0.4450000000	7.2632898448
0.4500000000	5.0787430449
0.4550000000	3.7352480019
0.4600000000	2.8607589386
0.4650000000	2.2651695278
0.4700000000	1.8444129979
0.4750000000	1.5402153063
0.4800000000	1.3147231179
0.4850000000	1.1450451762
0.4900000000	1.0154913899
0.4950000000	0.9155335183
0.5000000000	0.8379739439
0.5050000000	0.7775373137
0.5100000000	0.7308209941
0.5150000000	0.6953174227
0.5200000000	0.6684221232
0.5250000000	0.6489473055
0.5300000000	0.6356301316
0.5350000000	0.6275430142
0.5400000000	0.6240011912
0.5450000000	0.6244329026
0.5500000000	0.6286458994
0.5550000000	0.6363143055
0.5600000000	0.6472644705
0.5650000000	0.6614134312
0.5700000000	0.6786811643
0.5750000000	0.6991856931
0.5800000000	0.7231179582
0.5850000000	0.7506000720
0.5900000000	0.7818770140
0.5950000000	0.8172624959
0.6000000000	0.8571546082
0.6050000000	0.9021407413
0.6100000000	0.9527738462
0.6150000000	1.0098155144
0.6200000000	1.0742824771
0.6250000000	1.1471484244
0.6300000000	1.2298555590
0.6350000000	1.3242007794
0.6400000000	1.4320514046
0.6450000000	1.5561073465
0.6500000000	1.6999156802
0.6550000000	1.8671667330
0.6600000000	2.0635375086
0.6650000000	2.2963044780
0.6700000000	2.5740206582
0.6750000000	2.9097356688
0.6800000000	3.3209897204
0.6850000000	3.8307515605
0.6900000000	4.4745938590
0.6950000000	5.3022564716
0.7000000000	6.3927376815
0.7050000000	7.8667739663
0.7100000000	9.9288997491
0.7150000000	12.9431591232
0.7200000000	17.5871014408
0.7250000000	25.2926967382
0.7300000000	39.4307542972
0.7350000000	69.6696607378
0.7400000000	152.5654756371
0.7450000000	505.7329607844
0.7500000000	1565.5225969697
0.7550000000	393.5286396549
0.7600000000	130.2238013295
0.7650000000	62.3460549109
0.7700000000	36.2292252501
0.7750000000	23.6268409418
0.7800000000	16.6138407742
0.7850000000	12.3291670889
0.7900000000	9.5175878593
0.7950000000	7.5792396550
0.8000000000	6.1863484988
0.8050000000	5.1493387734
0.8100000000	4.3588484574
0.8150000000	3.7324854052
0.8200000000	3.2383033898
0.8250000000	2.8405220750
0.8300000000	2.5147900133
0.8350000000	2.2470443181
0.8400000000	2.0226607937
0.8450000000	1.8344168848
0.8500000000	1.6753162152
0.8550000000	1.5380595321
0.8600000000	1.4208935131
0.8650000000	1.3208000301
0.8700000000	1.2323840623
0.8750000000	1.1571387533
0.8800000000	1.0932420496
0.8850000000	1.0359606387
0.8900000000	0.9898993613
0.8950000000	0.9480008140
0.9000000000	0.9146702072
0.9050000000	0.8914832683
0.9100000000	0.8702189650
0.9150000000	0.8570300628
0.9200000000	0.8547485178
0.9250000000	0.8528999624
0.9300000000	0.8398133332
0.9350000000	0.8020967278
0.9400000000	0.5948469822
0.9450000000	-0.3445526386
0.9500000000	-5.2967080437
0.9550000000	-30.3953310755
0.9600000000	7.1688239382
0.9650000000	12.5826363879
0.9700000000	5.5782303477
0.9750000000	2.9280680560
0.9800000000	1.8353521667
0.9850000000	1.3244222709
0.9900000000	1.0301752748
0.9950000000	0.8518041319
1.0000000000	0.7379285388
1.0050000000	0.6657007442
1.0100000000	0.6097610680
1.0150000000	0.5689105809
1.0200000000	0.5413782712
1.0250000000	0.5183205343
1.0300000000	0.5008339860
1.0350000000	0.4876425689
1.0400000000	0.4792831488
1.0450000000	0.4723976474
1.0500000000	0.4679312985
1.0550000000	0.4656119971
1.0600000000	0.4660407181
1.0650000000	0.4675425389
1.0700000000	0.4708049267
1.0750000000	0.4758422184
1.0800000000	0.4831082559
1.0850000000	0.4923224953
1.0900000000	0.5058271701
1.0950000000	0.5218444444
1.1000000000	0.5408949106
1.1050000000	0.5628881986
1.1100000000	0.5884988884
1.1150000000	0.6183088014
1.1200000000	0.6529861075
1.1250000000	0.6934971896
1.1300000000	0.7410274457
1.1350000000	0.7970896887
1.1400000000	0.8633825338
1.1450000000	0.9431074263
1.1500000000	1.0396629882
1.1550000000	1.1580002154
1.1600000000	1.3051045925
1.1650000000	1.4900160410
1.1700000000	1.7297804851
1.1750000000	2.0469281584
1.1800000000	2.4787397121
1.1850000000	3.0865194431
1.1900000000	3.9856711467
1.1950000000	5.3980628027
1.2000000000	7.7946253552
1.2050000000	12.3243797692
1.2100000000	22.2889411717
1.2150000000	49.2158684622
1.2200000000	120.8028788328
1.2250000000	108.4307272293
1.2300000000	43.1540656207
1.2350000000	20.1625118653
1.2400000000	11.4524510766
1.2450000000	7.4487627835
1.2500000000	5.3311621576
1.2550000000	4.1026793562
1.2600000000	3.3478095422
1.2650000000	2.8665099060
1.2700000000	2.5684462711
1.2750000000	2.3949028460
1.2800000000	2.3170085065
1.2850000000	2.3209435778
1.2900000000	2.4031691747
1.2950000000	2.5673096882
1.3000000000	2.8354062275
1.3050000000	3.2353485758
1.3100000000	3.8208937882
1.3150000000	4.6855022776
1.3200000000	5.9978857852
1.3250000000	8.0791030010
1.3300000000	11.6345903252
1.3350000000	18.2976691204
1.3400000000	32.5397360171
1.3450000000	67.8877606644
1.3500000000	143.9215026884
1.3550000000	134.1370293224
1.3600000000	61.8342656976
1.3650000000	30.3783427292
1.3700000000	17.4231334774
1.3750000000	11.2070565280
1.3800000000	7.8179277000
1.3850000000	5.7761185920
1.3900000000	4.4595625611
1.3950000000	3.5608512250
1.4000000000	2.9206583632
1.4050000000	2.4492638825
1.4100000000	2.0918457334
1.4150000000	1.8148294914
1.4200000000	1.5932327428
1.4250000000	1.4157619627
1.4300000000	1.2722302307
1.4350000000	1.1263443936
1.4400000000	0.6642196426
1.4450000000	-0.5326291669
1.4500000000	-2.7219701120
1.4550000000	-0.9884534521
1.4600000000	2.4839875263
1.4650000000	1.5114356824
1.4700000000	-0.6455521587
1.4750000000	-3.9431697956
1.4800000000	-1.7188029626
1.4850000000	3.0951185706
1.4900000000	2.5039800472
1.4950000000	1.6314935429
1.5000000000	1.1539296702
1.5050000000	0.8945020369
1.5100000000	0.7457740764
1.5150000000	0.6542307125
1.5200000000	0.5940153135
1.5250000000	0.5556868826
1.5300000000	0.5252352382
1.5350000000	0.5029463919
1.5400000000	0.4866213967
1.5450000000	0.4749169087
1.5500000000	0.4669516806
1.5550000000	0.4622799043
1.5600000000	0.4616496785
1.5650000000	0.4633414237
1.5700000000	0.4689186348
1.5750000000	0.4794438635
1.5800000000	0.4970735336
1.5850000000	0.5260550407
1.5900000000	0.5753465231
1.5950000000	0.6646333403
1.6000000000	0.8349378687
1.6050000000	1.1106348191
1.6100000000	1.2329506523
1.6150000000	0.9961327083
1.6200000000	0.7820117473
1.6250000000	0.6758473007
1.6300000000	0.6294698840
1.6350000000	0.6129171273
1.6400000000	0.6127725248
1.6450000000	0.6229680768
1.6500000000	0.6406391716
1.6550000000	0.6645901136
1.6600000000	0.6943583793
1.6650000000	0.7299995794
1.6700000000	0.7719193412
1.6750000000	0.8208223788
1.6800000000	0.8777085043
1.6850000000	0.9439085276
1.6900000000	1.0211295823
1.6950000000	1.1109940257
1.7000000000	1.2169256289
1.7050000000	1.3451667330
1.7100000000	1.5031200699
1.7150000000	1.7273861224
1.7200000000	2.0381442457
1.7250000000	2.4148291457
1.7300000000	2.8878972715
1.7350000000	3.3934343210
1.7400000000	3.8397681677
1.7450000000	4.3948012107
1.7500000000	5.2558871886
1.7550000000	6.5557347823
1.7600000000	8.5103171125
1.7650000000	11.5275598749
1.7700000000	16.3878441425
1.7750000000	24.5713486897
1.7800000000	38.5022600237
1.7850000000	59.0141490373
1.7900000000	73.2367206835
1.7950000000	62.2636641194
1.8000000000	41.3622526898
1.8050000000	26.0654797150
1.8100000000	17.1430021965
1.8150000000	11.9165591263
1.8200000000	8.7011364950
1.8250000000	6.6163621942
1.8300000000	5.1999031468
1.8350000000	4.1985770792
1.8400000000	3.4670997261
1.8450000000	2.9171580938
1.8500000000	2.4930183810
1.8550000000	2.1597149564
1.8600000000	1.8925220686
1.8650000000	1.6743533794
1.8700000000	1.4925948438
1.8750000000	1.3373566011
1.8800000000	1.1999426122
1.8850000000	1.0715337540
1.8900000000	0.9409224063
1.8950000000	0.7910668521
1.9000000000	0.5932867190
1.9050000000	0.2566492226
1.9100000000	-0.2321713211
1.9150000000	-0.7586087620
1.9200000000	-0.5230939201
1.9250000000	1.0152117693
1.9300000000	2.2508408501
1.9350000000	2.3510953913
1.9400000000	1.9380367425
1.9450000000	1.5206837276
1.9500000000	1.2205975909
1.9550000000	1.0192620772
1.9600000000	0.8834243685
1.9650000000	0.7934923274
1.9700000000	0.7253902046
1.9750000000	0.6754088362
1.9800000000	0.6377625377
1.9850000000	0.6083641494
1.9900000000	0.5843010958
1.9950000000	0.5632139736
2.0000000000	0.5445338871
2.0050000000	0.5350147879
2.0100000000	0.5437463809
2.0150000000	0.5646231265
2.0200000000	0.5810540478
2.0250000000	0.5922535491
2.0300000000	0.6042092123
2.0350000000	0.6195041744
2.0400000000	0.6401088721
2.0450000000	0.6673055683
2.0500000000	0.7026355655
2.0550000000	0.7476620217
2.0600000000	0.8024595027
2.0650000000	0.8618234762
2.0700000000	0.9128421666
2.0750000000	0.9452608102
2.0800000000	0.9660808122
2.0850000000	0.9909390369
2.0900000000	1.0295160044
2.0950000000	1.0847710322
2.1000000000	1.1582967909
2.1050000000	1.2484125035
2.1100000000	1.3614053883
2.1150000000	1.5016403896
2.1200000000	1.6755953802
2.1250000000	1.8925821516
2.1300000000	2.1658778233
2.1350000000	2.5145256536
2.1400000000	2.9660518496
2.1450000000	3.5606911215
2.1500000000	4.3570136956
2.1550000000	5.4378035579
2.1600000000	6.9089053849
2.1650000000	8.8598290517
2.1700000000	11.2566716084
2.1750000000	13.6487494931
2.1800000000	15.1611945763
2.1850000000	15.3314766982
2.1900000000	14.8108444401
2.1950000000	14.4652030023
2.2000000000	14.3656810101
2.2050000000	13.6748251498
2.2100000000	12.0415388831
2.2150000000	9.9668979280
2.2200000000	8.0686662784
2.2250000000	6.5482846628
2.2300000000	5.3515925662
2.2350000000	4.4010699280
2.2400000000	3.6469214467
2.2450000000	3.0582896478
2.2500000000	2.5992275717
2.2550000000	2.2370355886
2.2600000000	1.9444175390
2.2650000000	1.6986613898
2.2700000000	1.4806830569
2.2750000000	1.2770866473
2.2800000000	1.0888171562
2.2850000000	0.9395096594
2.2900000000	0.8641761045
2.2950000000	0.8748860464
2.3000000000	0.9371051659
2.3050000000	0.9979123438
2.3100000000	1.0241573426
2.3150000000	1.0175224725
2.3200000000	0.9925215041
2.3250000000	0.9639712349
2.3300000000	0.9398786201
2.3350000000	0.9230186840
2.3400000000	0.9128163771
2.3450000000	0.9063008790
2.3500000000	0.8995058883
2.3550000000	0.8898950725
2.3600000000	0.8781719069
2.3650000000	0.8674128911
2.3700000000	0.8606680007
2.3750000000	0.8594278345
2.3800000000	0.8634398004
2.3850000000	0.8711751451
2.3900000000	0.8809307730
2.3950000000	0.8912500270
2.4000000000	0.9030022438
2.4050000000	0.9194264480
2.4100000000	0.9421688528
2.4150000000	0.9733171956
2.4200000000	1.0142915434
2.4250000000	1.0663839272
2.4300000000	1.1310436372
2.4350000000	1.2100873032
2.4400000000	1.3058522837
2.4450000000	1.4213540516
2.4500000000	1.5604303983
2.4550000000	1.7279366269
2.4600000000	1.9298681961
2.4650000000	2.1734795204
2.4700000000	2.4671735352
2.4750000000	2.8195038170
2.4800000000	3.2397221961
2.4850000000	3.7319886254
2.4900000000	4.2922284153
2.4950000000	4.9001776459
2.5000000000	5.5108190607
2.5050000000	6.0751982668
2.5100000000	6.4398046380
2.5150000000	6.5196330298
2.5200000000	6.3036909751
2.5250000000	5.8595423525
2.5300000000	5.2899785999
2.5350000000	4.6851635870
2.5400000000	4.1022071911
2.5450000000	3.5693360974
2.5500000000	3.0970982617
2.5550000000	2.6868339674
2.5600000000	2.3325911595
2.5650000000	2.0335931076
2.5700000000	1.7838739327
2.5750000000	1.5799023129
2.5800000000	1.4189203249
2.5850000000	1.2975113997
2.5900000000	1.2095077263
2.5950000000	1.1459803127
2.6000000000	1.0975900419
2.6050000000	1.0630772671
2.6100000000	1.0320881551
2.6150000000	1.0042416341
2.6200000000	0.9802336147
2.6250000000	0.9607483234
2.6300000000	0.9461989697
2.6350000000	0.9367647093
2.6400000000	0.9325395537
2.6450000000	0.9336295997
2.6500000000	0.9402627207
2.6550000000	0.9524771855
2.6600000000	0.9705933431
2.6650000000	0.9948942100
2.6700000000	1.0257132737
2.6750000000	1.0634462264
2.6800000000	1.1085334690
2.6850000000	1.1614559891
2.6900000000	1.2226785719
2.6950000000	1.2926224738
2.7000000000	1.3715794850
2.7050000000	1.4690568777
2.7100000000	1.5783089099
2.7150000000	1.6985853410
2.7200000000	1.8282648852
2.7250000000	1.9646468847
2.7300000000	2.1037596687
2.7350000000	2.2401925171
2.7400000000	2.3670078158
2.7450000000	2.4768817619
2.7500000000	2.5591830439
2.7550000000	2.6066089934
2.7600000000	2.6136750393
2.7650000000	2.5789703544
2.7700000000	2.5056557508
2.7750000000	2.4008232061
2.7800000000	2.2738786751
2.7850000000	2.1348285635
2.7900000000	1.9926119291
2.7950000000	1.8543857676
2.8000000000	1.7251982145
2.8050000000	1.5938337514
2.8100000000	1.4804346814
2.8150000000	1.3847423921
2.8200000000	1.3052527828
2.8250000000	1.2399667949
2.8300000000	1.1868790656
2.8350000000	1.1442805034
2.8400000000	1.1103542225
2.8450000000	1.0852226233
2.8500000000	1.0675542010
2.8550000000	1.0568528209
2.8600000000	1.0527674876
2.8650000000	1.0550209041
2.8700000000	1.0633661713
2.8750000000	1.0775506733
2.8800000000	1.0972821311
2.8850000000	1.1221971254
2.8900000000	1.1518482304
2.8950000000	1.1856889873
2.9000000000	1.2230712646
2.9050000000	1.2721763421
2.9100000000	1.3225911493
2.9150000000	1.3723715583
2.9200000000	1.4191797549
2.9250000000	1.4603051048
2.9300000000	1.4931999746
2.9350000000	1.5144726232
2.9400000000	1.5224241115
2.9450000000	1.5161844422
2.9500000000	1.4962657462
2.9550000000	1.4644852105
2.9600000000	1.4236106517
2.9650000000	1.3768529976
2.9700000000	1.3273631127
2.9750000000	1.2778748858
2.9800000000	1.2305085991
2.9850000000	1.1867433919
2.9900000000	1.1474894761
2.9950000000	1.1132105339
3.0000000000	1.0840560611
