# energy (eV)    P(omega), $W$ = 300 nm, $h$ = 300 nm, $s$ = 20 nm, $d/W = 5$, $E_{\rm e}$ = 200 keV
0.2000000000	0.1648973075
0.2050000000	0.1673675986
0.2100000000	0.1696767209
0.2150000000	0.1718299326
0.2200000000	0.1738317363
0.2250000000	0.1756859493
0.2300000000	0.1773954966
0.2350000000	0.1789623172
0.2400000000	0.1803871607
0.2450000000	0.1816694961
0.2500000000	0.1828072225
0.2550000000	0.1837963058
0.2600000000	0.1846306815
0.2650000000	0.1853015376
0.2700000000	0.1857969329
0.2750000000	0.1861010363
0.2800000000	0.1861932947
0.2850000000	0.1860472732
0.2900000000	0.1856291178
0.2950000000	0.1848958619
0.3000000000	0.1837926240
0.3050000000	0.1822494677
0.3100000000	0.1801768564
0.3150000000	0.1904273448
0.3200000000	0.2026011632
0.3250000000	0.2179990988
0.3300000000	0.2386211081
0.3350000000	0.2642899954
0.3400000000	0.2979038607
0.3450000000	0.3386728035
0.3500000000	0.3920041786
0.3550000000	0.4625688127
0.3600000000	0.5547003247
0.3650000000	0.6831368320
0.3700000000	0.8524793726
0.3750000000	1.0880294767
0.3800000000	1.4286858736
0.3850000000	1.9594721207
0.3900000000	2.7979583004
0.3950000000	4.2221634890
0.4000000000	6.9370968170
0.4050000000	13.0236815665
0.4100000000	29.6310211189
0.4150000000	95.0884431934
0.4200000000	60.5859045316
0.4250000000	-114.0265541538
0.4300000000	31.7051821406
0.4350000000	19.7561199287
0.4400000000	12.0760815285
0.4450000000	7.9421615960
0.4500000000	5.5624497049
0.4550000000	4.0980382270
0.4600000000	3.1443039001
0.4650000000	2.4944067502
0.4700000000	2.0350803745
0.4750000000	1.7028902456
0.4800000000	1.4566005100
0.4850000000	1.2712731535
0.4900000000	1.1298054408
0.4950000000	1.0207164941
0.5000000000	0.9361587151
0.5050000000	0.8703746195
0.5100000000	0.8196565981
0.5150000000	0.7812748587
0.5200000000	0.7523771588
0.5250000000	0.7316775179
0.5300000000	0.7177963824
0.5350000000	0.7097245782
0.5400000000	0.7067180648
0.5450000000	0.7081553400
0.5500000000	0.7138391252
0.5550000000	0.7234189100
0.5600000000	0.7367152311
0.5650000000	0.7536472266
0.5700000000	0.7741410383
0.5750000000	0.7983396977
0.5800000000	0.8264758114
0.5850000000	0.8587008987
0.5900000000	0.8953092344
0.5950000000	0.9366711833
0.6000000000	0.9832585137
0.6050000000	1.0357554682
0.6100000000	1.0948145230
0.6150000000	1.1613273938
0.6200000000	1.2364836451
0.6250000000	1.3214237032
0.6300000000	1.4178333685
0.6350000000	1.5278137552
0.6400000000	1.6535509302
0.6450000000	1.7982006362
0.6500000000	1.9659119820
0.6550000000	2.1610038736
0.6600000000	2.3901147816
0.6650000000	2.6617618715
0.6700000000	2.9859587763
0.6750000000	3.3779748736
0.6800000000	3.8583453487
0.6850000000	4.4539695355
0.6900000000	5.2065103509
0.6950000000	6.1742355879
0.7000000000	7.4497043732
0.7050000000	9.1744132826
0.7100000000	11.5881102411
0.7150000000	15.1175717538
0.7200000000	20.5573182289
0.7250000000	29.5868368973
0.7300000000	46.1604317788
0.7350000000	81.6227205552
0.7400000000	178.8779028516
0.7450000000	593.4111322473
0.7500000000	1838.3508076854
0.7550000000	462.4670320567
0.7600000000	153.1551169447
0.7650000000	73.3816550648
0.7700000000	42.6752471819
0.7750000000	27.8523483948
0.7800000000	19.6004630371
0.7850000000	14.5569727769
0.7900000000	11.2462179218
0.7950000000	8.9628876314
0.8000000000	7.3215015705
0.8050000000	6.0990471371
0.8100000000	5.1668667352
0.8150000000	4.4279213895
0.8200000000	3.8447299621
0.8250000000	3.3751556687
0.8300000000	2.9905040092
0.8350000000	2.6742515972
0.8400000000	2.4091421909
0.8450000000	2.1866823712
0.8500000000	1.9986405315
0.8550000000	1.8363696392
0.8600000000	1.6978447323
0.8650000000	1.5795209905
0.8700000000	1.4749729894
0.8750000000	1.3860393088
0.8800000000	1.3105762234
0.8850000000	1.2429195419
0.8900000000	1.1886451043
0.8950000000	1.1392721163
0.9000000000	1.1001396708
0.9050000000	1.0731852823
0.9100000000	1.0484838111
0.9150000000	1.0334958105
0.9200000000	1.0316810222
0.9250000000	1.0303326050
0.9300000000	1.0152097311
0.9350000000	0.9698547671
0.9400000000	0.7172338112
0.9450000000	-0.4309524657
0.9500000000	-6.4902910407
0.9550000000	-37.2237992848
0.9600000000	8.7834718903
0.9650000000	15.4291786902
0.9700000000	6.8433755023
0.9750000000	3.5926057943
0.9800000000	2.2515452190
0.9850000000	1.6243303824
0.9900000000	1.2629451674
0.9950000000	1.0438106148
1.0000000000	0.9038926246
1.0050000000	0.8151872413
1.0100000000	0.7464192781
1.0150000000	0.6961799099
1.0200000000	0.6623404052
1.0250000000	0.6339376488
1.0300000000	0.6123606785
1.0350000000	0.5960381018
1.0400000000	0.5856608183
1.0450000000	0.5770327018
1.0500000000	0.5713417360
1.0550000000	0.5682508630
1.0600000000	0.5685214985
1.0650000000	0.5700343350
1.0700000000	0.5736534438
1.0750000000	0.5793938056
1.0800000000	0.5878224852
1.0850000000	0.5985190384
1.0900000000	0.6142974518
1.0950000000	0.6330350380
1.1000000000	0.6553602964
1.1050000000	0.6810913012
1.1100000000	0.7110405198
1.1150000000	0.7458814548
1.1200000000	0.7864121984
1.1250000000	0.8336770439
1.1300000000	0.8890735560
1.1350000000	0.9543420044
1.1400000000	1.0314638272
1.1450000000	1.1240579177
1.1500000000	1.2360580062
1.1550000000	1.3731517065
1.1600000000	1.5433631476
1.1650000000	1.7571036419
1.1700000000	2.0338785630
1.1750000000	2.3995796282
1.1800000000	2.8970114372
1.1850000000	3.5965326722
1.1900000000	4.6307446395
1.1950000000	6.2542553302
1.2000000000	9.0079623286
1.2050000000	14.2117328688
1.2100000000	25.6589495503
1.2150000000	56.6004740995
1.2200000000	138.9083787583
1.2250000000	124.7988457464
1.2300000000	49.7802292951
1.2350000000	23.3467699606
1.2400000000	13.3344412560
1.2450000000	8.7372514440
1.2500000000	6.3119940802
1.2550000000	4.9122636675
1.2600000000	4.0604446282
1.2650000000	3.5267966577
1.2700000000	3.2084823061
1.2750000000	3.0388247064
1.2800000000	2.9860743155
1.2850000000	3.0363545094
1.2900000000	3.1885228807
1.2950000000	3.4504878430
1.3000000000	3.8546090139
1.3050000000	4.4423833351
1.3100000000	5.2911934095
1.3150000000	6.5349333971
1.3200000000	8.4143169745
1.3250000000	11.3881369715
1.3300000000	16.4612207519
1.3350000000	25.9632362429
1.3400000000	46.2718282231
1.3450000000	96.6881939152
1.3500000000	205.1941501867
1.3550000000	191.3723248461
1.3600000000	88.2507859729
1.3650000000	43.3608390726
1.3700000000	24.8669839719
1.3750000000	15.9917792927
1.3800000000	11.1525399677
1.3850000000	8.2374334505
1.3900000000	6.3586084123
1.3950000000	5.0767427346
1.4000000000	4.1649222154
1.4050000000	3.4952088339
1.4100000000	2.9901130663
1.4150000000	2.6033402571
1.4200000000	2.3022258034
1.4250000000	2.0780730520
1.4300000000	1.9352654440
1.4350000000	1.8405162404
1.4400000000	1.2643878918
1.4450000000	-0.3309904210
1.4500000000	-3.1078685553
1.4550000000	-1.0391665922
1.4600000000	3.1585033294
1.4650000000	1.8304690336
1.4700000000	-1.1646184064
1.4750000000	-5.9015277291
1.4800000000	-2.6033588351
1.4850000000	4.4624897452
1.4900000000	3.6125221301
1.4950000000	2.3439184785
1.5000000000	1.6503483516
1.5050000000	1.2748788554
1.5100000000	1.0599516299
1.5150000000	0.9281771833
1.5200000000	0.8418704348
1.5250000000	0.7870967736
1.5300000000	0.7439383059
1.5350000000	0.7125951459
1.5400000000	0.6899010585
1.5450000000	0.6739688084
1.5500000000	0.6634954147
1.5550000000	0.6579399215
1.5600000000	0.6584327343
1.5650000000	0.6627101182
1.5700000000	0.6732097812
1.5750000000	0.6918590459
1.5800000000	0.7224924378
1.5850000000	0.7726588229
1.5900000000	0.8583260263
1.5950000000	1.0147915656
1.6000000000	1.3164340627
1.6050000000	1.8114701469
1.6100000000	2.0420910027
1.6150000000	1.6244561522
1.6200000000	1.2372759693
1.6250000000	1.0403947368
1.6300000000	0.9499268867
1.6350000000	0.9125032785
1.6400000000	0.9039503516
1.6450000000	0.9132092261
1.6500000000	0.9348961370
1.6550000000	0.9667930930
1.6600000000	1.0077689353
1.6650000000	1.0576639595
1.6700000000	1.1168868484
1.6750000000	1.1862881674
1.6800000000	1.2671153350
1.6850000000	1.3610342235
1.6900000000	1.4699825818
1.6950000000	1.5950844283
1.7000000000	1.7390954133
1.7050000000	1.9057157338
1.7100000000	2.1076529181
1.7150000000	2.4470645252
1.7200000000	2.9597673444
1.7250000000	3.5140640759
1.7300000000	4.1731879339
1.7350000000	4.8862690515
1.7400000000	5.5444452463
1.7450000000	6.3739077868
1.7500000000	7.6455193873
1.7550000000	9.5528611526
1.7600000000	12.4145231972
1.7650000000	16.8293554126
1.7700000000	23.9411535127
1.7750000000	35.9194707469
1.7800000000	56.3205472640
1.7850000000	86.3836229490
1.7900000000	107.2799767556
1.7950000000	91.2777252188
1.8000000000	60.6890749756
1.8050000000	38.2818143107
1.8100000000	25.2049405115
1.8150000000	17.5421855632
1.8200000000	12.8267891605
1.8250000000	9.7692486016
1.8300000000	7.6921566461
1.8350000000	6.2244801186
1.8400000000	5.1532589789
1.8450000000	4.3491455747
1.8500000000	3.7305377978
1.8550000000	3.2462728456
1.8600000000	2.8603640760
1.8650000000	2.5480760997
1.8700000000	2.2913855047
1.8750000000	2.0764674480
1.8800000000	1.8915548638
1.8850000000	1.7251757984
1.8900000000	1.5631324545
1.8950000000	1.3839178235
1.9000000000	1.1510898829
1.9050000000	0.7457279403
1.9100000000	0.1636226180
1.9150000000	-0.3967402190
1.9200000000	0.2805436953
1.9250000000	2.9891907421
1.9300000000	5.1529381613
1.9350000000	5.2013665129
1.9400000000	4.1754112764
1.9450000000	3.1645636919
1.9500000000	2.4481023996
1.9550000000	1.9741923163
1.9600000000	1.6583821591
1.9650000000	1.4479468533
1.9700000000	1.2930363340
1.9750000000	1.1794427928
1.9800000000	1.0932267766
1.9850000000	1.0243918553
1.9900000000	0.9654970897
1.9950000000	0.9102350265
2.0000000000	0.8574716940
2.0050000000	0.8260992799
2.0100000000	0.8471897462
2.0150000000	0.9021906058
2.0200000000	0.9393580981
2.0250000000	0.9555234914
2.0300000000	0.9678587943
2.0350000000	0.9843096577
2.0400000000	1.0087423381
2.0450000000	1.0427995074
2.0500000000	1.0881518908
2.0550000000	1.1464608875
2.0600000000	1.2178208575
2.0650000000	1.2965297386
2.0700000000	1.3683950819
2.0750000000	1.4223324580
2.0800000000	1.4665785438
2.0850000000	1.5190355809
2.0900000000	1.5910886310
2.0950000000	1.6866810469
2.1000000000	1.8088278159
2.1050000000	1.9556830832
2.1100000000	2.1374792469
2.1150000000	2.3615489425
2.1200000000	2.6384405423
2.1250000000	2.9831215216
2.1300000000	3.4168007250
2.1350000000	3.9698232256
2.1400000000	4.6860165461
2.1450000000	5.6294432959
2.1500000000	6.8933931478
2.1550000000	8.6098147164
2.1600000000	10.9475263039
2.1650000000	14.0495894433
2.1700000000	17.8614550007
2.1750000000	21.6624459950
2.1800000000	24.0494304640
2.1850000000	24.2729633398
2.1900000000	23.3664339390
2.1950000000	22.7232504080
2.2000000000	22.4984203935
2.2050000000	21.4410612133
2.2100000000	19.0159448868
2.2150000000	15.9646434878
2.2200000000	13.1893161921
2.2250000000	10.9405203562
2.2300000000	9.0944758074
2.2350000000	7.5496083396
2.2400000000	6.2812175368
2.2450000000	5.2796904565
2.2500000000	4.5035619902
2.2550000000	3.9028786099
2.2600000000	3.4314045342
2.2650000000	3.0474671609
2.2700000000	2.7116215345
2.2750000000	2.3905357597
2.2800000000	2.0764739136
2.2850000000	1.8077848684
2.2900000000	1.6497801025
2.2950000000	1.6317297650
2.3000000000	1.7032072167
2.3050000000	1.7785244627
2.3100000000	1.8051513228
2.3150000000	1.7847434112
2.3200000000	1.7400155952
2.3250000000	1.6943129683
2.3300000000	1.6600286876
2.3350000000	1.6407811905
2.3400000000	1.6338479381
2.3450000000	1.6313085156
2.3500000000	1.6229605884
2.3550000000	1.6022866785
2.3600000000	1.5710899023
2.3650000000	1.5373200471
2.3700000000	1.5090570901
2.3750000000	1.4907917186
2.3800000000	1.4832443497
2.3850000000	1.4846099109
2.3900000000	1.4925826248
2.3950000000	1.5049533387
2.4000000000	1.5228224740
2.4050000000	1.5508594420
2.4100000000	1.5910511647
2.4150000000	1.6461385668
2.4200000000	1.7180105686
2.4250000000	1.8086926987
2.4300000000	1.9206700825
2.4350000000	2.0571287406
2.4400000000	2.2221692752
2.4450000000	2.4210499774
2.4500000000	2.6604354742
2.4550000000	2.9487337662
2.4600000000	3.2962855702
2.4650000000	3.7155550318
2.4700000000	4.2208874161
2.4750000000	4.8267461113
2.4800000000	5.5483969884
2.4850000000	6.3921825061
2.4900000000	7.3502017315
2.4950000000	8.3875120364
2.5000000000	9.4286669423
2.5050000000	10.3936542310
2.5100000000	11.0263943391
2.5150000000	11.1832394186
2.5200000000	10.8401764496
2.5250000000	10.1036055629
2.5300000000	9.1425930342
2.5350000000	8.1105152676
2.5400000000	7.1085918998
2.5450000000	6.1896423422
2.5500000000	5.3749356078
2.5550000000	4.6681246556
2.5600000000	4.0591270289
2.5650000000	3.5457251850
2.5700000000	3.1170181751
2.5750000000	2.7664190659
2.5800000000	2.4888918723
2.5850000000	2.2784947357
2.5900000000	2.1248381375
2.5950000000	2.0130107026
2.6000000000	1.9274259096
2.6050000000	1.8663580880
2.6100000000	1.8122161560
2.6150000000	1.7642735846
2.6200000000	1.7236555466
2.6250000000	1.6915152741
2.6300000000	1.6685922131
2.6350000000	1.6552402391
2.6400000000	1.6516463096
2.6450000000	1.6580001928
2.6500000000	1.6746917359
2.6550000000	1.7018084185
2.6600000000	1.7399455127
2.6650000000	1.7896691643
2.6700000000	1.8516466550
2.6750000000	1.9266577296
2.6800000000	2.0155358276
2.6850000000	2.1191351225
2.6900000000	2.2382109482
2.6950000000	2.3733413885
2.7000000000	2.5247396643
2.7050000000	2.7101208442
2.7100000000	2.9153913989
2.7150000000	3.1380461309
2.7200000000	3.3738758955
2.7250000000	3.6168947366
2.7300000000	3.8593540519
2.7350000000	4.0917690489
2.7400000000	4.3028566298
2.7450000000	4.4813575390
2.7500000000	4.6105530477
2.7550000000	4.6793768181
2.7600000000	4.6794715838
2.7650000000	4.6089973783
2.7700000000	4.4735674636
2.7750000000	4.2853014962
2.7800000000	4.0601947124
2.7850000000	3.8152596771
2.7900000000	3.5657374393
2.7950000000	3.3238440246
2.8000000000	3.0982229647
2.8050000000	2.8690528475
2.8100000000	2.6717769161
2.8150000000	2.5059532313
2.8200000000	2.3689907240
2.8250000000	2.2574450977
2.8300000000	2.1678425183
2.8350000000	2.0972255143
2.8400000000	2.0424487283
2.8450000000	2.0037027839
2.8500000000	1.9786774549
2.8550000000	1.9664988347
2.8600000000	1.9665225736
2.8650000000	1.9782027572
2.8700000000	2.0010062048
2.8750000000	2.0343242445
2.8800000000	2.0774141905
2.8850000000	2.1293340018
2.8900000000	2.1889586433
2.8950000000	2.2549565544
2.9000000000	2.3258611923
2.9050000000	2.4155252061
2.9100000000	2.5051373054
2.9150000000	2.5914979029
2.9200000000	2.6709328702
2.9250000000	2.7392032406
2.9300000000	2.7923594091
2.9350000000	2.8248639734
2.9400000000	2.8340769925
2.9450000000	2.8187092576
2.9500000000	2.7798149964
2.9550000000	2.7207012367
2.9600000000	2.6462872466
2.9650000000	2.5622369226
2.9700000000	2.4740890794
2.9750000000	2.3866203573
2.9800000000	2.3035242311
2.9850000000	2.2273531409
2.9900000000	2.1596793691
2.9950000000	2.1012659886
3.0000000000	2.0523339136
