# energy (eV)    P(omega), $W$ = 300 nm, $h$ = 300 nm, $s$ = 20 nm, $d/W = 5$, $E_{\rm e}$ = 200 keV
0.2000000000	0.0582786157
0.2050000000	0.0591519266
0.2100000000	0.0599684877
0.2150000000	0.0607301485
0.2200000000	0.0614384852
0.2250000000	0.0620948374
0.2300000000	0.0627002277
0.2350000000	0.0632553339
0.2400000000	0.0637604109
0.2450000000	0.0642152649
0.2500000000	0.0646191456
0.2550000000	0.0649706212
0.2600000000	0.0652675446
0.2650000000	0.0655067965
0.2700000000	0.0656841532
0.2750000000	0.0657940166
0.2800000000	0.0658291204
0.2850000000	0.0657801228
0.2900000000	0.0656350574
0.2950000000	0.0653787416
0.3000000000	0.0649917802
0.3050000000	0.0644494592
0.3100000000	0.0637201376
0.3150000000	0.0673422637
0.3200000000	0.0716440031
0.3250000000	0.0770848307
0.3300000000	0.0843712631
0.3350000000	0.0934410071
0.3400000000	0.1053179750
0.3450000000	0.1197235764
0.3500000000	0.1385683533
0.3550000000	0.1635030120
0.3600000000	0.1960594440
0.3650000000	0.2414458160
0.3700000000	0.3012896388
0.3750000000	0.3845329607
0.3800000000	0.5049242069
0.3850000000	0.6925137480
0.3900000000	0.9888588875
0.3950000000	1.4922287416
0.4000000000	2.4518182163
0.4050000000	4.6031704740
0.4100000000	10.4733376040
0.4150000000	33.6111325271
0.4200000000	21.4152775898
0.4250000000	-40.3085783764
0.4300000000	11.2085665138
0.4350000000	6.9846103933
0.4400000000	4.2696211375
0.4450000000	2.8081872034
0.4500000000	1.9668835649
0.4550000000	1.4491551376
0.4600000000	1.1119642395
0.4650000000	0.8821895770
0.4700000000	0.7197894491
0.4750000000	0.6023382666
0.4800000000	0.5152578507
0.4850000000	0.4497317951
0.4900000000	0.3997135698
0.4950000000	0.3611441499
0.5000000000	0.3312490569
0.5050000000	0.3079926959
0.5100000000	0.2900642654
0.5150000000	0.2764987305
0.5200000000	0.2662875214
0.5250000000	0.2589760982
0.5300000000	0.2540766789
0.5350000000	0.2512325073
0.5400000000	0.2501805640
0.5450000000	0.2507011278
0.5500000000	0.2527246218
0.5550000000	0.2561271731
0.5600000000	0.2608454543
0.5650000000	0.2668509996
0.5700000000	0.2741178632
0.5750000000	0.2826968048
0.5800000000	0.2926703460
0.5850000000	0.3040923176
0.5900000000	0.3170670799
0.5950000000	0.3317259400
0.6000000000	0.3482361608
0.6050000000	0.3668402094
0.6100000000	0.3877693918
0.6150000000	0.4113397465
0.6200000000	0.4379728523
0.6250000000	0.4680729027
0.6300000000	0.5022373377
0.6350000000	0.5412107818
0.6400000000	0.5857680090
0.6450000000	0.6370273838
0.6500000000	0.6964593426
0.6550000000	0.7655945628
0.6600000000	0.8467856360
0.6650000000	0.9430511981
0.6700000000	1.0579400798
0.6750000000	1.1968640078
0.6800000000	1.3671005759
0.6850000000	1.5781833985
0.6900000000	1.8448782971
0.6950000000	2.1878364655
0.7000000000	2.6398622642
0.7050000000	3.2511050407
0.7100000000	4.1065366346
0.7150000000	5.3574166014
0.7200000000	7.2853436857
0.7250000000	10.4855750398
0.7300000000	16.3596350404
0.7350000000	28.9284246527
0.7400000000	63.3986906295
0.7450000000	210.3241244926
0.7500000000	651.5856665846
0.7550000000	163.9206123152
0.7600000000	54.2867568077
0.7650000000	26.0111407706
0.7700000000	15.1271605876
0.7750000000	9.8730775310
0.7800000000	6.9481052477
0.7850000000	5.1603645403
0.7900000000	3.9868049965
0.7950000000	3.1774269849
0.8000000000	2.5955944537
0.8050000000	2.1622588328
0.8100000000	1.8318161636
0.8150000000	1.5698688803
0.8200000000	1.3631327304
0.8250000000	1.1966711787
0.8300000000	1.0603130435
0.8350000000	0.9482014449
0.8400000000	0.8542192305
0.8450000000	0.7753559742
0.8500000000	0.7086938102
0.8550000000	0.6511671426
0.8600000000	0.6020585629
0.8650000000	0.5601115959
0.8700000000	0.5230479925
0.8750000000	0.4915201914
0.8800000000	0.4647682876
0.8850000000	0.4407837264
0.8900000000	0.4215443210
0.8950000000	0.4040423769
0.9000000000	0.3901717911
0.9050000000	0.3806200686
0.9100000000	0.3718668864
0.9150000000	0.3665587160
0.9200000000	0.3659230465
0.9250000000	0.3654524118
0.9300000000	0.3600945140
0.9350000000	0.3440097287
0.9400000000	0.2543887403
0.9450000000	-0.1529758430
0.9500000000	-2.3028258048
0.9550000000	-13.2072651868
0.9600000000	3.1164526382
0.9650000000	5.4745318826
0.9700000000	2.4281670621
0.9750000000	1.2747295932
0.9800000000	0.7988894124
0.9850000000	0.5763374733
0.9900000000	0.4481075506
0.9950000000	0.3703519145
1.0000000000	0.3207047282
1.0050000000	0.2892297833
1.0100000000	0.2648287571
1.0150000000	0.2470022398
1.0200000000	0.2349952211
1.0250000000	0.2249169337
1.0300000000	0.2172605670
1.0350000000	0.2114684974
1.0400000000	0.2077861300
1.0450000000	0.2047240307
1.0500000000	0.2027039427
1.0550000000	0.2016062616
1.0600000000	0.2017013175
1.0650000000	0.2022366959
1.0700000000	0.2035191405
1.0750000000	0.2055539869
1.0800000000	0.2085425050
1.0850000000	0.2123350267
1.0900000000	0.2179296885
1.0950000000	0.2245737106
1.1000000000	0.2324900704
1.1050000000	0.2416137771
1.1100000000	0.2522330915
1.1150000000	0.2645867673
1.1200000000	0.2789579256
1.1250000000	0.2957163021
1.1300000000	0.3153575474
1.1350000000	0.3384985623
1.1400000000	0.3658419353
1.1450000000	0.3986700712
1.1500000000	0.4383776194
1.1550000000	0.4869807211
1.1600000000	0.5473237858
1.1650000000	0.6230976756
1.1700000000	0.7212161134
1.1750000000	0.8508575048
1.1800000000	1.0271950676
1.1850000000	1.2751698381
1.1900000000	1.6417873868
1.1950000000	2.2173010673
1.2000000000	3.1934523038
1.2050000000	5.0381191905
1.2100000000	9.0960219111
1.2150000000	20.0645331140
1.2200000000	49.2424962458
1.2250000000	44.2417966910
1.2300000000	17.6481494737
1.2350000000	8.2775205790
1.2400000000	4.7281540516
1.2450000000	3.0984752230
1.2500000000	2.2387684070
1.2550000000	1.7426324916
1.2600000000	1.4407531159
1.2650000000	1.2516883948
1.2700000000	1.1389888553
1.2750000000	1.0790218885
1.2800000000	1.0605412048
1.2850000000	1.0786393303
1.2900000000	1.1329291607
1.2950000000	1.2262362341
1.3000000000	1.3700751490
1.3050000000	1.5792132745
1.3100000000	1.8811768198
1.3150000000	2.3235912293
1.3200000000	2.9920723032
1.3250000000	4.0498036771
1.3300000000	5.8541691415
1.3350000000	9.2337675424
1.3400000000	16.4569530183
1.3450000000	34.3886685711
1.3500000000	72.9815461765
1.3550000000	68.0661253866
1.3600000000	31.3886411402
1.3650000000	15.4224026963
1.3700000000	8.8445697277
1.3750000000	5.6878587325
1.3800000000	3.9666474579
1.3850000000	2.9298086963
1.3900000000	2.2615550202
1.3950000000	1.8056275507
1.4000000000	1.4813203043
1.4050000000	1.2431286765
1.4100000000	1.0634942249
1.4150000000	0.9259563251
1.4200000000	0.8189066004
1.4250000000	0.7392754786
1.4300000000	0.6886838704
1.4350000000	0.6553571885
1.4400000000	0.4507796666
1.4450000000	-0.1160872026
1.4500000000	-1.1022461925
1.4550000000	-0.3681242387
1.4600000000	1.1217514311
1.4650000000	0.6496657755
1.4700000000	-0.4152582271
1.4750000000	-2.1001740294
1.4800000000	-0.9266047677
1.4850000000	1.5873263979
1.4900000000	1.2849897068
1.4950000000	0.8336842647
1.5000000000	0.5869483590
1.5050000000	0.4533785674
1.5100000000	0.3769192971
1.5150000000	0.3300405306
1.5200000000	0.2993353699
1.5250000000	0.2798456517
1.5300000000	0.2644868824
1.5350000000	0.2533290656
1.5400000000	0.2452453738
1.5450000000	0.2395638068
1.5500000000	0.2358196080
1.5550000000	0.2338189518
1.5600000000	0.2339615157
1.5650000000	0.2354386735
1.5700000000	0.2391115425
1.5750000000	0.2456556692
1.5800000000	0.2564169306
1.5850000000	0.2740457970
1.5900000000	0.3041496883
1.5950000000	0.3591252780
1.6000000000	0.4650991929
1.6050000000	0.6390310712
1.6100000000	0.7201587434
1.6150000000	0.5736056724
1.6200000000	0.4377134967
1.6250000000	0.3686553932
1.6300000000	0.3369832739
1.6350000000	0.3239568575
1.6400000000	0.3210876755
1.6450000000	0.3244933455
1.6500000000	0.3322843307
1.6550000000	0.3436855193
1.6600000000	0.3583022230
1.6650000000	0.3760822823
1.6700000000	0.3971740023
1.6750000000	0.4218818913
1.6800000000	0.4506508020
1.6850000000	0.4840744107
1.6900000000	0.5228423774
1.6950000000	0.5673545619
1.7000000000	0.6185914691
1.7050000000	0.6778689962
1.7100000000	0.7497154094
1.7150000000	0.8705051289
1.7200000000	1.0529579687
1.7250000000	1.2501430134
1.7300000000	1.4845856450
1.7350000000	1.7382485418
1.7400000000	1.9724528964
1.7450000000	2.2676292416
1.7500000000	2.7201078696
1.7550000000	3.3987659057
1.7600000000	4.4169674043
1.7650000000	5.9877933556
1.7700000000	8.5182210597
1.7750000000	12.7802098725
1.7800000000	20.0391306010
1.7850000000	30.7359954946
1.7900000000	38.1714195634
1.7950000000	32.4779169739
1.8000000000	21.5942249343
1.8050000000	13.6214516513
1.8100000000	8.9685129760
1.8150000000	6.2419802687
1.8200000000	4.5641591415
1.8250000000	3.4762284866
1.8300000000	2.7371579761
1.8350000000	2.2149288269
1.8400000000	1.8337664675
1.8450000000	1.5476472195
1.8500000000	1.3275356742
1.8550000000	1.1552272062
1.8600000000	1.0179176162
1.8650000000	0.9068058544
1.8700000000	0.8154792663
1.8750000000	0.7390194821
1.8800000000	0.6732405840
1.8850000000	0.6140620533
1.8900000000	0.5564343597
1.8950000000	0.4927082316
1.9000000000	0.4099222220
1.9050000000	0.2657752082
1.9100000000	0.0587845315
1.9150000000	-0.1403890149
1.9200000000	0.1009718643
1.9250000000	1.0653160097
1.9300000000	1.8356628148
1.9350000000	1.8527997673
1.9400000000	1.4872699054
1.9450000000	1.1271349016
1.9500000000	0.8718863912
1.9550000000	0.7030538498
1.9600000000	0.5905475205
1.9650000000	0.5155797831
1.9700000000	0.4603957362
1.9750000000	0.4199302864
1.9800000000	0.3892171878
1.9850000000	0.3646949632
1.9900000000	0.3437123782
1.9950000000	0.3240219693
2.0000000000	0.3052199393
2.0050000000	0.2940387763
2.0100000000	0.3015538754
2.0150000000	0.3211524516
2.0200000000	0.3343919545
2.0250000000	0.3401428924
2.0300000000	0.3445249688
2.0350000000	0.3503697734
2.0400000000	0.3590537029
2.0450000000	0.3711602923
2.0500000000	0.3872824093
2.0550000000	0.4080095811
2.0600000000	0.4333755979
2.0650000000	0.4613578470
2.0700000000	0.4869213519
2.0750000000	0.5061344891
2.0800000000	0.5219215594
2.0850000000	0.5406367487
2.0900000000	0.5663222883
2.0950000000	0.6003800575
2.1000000000	0.6438849558
2.1050000000	0.6961822404
2.1100000000	0.7609155587
2.1150000000	0.8406968177
2.1200000000	0.9392820874
2.1250000000	1.0620009008
2.1300000000	1.2164044689
2.1350000000	1.4132969693
2.1400000000	1.6682824779
2.1450000000	2.0041693025
2.1500000000	2.4541720928
2.1550000000	3.0652692325
2.1600000000	3.8975668857
2.1650000000	5.0020028407
2.1700000000	6.3591617423
2.1750000000	7.7124643798
2.1800000000	8.5623512831
2.1850000000	8.6419803525
2.1900000000	8.3192598952
2.1950000000	8.0902957474
2.2000000000	8.0103008890
2.2050000000	7.6339571248
2.2100000000	6.7707072129
2.2150000000	5.6845470309
2.2200000000	4.6966284463
2.2250000000	3.8960992321
2.2300000000	3.2388487336
2.2350000000	2.6887356094
2.2400000000	2.2370248998
2.2450000000	1.8803369132
2.2500000000	1.6039243351
2.2550000000	1.3900021739
2.2600000000	1.2221045919
2.2650000000	1.0853880971
2.2700000000	0.9658006471
2.2750000000	0.8514652874
2.2800000000	0.7396208698
2.2850000000	0.6439217726
2.2900000000	0.5876293751
2.2950000000	0.5811732339
2.3000000000	0.6066018284
2.3050000000	0.6334026394
2.3100000000	0.6428702870
2.3150000000	0.6355924341
2.3200000000	0.6196563151
2.3250000000	0.6033739852
2.3300000000	0.5911582362
2.3350000000	0.5842971608
2.3400000000	0.5818213711
2.3450000000	0.5809107689
2.3500000000	0.5779329367
2.3550000000	0.5705673773
2.3600000000	0.5594560760
2.3650000000	0.5474295226
2.3700000000	0.5373646422
2.3750000000	0.5308605127
2.3800000000	0.5281739632
2.3850000000	0.5286627822
2.3900000000	0.5315066247
2.3950000000	0.5359192258
2.4000000000	0.5422921057
2.4050000000	0.5522878286
2.4100000000	0.5666126888
2.4150000000	0.5862422245
2.4200000000	0.6118492141
2.4250000000	0.6441550721
2.4300000000	0.6840451866
2.4350000000	0.7326546708
2.4400000000	0.7914443394
2.4450000000	0.8622873067
2.4500000000	0.9475575644
2.4550000000	1.0502505105
2.4600000000	1.1740492256
2.4650000000	1.3233939063
2.4700000000	1.5033938514
2.4750000000	1.7192008600
2.4800000000	1.9762514561
2.4850000000	2.2768034575
2.4900000000	2.6180405589
2.4950000000	2.9875147166
2.5000000000	3.3583526598
2.5050000000	3.7020557713
2.5100000000	3.9274194481
2.5150000000	3.9832829656
2.5200000000	3.8610938546
2.5250000000	3.5987475016
2.5300000000	3.2564594566
2.5350000000	2.8888580920
2.5400000000	2.5319956982
2.5450000000	2.2046856744
2.5500000000	1.9145039454
2.5550000000	1.6627516918
2.5600000000	1.4458378277
2.5650000000	1.2629726890
2.5700000000	1.1102736158
2.5750000000	0.9853946574
2.5800000000	0.8865424319
2.5850000000	0.8116006569
2.5900000000	0.7568689175
2.5950000000	0.7170361053
2.6000000000	0.6865504155
2.6050000000	0.6647973088
2.6100000000	0.6455110665
2.6150000000	0.6284330190
2.6200000000	0.6139641135
2.6250000000	0.6025154247
2.6300000000	0.5943505912
2.6350000000	0.5895960104
2.6400000000	0.5883182307
2.6450000000	0.5905847919
2.6500000000	0.5965344831
2.6550000000	0.6061982951
2.6600000000	0.6197883308
2.6650000000	0.6375063587
2.6700000000	0.6595900376
2.6750000000	0.6863172796
2.6800000000	0.7179852142
2.6850000000	0.7548979222
2.6900000000	0.7973244072
2.6950000000	0.8454705691
2.7000000000	0.8994120648
2.7050000000	0.9654604340
2.7100000000	1.0385940437
2.7150000000	1.1179204098
2.7200000000	1.2019398317
2.7250000000	1.2885196997
2.7300000000	1.3748994923
2.7350000000	1.4577004040
2.7400000000	1.5329030998
2.7450000000	1.5964968285
2.7500000000	1.6425257515
2.7550000000	1.6670474787
2.7600000000	1.6670847341
2.7650000000	1.6419817448
2.7700000000	1.5937379532
2.7750000000	1.5266706729
2.7800000000	1.4464780419
2.7850000000	1.3592207251
2.7900000000	1.2703284004
2.7950000000	1.1841531972
2.8000000000	1.1037745869
2.8050000000	1.0221304176
2.8100000000	0.9518484757
2.8150000000	0.8927714956
2.8200000000	0.8439766313
2.8250000000	0.8042369475
2.8300000000	0.7723149194
2.8350000000	0.7471571591
2.8400000000	0.7276431075
2.8450000000	0.7138409812
2.8500000000	0.7049275641
2.8550000000	0.7005915894
2.8600000000	0.7006035529
2.8650000000	0.7047686498
2.8700000000	0.7128970254
2.8750000000	0.7247718077
2.8800000000	0.7401281082
2.8850000000	0.7586302757
2.8900000000	0.7798777347
2.8950000000	0.8033956733
2.9000000000	0.8286619060
2.9050000000	0.8606118753
2.9100000000	0.8925432428
2.9150000000	0.9233159118
2.9200000000	0.9516210011
2.9250000000	0.9759480747
2.9300000000	0.9948901877
2.9350000000	1.0064739634
2.9400000000	1.0097591054
2.9450000000	1.0042861497
2.9500000000	0.9904303849
2.9550000000	0.9693702553
2.9600000000	0.9428584204
2.9650000000	0.9129127259
2.9700000000	0.8815069537
2.9750000000	0.8503429456
2.9800000000	0.8207367227
2.9850000000	0.7935977864
2.9900000000	0.7694865955
2.9950000000	0.7486748737
3.0000000000	0.7312414291
