# energy (eV)    P(omega), $W$ = 300 nm, $h$ = 300 nm, $s$ = 20 nm, $d/W = 5$, $E_{\rm e}$ = 200 keV
0.2000000000	0.0689813700
0.2050000000	0.0700150754
0.2100000000	0.0709816219
0.2150000000	0.0718831978
0.2200000000	0.0727216679
0.2250000000	0.0734986175
0.2300000000	0.0742152560
0.2350000000	0.0748723855
0.2400000000	0.0754703070
0.2450000000	0.0760087907
0.2500000000	0.0764869481
0.2550000000	0.0769030842
0.2600000000	0.0772546573
0.2650000000	0.0775379749
0.2700000000	0.0777480375
0.2750000000	0.0778782187
0.2800000000	0.0779199176
0.2850000000	0.0778620770
0.2900000000	0.0776905328
0.2950000000	0.0773873142
0.3000000000	0.0769294644
0.3050000000	0.0762877308
0.3100000000	0.0754246620
0.3150000000	0.0797119392
0.3200000000	0.0848036296
0.3250000000	0.0912435741
0.3300000000	0.0998680194
0.3350000000	0.1106032522
0.3400000000	0.1246612017
0.3450000000	0.1417121501
0.3500000000	0.1640174705
0.3550000000	0.1935310104
0.3600000000	0.2320660047
0.3650000000	0.2857870418
0.3700000000	0.3566206021
0.3750000000	0.4551508997
0.3800000000	0.5976512467
0.3850000000	0.8196907096
0.3900000000	1.1704587447
0.3950000000	1.7662718447
0.4000000000	2.9020902713
0.4050000000	5.4485425637
0.4100000000	12.3967874640
0.4150000000	39.7839638205
0.4200000000	25.3482760868
0.4250000000	-47.7116246667
0.4300000000	13.2671682817
0.4350000000	8.2674465927
0.4400000000	5.0538192564
0.4450000000	3.3239741737
0.4500000000	2.3281529913
0.4550000000	1.7153355241
0.4600000000	1.3162137254
0.4650000000	1.0442367116
0.4700000000	0.8520086405
0.4750000000	0.7129851711
0.4800000000	0.6099106322
0.4850000000	0.5323493559
0.4900000000	0.4731442694
0.4950000000	0.4274908395
0.5000000000	0.3921050083
0.5050000000	0.3645773061
0.5100000000	0.3433561813
0.5150000000	0.3272993584
0.5200000000	0.3152130164
0.5250000000	0.3065591385
0.5300000000	0.3007603504
0.5350000000	0.2973943737
0.5400000000	0.2961498833
0.5450000000	0.2967668027
0.5500000000	0.2991627863
0.5550000000	0.3031912129
0.5600000000	0.3087771313
0.5650000000	0.3158868545
0.5700000000	0.3244896816
0.5750000000	0.3346457066
0.5800000000	0.3464526248
0.5850000000	0.3599741695
0.5900000000	0.3753338878
0.5950000000	0.3926872255
0.6000000000	0.4122321946
0.6050000000	0.4342558286
0.6100000000	0.4590319543
0.6150000000	0.4869347026
0.6200000000	0.5184631435
0.6250000000	0.5540957670
0.6300000000	0.5945398295
0.6350000000	0.6406768250
0.6400000000	0.6934239423
0.6450000000	0.7541051120
0.6500000000	0.8244610533
0.6550000000	0.9063038033
0.6600000000	1.0024183826
0.6650000000	1.1163782955
0.6700000000	1.2523846899
0.6750000000	1.4168440452
0.6800000000	1.6183716576
0.6850000000	1.8682535581
0.6900000000	2.1839697271
0.6950000000	2.5899673523
0.7000000000	3.1250807007
0.7050000000	3.8486773265
0.7100000000	4.8613481896
0.7150000000	6.3421567035
0.7200000000	8.6244639652
0.7250000000	12.4129451116
0.7300000000	19.3667480710
0.7350000000	34.2458841730
0.7400000000	75.0523664732
0.7450000000	248.9852907649
0.7500000000	771.3591212428
0.7550000000	194.0524619370
0.7600000000	64.2658085226
0.7650000000	30.7925718694
0.7700000000	17.9078919497
0.7750000000	11.6879965187
0.7800000000	8.2253500858
0.7850000000	6.1089821863
0.7900000000	4.7196950684
0.7950000000	3.7615340160
0.8000000000	3.0727463764
0.8050000000	2.5597527585
0.8100000000	2.1685662026
0.8150000000	1.8584660549
0.8200000000	1.6137262050
0.8250000000	1.4166644151
0.8300000000	1.2552398099
0.8350000000	1.1225188873
0.8400000000	1.0112599998
0.8450000000	0.9178993478
0.8500000000	0.8389826927
0.8550000000	0.7708808809
0.8600000000	0.7127446504
0.8650000000	0.6630865601
0.8700000000	0.6192095270
0.8750000000	0.5818859667
0.8800000000	0.5502162849
0.8850000000	0.5218226606
0.8900000000	0.4990465575
0.8950000000	0.4783273043
0.9000000000	0.4619070228
0.9050000000	0.4505996411
0.9100000000	0.4402375869
0.9150000000	0.4339539327
0.9200000000	0.4332018764
0.9250000000	0.4326451746
0.9300000000	0.4263025335
0.9350000000	0.4072605096
0.9400000000	0.3011605423
0.9450000000	-0.1811095733
0.9500000000	-2.7262740269
0.9550000000	-15.6358347220
0.9600000000	3.6895111254
0.9650000000	6.4812053752
0.9700000000	2.8746671589
0.9750000000	1.5091315291
0.9800000000	0.9457918460
0.9850000000	0.6823160423
0.9900000000	0.5305065456
0.9950000000	0.4384527826
1.0000000000	0.3796762020
1.0050000000	0.3424134998
1.0100000000	0.3135254765
1.0150000000	0.2924209179
1.0200000000	0.2782059986
1.0250000000	0.2662744516
1.0300000000	0.2572101764
1.0350000000	0.2503530073
1.0400000000	0.2459934918
1.0450000000	0.2423682782
1.0500000000	0.2399766755
1.0550000000	0.2386770848
1.0600000000	0.2387895559
1.0650000000	0.2394232902
1.0700000000	0.2409414461
1.0750000000	0.2433503414
1.0800000000	0.2468882603
1.0850000000	0.2513779825
1.0900000000	0.2580011656
1.0950000000	0.2658666300
1.1000000000	0.2752383530
1.1050000000	0.2860393658
1.1100000000	0.2986109338
1.1150000000	0.3132357000
1.1200000000	0.3302488427
1.1250000000	0.3500880355
1.1300000000	0.3733400558
1.1350000000	0.4007352052
1.1400000000	0.4331052366
1.1450000000	0.4719682636
1.1500000000	0.5189753171
1.1550000000	0.5765131498
1.1600000000	0.6479490385
1.1650000000	0.7376523240
1.1700000000	0.8538075929
1.1750000000	1.0072804656
1.1800000000	1.2160333269
1.1850000000	1.5095919484
1.1900000000	1.9436026397
1.1950000000	2.6249093271
1.2000000000	3.7805000294
1.2050000000	5.9642599690
1.2100000000	10.7681014182
1.2150000000	23.7528914217
1.2200000000	58.2945030837
1.2250000000	52.3746148401
1.2300000000	20.8923989447
1.2350000000	9.7992096191
1.2400000000	5.5973786482
1.2450000000	3.6681246362
1.2500000000	2.6503846469
1.2550000000	2.0630505782
1.2600000000	1.7056837649
1.2650000000	1.4818712808
1.2700000000	1.3484637057
1.2750000000	1.2774844288
1.2800000000	1.2556203631
1.2850000000	1.2770626616
1.2900000000	1.3413541857
1.2950000000	1.4518412702
1.3000000000	1.6221579055
1.3050000000	1.8697896568
1.3100000000	2.2273286891
1.3150000000	2.7511653033
1.3200000000	3.5426715057
1.3250000000	4.7950624057
1.3300000000	6.9314919958
1.3350000000	10.9330490020
1.3400000000	19.4855406336
1.3450000000	40.7172912359
1.3500000000	86.4125666107
1.3550000000	80.5925834443
1.3600000000	37.1652169020
1.3650000000	18.2606494545
1.3700000000	10.4722705101
1.3750000000	6.7346163675
1.3800000000	4.6966430027
1.3850000000	3.4689902873
1.3900000000	2.6777551583
1.3950000000	2.1379216201
1.4000000000	1.7539311691
1.4050000000	1.4719048005
1.4100000000	1.2592125589
1.4150000000	1.0963648526
1.4200000000	0.9696176094
1.4250000000	0.8753379194
1.4300000000	0.8154490900
1.4350000000	0.7760138462
1.4400000000	0.5338087647
1.4450000000	-0.1373452065
1.4500000000	-1.3048949413
1.4550000000	-0.4357762823
1.4600000000	1.3280865372
1.4650000000	0.7691378370
1.4700000000	-0.4917456959
1.4750000000	-2.4867505897
1.4800000000	-1.0971731021
1.4850000000	1.8794570635
1.4900000000	1.5214785969
1.4950000000	0.9871115734
1.5000000000	0.6949646834
1.5050000000	0.5368119706
1.5100000000	0.4462806756
1.5150000000	0.3907740388
1.5200000000	0.3544176305
1.5250000000	0.3313406915
1.5300000000	0.3131549332
1.5350000000	0.2999431698
1.5400000000	0.2903711608
1.5450000000	0.2836431942
1.5500000000	0.2792089075
1.5550000000	0.2768387291
1.5600000000	0.2770057606
1.5650000000	0.2787523750
1.5700000000	0.2830978430
1.5750000000	0.2908414960
1.5800000000	0.3035759262
1.5850000000	0.3244375172
1.5900000000	0.3600617598
1.5950000000	0.4251182230
1.6000000000	0.5505240540
1.6050000000	0.7563499696
1.6100000000	0.8523599533
1.6150000000	0.6789438732
1.6200000000	0.5181410743
1.6250000000	0.4364261017
1.6300000000	0.3989524423
1.6350000000	0.3835440283
1.6400000000	0.3801561301
1.6450000000	0.3841946235
1.6500000000	0.3934235949
1.6550000000	0.4069260323
1.6600000000	0.4242350197
1.6650000000	0.4452890477
1.6700000000	0.4702638723
1.6750000000	0.4995201466
1.6800000000	0.5335846501
1.6850000000	0.5731603724
1.6900000000	0.6190639020
1.6950000000	0.6717686489
1.7000000000	0.7324355111
1.7050000000	0.8026223632
1.7100000000	0.8876913741
1.7150000000	1.0307150345
1.7200000000	1.2467532101
1.7250000000	1.4802295532
1.7300000000	1.7578175092
1.7350000000	2.0581647874
1.7400000000	2.3354773967
1.7450000000	2.6849862360
1.7500000000	3.2207487738
1.7550000000	4.0243194059
1.7600000000	5.2299281303
1.7650000000	7.0898753710
1.7700000000	10.0860458643
1.7750000000	15.1324845273
1.7800000000	23.7274647329
1.7850000000	36.3931753094
1.7900000000	45.1971634130
1.7950000000	38.4557456813
1.8000000000	25.5688324081
1.8050000000	16.1286077586
1.8100000000	10.6192574055
1.8150000000	7.3908829710
1.8200000000	5.4042440850
1.8250000000	4.1160699858
1.8300000000	3.2409667865
1.8350000000	2.6226165664
1.8400000000	2.1712978010
1.8450000000	1.8325157809
1.8500000000	1.5718908823
1.8550000000	1.3678677621
1.8600000000	1.2052855321
1.8650000000	1.0737232552
1.8700000000	0.9655880099
1.8750000000	0.8750562218
1.8800000000	0.7971716078
1.8850000000	0.7271027213
1.8900000000	0.6588708266
1.8950000000	0.5834190376
1.9000000000	0.4854007233
1.9050000000	0.3147300789
1.9100000000	0.0696529122
1.9150000000	-0.1661612003
1.9200000000	0.1196562314
1.9250000000	1.2615429626
1.9300000000	2.1737157401
1.9350000000	2.1939982739
1.9400000000	1.7611485872
1.9450000000	1.3346885309
1.9500000000	1.0324321322
1.9550000000	0.8325068780
1.9600000000	0.6992812603
1.9650000000	0.6105073058
1.9700000000	0.5451607063
1.9750000000	0.4972432552
1.9800000000	0.4608740861
1.9850000000	0.4318358105
1.9900000000	0.4069889016
1.9950000000	0.3836719575
2.0000000000	0.3614068311
2.0050000000	0.3481660646
2.0100000000	0.3570652640
2.0150000000	0.3802735370
2.0200000000	0.3959511485
2.0250000000	0.4027605339
2.0300000000	0.4079486020
2.0350000000	0.4148685078
2.0400000000	0.4251500589
2.0450000000	0.4394841342
2.0500000000	0.4585726148
2.0550000000	0.4831134237
2.0600000000	0.5131465821
2.0650000000	0.5462776113
2.0700000000	0.5765457926
2.0750000000	0.5992966742
2.0800000000	0.6179923739
2.0850000000	0.6401555780
2.0900000000	0.6705719444
2.0950000000	0.7109012985
2.1000000000	0.7624165257
2.1050000000	0.8243425047
2.1100000000	0.9009937189
2.1150000000	0.9954630075
2.1200000000	1.1121979676
2.1250000000	1.2575093383
2.1300000000	1.4403385182
2.1350000000	1.6734787533
2.1400000000	1.9754068306
2.1450000000	2.3731300607
2.1500000000	2.9059779346
2.1550000000	3.6295775753
2.1600000000	4.6151007698
2.1650000000	5.9228631416
2.1700000000	7.5298752805
2.1750000000	9.1323219630
2.1800000000	10.1386746392
2.1850000000	10.2329643307
2.1900000000	9.8508304634
2.1950000000	9.5797127524
2.2000000000	9.4849916132
2.2050000000	9.0393704699
2.2100000000	8.0172113380
2.2150000000	6.7311083869
2.2200000000	5.5613323582
2.2250000000	4.6134376463
2.2300000000	3.8351893787
2.2350000000	3.1837945287
2.2400000000	2.6489150330
2.2450000000	2.2265526200
2.2500000000	1.8992463598
2.2550000000	1.6459371183
2.2600000000	1.4471273691
2.2650000000	1.2852403898
2.2700000000	1.1436364085
2.2750000000	1.0082510079
2.2800000000	0.8758140361
2.2850000000	0.7624937159
2.2900000000	0.6958346096
2.2950000000	0.6881871398
2.3000000000	0.7182951693
2.3050000000	0.7500285162
2.3100000000	0.7612379900
2.3150000000	0.7526193106
2.3200000000	0.7337485585
2.3250000000	0.7144680530
2.3300000000	0.7000029944
2.3350000000	0.6918785758
2.3400000000	0.6889468839
2.3450000000	0.6878685300
2.3500000000	0.6843422428
2.3550000000	0.6756202396
2.3600000000	0.6624627175
2.3650000000	0.6482213621
2.3700000000	0.6363028527
2.3750000000	0.6286007382
2.3800000000	0.6254191840
2.3850000000	0.6259977926
2.3900000000	0.6293652389
2.3950000000	0.6345905248
2.4000000000	0.6421372256
2.4050000000	0.6539739734
2.4100000000	0.6709370099
2.4150000000	0.6941814334
2.4200000000	0.7245038836
2.4250000000	0.7627586002
2.4300000000	0.8099940098
2.4350000000	0.8675542539
2.4400000000	0.9371691423
2.4450000000	1.0210566981
2.4500000000	1.1220280475
2.4550000000	1.2436301653
2.4600000000	1.3902242926
2.4650000000	1.5670682357
2.4700000000	1.7802120506
2.4750000000	2.0357561409
2.4800000000	2.3401379854
2.4850000000	2.6960310414
2.4900000000	3.1001002944
2.4950000000	3.5376055264
2.5000000000	3.9767253271
2.5050000000	4.3837137765
2.5100000000	4.6505733791
2.5150000000	4.7167235023
2.5200000000	4.5720367917
2.5250000000	4.2613858775
2.5300000000	3.8560733948
2.5350000000	3.4207862866
2.5400000000	2.9982152124
2.5450000000	2.6106378052
2.5500000000	2.2670250513
2.5550000000	1.9689177598
2.5600000000	1.7120636293
2.5650000000	1.4955275803
2.5700000000	1.3147120229
2.5750000000	1.1668390447
2.5800000000	1.0497850588
2.5850000000	0.9610441162
2.5900000000	0.8962344594
2.5950000000	0.8490670639
2.6000000000	0.8129678772
2.6050000000	0.7872092248
2.6100000000	0.7643716851
2.6150000000	0.7441489634
2.6200000000	0.7270158400
2.6250000000	0.7134590975
2.6300000000	0.7037909338
2.6350000000	0.6981610412
2.6400000000	0.6966482192
2.6450000000	0.6993324412
2.6500000000	0.7063780477
2.6550000000	0.7178217273
2.6600000000	0.7339146433
2.6650000000	0.7548957251
2.6700000000	0.7810463932
2.6750000000	0.8126957439
2.6800000000	0.8501956349
2.6850000000	0.8939061288
2.6900000000	0.9441457584
2.6950000000	1.0011583306
2.7000000000	1.0650334089
2.7050000000	1.1432448112
2.7100000000	1.2298461020
2.7150000000	1.3237804178
2.7200000000	1.4232718518
2.7250000000	1.5257950471
2.7300000000	1.6280811292
2.7350000000	1.7261291217
2.7400000000	1.8151796024
2.7450000000	1.8904833378
2.7500000000	1.9449878379
2.7550000000	1.9740248041
2.7600000000	1.9740687564
2.7650000000	1.9443431685
2.7700000000	1.8872156504
2.7750000000	1.8077984876
2.7800000000	1.7128390594
2.7850000000	1.6095140343
2.7900000000	1.5042529102
2.7950000000	1.4022092263
2.8000000000	1.3070295191
2.8050000000	1.2103511516
2.8100000000	1.1271272784
2.8150000000	1.0571716878
2.8200000000	0.9993916108
2.8250000000	0.9523341891
2.8300000000	0.9145340214
2.8350000000	0.8847437594
2.8400000000	0.8616365004
2.8450000000	0.8452930421
2.8500000000	0.8347385672
2.8550000000	0.8296044967
2.8600000000	0.8296190645
2.8650000000	0.8345515760
2.8700000000	0.8441772174
2.8750000000	0.8582391772
2.8800000000	0.8764237639
2.8850000000	0.8983335073
2.8900000000	0.9234940740
2.8950000000	0.9513431805
2.9000000000	0.9812624945
2.9050000000	1.0190962856
2.9100000000	1.0569079761
2.9150000000	1.0933475218
2.9200000000	1.1268650358
2.9250000000	1.1556719459
2.9300000000	1.1781022498
2.9350000000	1.1918191653
2.9400000000	1.1957092667
2.9450000000	1.1892284818
2.9500000000	1.1728211935
2.9550000000	1.1478828683
2.9600000000	1.1164889152
2.9650000000	1.0810287540
2.9700000000	1.0438396560
2.9750000000	1.0069368513
2.9800000000	0.9718787065
2.9850000000	0.9397422098
2.9900000000	0.9111910420
2.9950000000	0.8865469539
3.0000000000	0.8659032706
