# energy (eV)    P(omega), $W$ = 300 nm, $h$ = 300 nm, $s$ = 20 nm, $d/W = 5$, $E_{\rm e}$ = 200 keV
0.2000000000	0.1122465461
0.2050000000	0.1138590593
0.2100000000	0.1153747602
0.2150000000	0.1167966769
0.2200000000	0.1181274197
0.2250000000	0.1193691471
0.2300000000	0.1205234448
0.2350000000	0.1215913040
0.2400000000	0.1225730086
0.2450000000	0.1234678930
0.2500000000	0.1242744779
0.2550000000	0.1249899194
0.2600000000	0.1256100620
0.2650000000	0.1261291118
0.2700000000	0.1265391271
0.2750000000	0.1268297108
0.2800000000	0.1269873861
0.2850000000	0.1269949211
0.2900000000	0.1268301768
0.2950000000	0.1264652377
0.3000000000	0.1258641546
0.3050000000	0.1249815124
0.3100000000	0.1237590068
0.3150000000	0.1304272807
0.3200000000	0.1383479267
0.3250000000	0.1483605656
0.3300000000	0.1617592072
0.3350000000	0.1784425183
0.3400000000	0.2002918477
0.3450000000	0.2268163276
0.3500000000	0.2615294276
0.3550000000	0.3074841629
0.3600000000	0.3675318137
0.3650000000	0.4512839931
0.3700000000	0.5618252322
0.3750000000	0.7157089451
0.3800000000	0.9384279603
0.3850000000	1.2856789795
0.3900000000	1.8346737425
0.3950000000	2.7678887825
0.4000000000	4.5481196584
0.4050000000	8.5420094453
0.4100000000	19.4476350555
0.4150000000	62.4640467279
0.4200000000	39.7600373535
0.4250000000	-75.0539087742
0.4300000000	20.9149675098
0.4350000000	13.0500134887
0.4400000000	7.9895253104
0.4450000000	5.2636219626
0.4500000000	3.6933625462
0.4550000000	2.7264535177
0.4600000000	2.0963533301
0.4650000000	1.6667560592
0.4700000000	1.3629860177
0.4750000000	1.1432222730
0.4800000000	0.9802512646
0.4850000000	0.8576185844
0.4900000000	0.7640313259
0.4950000000	0.6919052333
0.5000000000	0.6360577658
0.5050000000	0.5926820062
0.5100000000	0.5593315845
0.5150000000	0.5342064075
0.5200000000	0.5154138050
0.5250000000	0.5021107714
0.5300000000	0.4933850113
0.5350000000	0.4885711682
0.5400000000	0.4871795350
0.5450000000	0.4888012754
0.5500000000	0.4933145849
0.5550000000	0.5004914014
0.5600000000	0.5102205886
0.5650000000	0.5224552011
0.5700000000	0.5371555013
0.5750000000	0.5544266695
0.5800000000	0.5744396854
0.5850000000	0.5973068877
0.5900000000	0.6232420365
0.5950000000	0.6525102237
0.6000000000	0.6854487083
0.6050000000	0.7225409459
0.6100000000	0.7642526384
0.6150000000	0.8112158313
0.6200000000	0.8642741614
0.6250000000	0.9242353827
0.6300000000	0.9922933810
0.6350000000	1.0699362819
0.6400000000	1.1587131024
0.6450000000	1.2608586556
0.6500000000	1.3793122866
0.6550000000	1.5171344337
0.6600000000	1.6790270435
0.6650000000	1.8710279622
0.6700000000	2.1002355954
0.6750000000	2.3774700261
0.6800000000	2.7172994455
0.6850000000	3.1387940772
0.6900000000	3.6715144709
0.6950000000	4.3567897754
0.7000000000	5.2603100726
0.7050000000	6.4824951560
0.7100000000	8.1935470269
0.7150000000	10.6964829694
0.7200000000	14.5555499992
0.7250000000	20.9637135350
0.7300000000	32.7304046199
0.7350000000	57.9173549974
0.7400000000	127.0207550627
0.7450000000	421.6955632287
0.7500000000	1307.3787607777
0.7550000000	329.1458384431
0.7600000000	109.0883457613
0.7650000000	52.3091857214
0.7700000000	30.4449446207
0.7750000000	19.8862964165
0.7800000000	14.0060591789
0.7850000000	10.4107661189
0.7900000000	8.0498047857
0.7950000000	6.4209186074
0.8000000000	5.2495729257
0.8050000000	4.3768875140
0.8100000000	3.7111896793
0.8150000000	3.1832735522
0.8200000000	2.7664977918
0.8250000000	2.4308209230
0.8300000000	2.1557573650
0.8350000000	1.9295549253
0.8400000000	1.7398870986
0.8450000000	1.5806967578
0.8500000000	1.4461239692
0.8550000000	1.3299609117
0.8600000000	1.2307946285
0.8650000000	1.1461096876
0.8700000000	1.0712610991
0.8750000000	1.0076248727
0.8800000000	0.9536768351
0.8850000000	0.9053043678
0.8900000000	0.8666040067
0.8950000000	0.8313944236
0.9000000000	0.8036015820
0.9050000000	0.7846724858
0.9100000000	0.7673361702
0.9150000000	0.7570795639
0.9200000000	0.7564693318
0.9250000000	0.7561475765
0.9300000000	0.7455728684
0.9350000000	0.7124662109
0.9400000000	0.5255849188
0.9450000000	-0.3260016162
0.9500000000	-4.8246448992
0.9550000000	-27.6587660716
0.9600000000	6.5329650903
0.9650000000	11.4823827564
0.9700000000	5.0963015860
0.9750000000	2.6766443386
0.9800000000	1.6778935264
0.9850000000	1.2106458366
0.9900000000	0.9412913419
0.9950000000	0.7779066788
1.0000000000	0.6735657244
1.0050000000	0.6074444165
1.0100000000	0.5561265991
1.0150000000	0.5186137648
1.0200000000	0.4933580333
1.0250000000	0.4721043474
1.0300000000	0.4559224583
1.0350000000	0.4436371409
1.0400000000	0.4357900428
1.0450000000	0.4291925630
1.0500000000	0.4247528652
1.0550000000	0.4222166835
1.0600000000	0.4221705397
1.0650000000	0.4229824072
1.0700000000	0.4253112651
1.0750000000	0.4291648385
1.0800000000	0.4349750642
1.0850000000	0.4423616526
1.0900000000	0.4533715324
1.0950000000	0.4664645780
1.1000000000	0.4821003696
1.1050000000	0.5000783004
1.1100000000	0.5209855388
1.1150000000	0.5452854402
1.1200000000	0.5735465080
1.1250000000	0.6064178051
1.1300000000	0.6448799470
1.1350000000	0.6901172438
1.1400000000	0.7435004791
1.1450000000	0.8074323083
1.1500000000	0.8846080456
1.1550000000	0.9788853759
1.1600000000	1.0957059204
1.1650000000	1.2421512756
1.1700000000	1.4313812426
1.1750000000	1.6809586090
1.1800000000	2.0198758483
1.1850000000	2.4957612500
1.1900000000	3.1985111516
1.1950000000	4.3004272708
1.2000000000	6.1679413302
1.2050000000	9.6952369189
1.2100000000	17.4527523498
1.2150000000	38.4238677327
1.2200000000	94.2381045515
1.2250000000	84.7502165101
1.2300000000	33.9064029559
1.2350000000	15.9862307995
1.2400000000	9.2019857730
1.2450000000	6.0928896454
1.2500000000	4.4594469226
1.2550000000	3.5243349346
1.2600000000	2.9639371881
1.2650000000	2.6228229999
1.2700000000	2.4323103765
1.2750000000	2.3480882152
1.2800000000	2.3501175400
1.2850000000	2.4310487094
1.2900000000	2.5930790633
1.2950000000	2.8454399755
1.3000000000	3.2171384882
1.3050000000	3.7459351348
1.3100000000	4.5001314126
1.3150000000	5.5974054010
1.3200000000	7.2484463968
1.3250000000	9.8556015999
1.3300000000	14.2970522509
1.3350000000	22.6117940715
1.3400000000	40.3815310366
1.3450000000	84.5049318746
1.3500000000	179.5178851189
1.3550000000	167.5347778519
1.3600000000	77.2876930485
1.3650000000	37.9798656771
1.3700000000	21.7809731561
1.3750000000	14.0058182642
1.3800000000	9.7662256475
1.3850000000	7.2127630098
1.3900000000	5.5678910665
1.3950000000	4.4463736511
1.4000000000	3.6499659131
1.4050000000	3.0667897891
1.4100000000	2.6297558517
1.4150000000	2.2999789235
1.4200000000	2.0519792959
1.4250000000	1.8858576014
1.4300000000	1.8249754083
1.4350000000	1.8587104742
1.4400000000	1.4314799845
1.4450000000	0.1230482567
1.4500000000	-2.0013772338
1.4550000000	-0.5613101912
1.4600000000	2.4229303908
1.4650000000	1.3118830496
1.4700000000	-1.2382848328
1.4750000000	-5.4202085015
1.4800000000	-2.4123156295
1.4850000000	3.9650622647
1.4900000000	3.2140918621
1.4950000000	2.0803990308
1.5000000000	1.4617321812
1.5050000000	1.1286003021
1.5100000000	0.9387244888
1.5150000000	0.8234121318
1.5200000000	0.7489216116
1.5250000000	0.7026378578
1.5300000000	0.6672816920
1.5350000000	0.6429102066
1.5400000000	0.6268557396
1.5450000000	0.6176868691
1.5500000000	0.6144794977
1.5550000000	0.6172568339
1.5600000000	0.6276645537
1.5650000000	0.6448570679
1.5700000000	0.6726964373
1.5750000000	0.7158930650
1.5800000000	0.7832914852
1.5850000000	0.8921081006
1.5900000000	1.0786152284
1.5950000000	1.4230806044
1.6000000000	2.0950527253
1.6050000000	3.2061278783
1.6100000000	3.7206884835
1.6150000000	2.7560535074
1.6200000000	1.8511260318
1.6250000000	1.3734549212
1.6300000000	1.1336208034
1.6350000000	1.0101507180
1.6400000000	0.9475736912
1.6450000000	0.9201081347
1.6500000000	0.9148435889
1.6550000000	0.9257321542
1.6600000000	0.9491645513
1.6650000000	0.9834927654
1.6700000000	1.0280904419
1.6750000000	1.0829616688
1.6800000000	1.1485972989
1.6850000000	1.2257586342
1.6900000000	1.3151191308
1.6950000000	1.4154109943
1.7000000000	1.5249539354
1.7050000000	1.6372290964
1.7100000000	1.7653509936
1.7150000000	2.0836518979
1.7200000000	2.6420560293
1.7250000000	3.1537474112
1.7300000000	3.7029383198
1.7350000000	4.3063748995
1.7400000000	4.8984522191
1.7450000000	5.6589275955
1.7500000000	6.8089735013
1.7550000000	8.5207125548
1.7600000000	11.0817993476
1.7650000000	15.0297400271
1.7700000000	21.3891792832
1.7750000000	32.1031769380
1.7800000000	50.3596062433
1.7850000000	77.2835466201
1.7900000000	96.0426462043
1.7950000000	81.7821001676
1.8000000000	54.4282197302
1.8050000000	34.3726296168
1.8100000000	22.6626677922
1.8150000000	15.7990015868
1.8200000000	11.5750089699
1.8250000000	8.8365810836
1.8300000000	6.9772833674
1.8350000000	5.6649131730
1.8400000000	4.7087890396
1.8450000000	3.9932397025
1.8500000000	3.4453667531
1.8550000000	3.0195557504
1.8600000000	2.6839863426
1.8650000000	2.4170326478
1.8700000000	2.2033135736
1.8750000000	2.0315365689
1.8800000000	1.8927436195
1.8850000000	1.7790185065
1.8900000000	1.6812387461
1.8950000000	1.5857912658
1.9000000000	1.4691695185
1.9050000000	1.2484218659
1.9100000000	0.9445991087
1.9150000000	0.7835066778
1.9200000000	1.9168720140
1.9250000000	5.0499100029
1.9300000000	7.5346315121
1.9350000000	7.4188246059
1.9400000000	5.8351644196
1.9450000000	4.2997499551
1.9500000000	3.2217084697
1.9550000000	2.5153390812
1.9600000000	2.0485462675
1.9650000000	1.7361148467
1.9700000000	1.5105619461
1.9750000000	1.3452230971
1.9800000000	1.2189939820
1.9850000000	1.1165630079
1.9900000000	1.0262139886
1.9950000000	0.9377217496
2.0000000000	0.8495954302
2.0050000000	0.7932964659
2.0100000000	0.8255559020
2.0150000000	0.9144199160
2.0200000000	0.9692169620
2.0250000000	0.9837812297
2.0300000000	0.9870712036
2.0350000000	0.9930487375
2.0400000000	1.0069024126
2.0450000000	1.0299557002
2.0500000000	1.0630677051
2.0550000000	1.1070187213
2.0600000000	1.1618094010
2.0650000000	1.2241196575
2.0700000000	1.2857157895
2.0750000000	1.3404269181
2.0800000000	1.3936965351
2.0850000000	1.4567830450
2.0900000000	1.5372325564
2.0950000000	1.6382220199
2.1000000000	1.7631676849
2.1050000000	1.9109373540
2.1100000000	2.0919164012
2.1150000000	2.3136965409
2.1200000000	2.5869246754
2.1250000000	2.9265349310
2.1300000000	3.3535786172
2.1350000000	3.8981106639
2.1400000000	4.6035293384
2.1450000000	5.5332832939
2.1500000000	6.7798194674
2.1550000000	8.4739753371
2.1600000000	10.7832023058
2.1650000000	13.8493106435
2.1700000000	17.6155731827
2.1750000000	21.3600355619
2.1800000000	23.6736805102
2.1850000000	23.7940042633
2.1900000000	22.7422418603
2.1950000000	21.9238607899
2.2000000000	21.5610069352
2.2050000000	20.5525833785
2.2100000000	18.4114398316
2.2150000000	15.7788227888
2.2200000000	13.4154502149
2.2250000000	11.4622770617
2.2300000000	9.7426101389
2.2350000000	8.1879673007
2.2400000000	6.8526850719
2.2450000000	5.7843087819
2.2500000000	4.9652984481
2.2550000000	4.3500302947
2.2600000000	3.8893292468
2.2650000000	3.5339227152
2.2700000000	3.2305521023
2.2750000000	2.9267513412
2.2800000000	2.5997088985
2.2850000000	2.2885395133
2.2900000000	2.0735394248
2.2950000000	2.0001520342
2.3000000000	2.0264745840
2.3050000000	2.0666223701
2.3100000000	2.0700247676
2.3150000000	2.0370940510
2.3200000000	1.9897214889
2.3250000000	1.9505179712
2.3300000000	1.9310532778
2.3350000000	1.9333162648
2.3400000000	1.9508301919
2.3450000000	1.9689350795
2.3500000000	1.9691708870
2.3550000000	1.9397602826
2.3600000000	1.8840363447
2.3650000000	1.8165637024
2.3700000000	1.7523550421
2.3750000000	1.7003762959
2.3800000000	1.6635390998
2.3850000000	1.6410179093
2.3900000000	1.6309325667
2.3950000000	1.6311057549
2.4000000000	1.6421309998
2.4050000000	1.6676387180
2.4100000000	1.7088463566
2.4150000000	1.7674389067
2.4200000000	1.8444292565
2.4250000000	1.9415889716
2.4300000000	2.0615012908
2.4350000000	2.2076314698
2.4400000000	2.3844511062
2.4450000000	2.5976696775
2.4500000000	2.8544906299
2.4550000000	3.1639680678
2.4600000000	3.5372261477
2.4650000000	3.9876117197
2.4700000000	4.5304322560
2.4750000000	5.1810213005
2.4800000000	5.9552152407
2.4850000000	6.8592836959
2.4900000000	7.8843911036
2.4950000000	8.9938530780
2.5000000000	10.1100860422
2.5050000000	11.1542691849
2.5100000000	11.8596761396
2.5150000000	12.0724701927
2.5200000000	11.7559981600
2.5250000000	11.0079521814
2.5300000000	9.9985144620
2.5350000000	8.8918122725
2.5400000000	7.8037927364
2.5450000000	6.7999637166
2.5500000000	5.9094535057
2.5550000000	5.1388920337
2.5600000000	4.4776843687
2.5650000000	3.9217752809
2.5700000000	3.4580775928
2.5750000000	3.0783987520
2.5800000000	2.7766191762
2.5850000000	2.5460861802
2.5900000000	2.3758575980
2.5950000000	2.2505495987
2.6000000000	2.1541442834
2.6050000000	2.0856305813
2.6100000000	2.0263058185
2.6150000000	1.9752296667
2.6200000000	1.9334113711
2.6250000000	1.9019689069
2.6300000000	1.8816487781
2.6350000000	1.8728318903
2.6400000000	1.8757394035
2.6450000000	1.8905772059
2.6500000000	1.9177481887
2.6550000000	1.9573651753
2.6600000000	2.0100362191
2.6650000000	2.0763755199
2.6700000000	2.1571375818
2.6750000000	2.2532368009
2.6800000000	2.3656866104
2.6850000000	2.4955237776
2.6900000000	2.6435976321
2.6950000000	2.8104009303
2.7000000000	2.9957651145
2.7050000000	3.2207729770
2.7100000000	3.4663407016
2.7150000000	3.7276876334
2.7200000000	3.9978601825
2.7250000000	4.2681222898
2.7300000000	4.5286157064
2.7350000000	4.7689278755
2.7400000000	4.9782286174
2.7450000000	5.1469034443
2.7500000000	5.2600391890
2.7550000000	5.3086069722
2.7600000000	5.2857558375
2.7650000000	5.1906883974
2.7700000000	5.0297765873
2.7750000000	4.8157876372
2.7800000000	4.5653629094
2.7850000000	4.2961566694
2.7900000000	4.0240090141
2.7950000000	3.7616222539
2.8000000000	3.5179781463
2.8050000000	3.2714670043
2.8100000000	3.0604850764
2.8150000000	2.8844664229
2.8200000000	2.7405776552
2.8250000000	2.6250843317
2.8300000000	2.5342246390
2.8350000000	2.4647792080
2.8400000000	2.4133589309
2.8450000000	2.3800818602
2.8500000000	2.3624850005
2.8550000000	2.3596299054
2.8600000000	2.3708158349
2.8650000000	2.3954115569
2.8700000000	2.4327110132
2.8750000000	2.4818184841
2.8800000000	2.5415596827
2.8850000000	2.6104074492
2.8900000000	2.6865260711
2.8950000000	2.7678392965
2.9000000000	2.8521636516
2.9050000000	2.9534992386
2.9100000000	3.0507150798
2.9150000000	3.1407529087
2.9200000000	3.2204028488
2.9250000000	3.2860227004
2.9300000000	3.3342587296
2.9350000000	3.3598959080
2.9400000000	3.3606831528
2.9450000000	3.3356614356
2.9500000000	3.2862745516
2.9550000000	3.2162763351
2.9600000000	3.1310851786
2.9650000000	3.0368406089
2.9700000000	2.9394795766
2.9750000000	2.8440758579
2.9800000000	2.7545171804
2.9850000000	2.6734560619
2.9900000000	2.6024879282
2.9950000000	2.5423617599
3.0000000000	2.4932351902
