# energy (eV)    P(omega), $W$ = 300 nm, $h$ = 300 nm, $s$ = 20 nm, $d/W = 5$, $E_{\rm e}$ = 200 keV
0.2000000000	0.1244559859
0.2050000000	0.1263206305
0.2100000000	0.1280637352
0.2150000000	0.1296892645
0.2200000000	0.1312006088
0.2250000000	0.1326006446
0.2300000000	0.1338915737
0.2350000000	0.1350748558
0.2400000000	0.1361510518
0.2450000000	0.1371197573
0.2500000000	0.1379793831
0.2550000000	0.1387268808
0.2600000000	0.1393576712
0.2650000000	0.1398651013
0.2700000000	0.1402401556
0.2750000000	0.1404708844
0.2800000000	0.1405417729
0.2850000000	0.1404328701
0.2900000000	0.1401186224
0.2950000000	0.1395666015
0.3000000000	0.1387353852
0.3050000000	0.1375721886
0.3100000000	0.1360094342
0.3150000000	0.1437458924
0.3200000000	0.1529339548
0.3250000000	0.1645552913
0.3300000000	0.1801192540
0.3350000000	0.1994922651
0.3400000000	0.2248615546
0.3450000000	0.2556312118
0.3500000000	0.2958822818
0.3550000000	0.3491401276
0.3600000000	0.4186757758
0.3650000000	0.5156128079
0.3700000000	0.6434246326
0.3750000000	0.8212080357
0.3800000000	1.0783229564
0.3850000000	1.4789431405
0.3900000000	2.1118095477
0.3950000000	3.1867678899
0.4000000000	5.2359517274
0.4050000000	9.8300267691
0.4100000000	22.3651142285
0.4150000000	71.7721862906
0.4200000000	45.7298309117
0.4250000000	-86.0682151010
0.4300000000	23.9316920125
0.4350000000	14.9124685630
0.4400000000	9.1154706398
0.4450000000	5.9951108683
0.4500000000	4.1988492971
0.4550000000	3.0934715194
0.4600000000	2.3735631478
0.4650000000	1.8829981916
0.4700000000	1.5362812981
0.4750000000	1.2855308959
0.4800000000	1.0996211987
0.4850000000	0.9597284042
0.4900000000	0.8529428868
0.4950000000	0.7705985315
0.5000000000	0.7067717408
0.5050000000	0.6571165586
0.5100000000	0.6188343743
0.5150000000	0.5898646950
0.5200000000	0.5680544787
0.5250000000	0.5524330781
0.5300000000	0.5419591475
0.5350000000	0.5358709467
0.5400000000	0.5336068625
0.5450000000	0.5346977748
0.5500000000	0.5389948498
0.5550000000	0.5462335413
0.5600000000	0.5562784358
0.5650000000	0.5690685586
0.5700000000	0.5845482419
0.5750000000	0.6028255397
0.5800000000	0.6240761662
0.5850000000	0.6484146234
0.5900000000	0.6760631894
0.5950000000	0.7073016050
0.6000000000	0.7424862027
0.6050000000	0.7821337393
0.6100000000	0.8267370203
0.6150000000	0.8769695189
0.6200000000	0.9337296415
0.6250000000	0.9978786951
0.6300000000	1.0706898680
0.6350000000	1.1537500059
0.6400000000	1.2487101283
0.6450000000	1.3579535753
0.6500000000	1.4846139221
0.6550000000	1.6319530186
0.6600000000	1.8049844594
0.6650000000	2.0101408735
0.6700000000	2.2549849323
0.6750000000	2.5510488738
0.6800000000	2.9138416459
0.6850000000	3.3636790421
0.6900000000	3.9320268437
0.6950000000	4.6628918433
0.7000000000	5.6261792024
0.7050000000	6.9287545250
0.7100000000	8.7516878930
0.7150000000	11.4173034533
0.7200000000	15.5256661641
0.7250000000	22.3452169818
0.7300000000	34.8624686285
0.7350000000	61.6455239653
0.7400000000	135.0981377666
0.7450000000	448.1779870762
0.7500000000	1388.4344052312
0.7550000000	349.2849546572
0.7600000000	115.6731902692
0.7650000000	55.4230962836
0.7700000000	32.2315651845
0.7750000000	21.0362926370
0.7800000000	14.8038863104
0.7850000000	10.9946771972
0.7900000000	8.4941493289
0.7950000000	6.7696048167
0.8000000000	5.5299024430
0.8050000000	4.6066077137
0.8100000000	3.9025494401
0.8150000000	3.3444363965
0.8200000000	2.9039608794
0.8250000000	2.5492978338
0.8300000000	2.2587751416
0.8350000000	2.0199131822
0.8400000000	1.8196785566
0.8450000000	1.6516565377
0.8500000000	1.5096299943
0.8550000000	1.3870678225
0.8600000000	1.2824407887
0.8650000000	1.1930716023
0.8700000000	1.1141070176
0.8750000000	1.0469359965
0.8800000000	0.9899394209
0.8850000000	0.9388389264
0.8900000000	0.8978464125
0.8950000000	0.8605558654
0.9000000000	0.8310003790
0.9050000000	0.8106436300
0.9100000000	0.7919884361
0.9150000000	0.7806704364
0.9200000000	0.7793031956
0.9250000000	0.7782880825
0.9300000000	0.7668673999
0.9350000000	0.7326084807
0.9400000000	0.5417768434
0.9450000000	-0.3255843076
0.9500000000	-4.9029480493
0.9550000000	-28.1198422534
0.9600000000	6.6352706498
0.9650000000	11.6556749536
0.9700000000	5.1697051664
0.9750000000	2.7139694435
0.9800000000	1.7008869508
0.9850000000	1.2270671447
0.9900000000	0.9540637487
0.9950000000	0.7885214842
1.0000000000	0.6828223294
1.0050000000	0.6158112546
1.0100000000	0.5638614377
1.0150000000	0.5259088075
1.0200000000	0.5003453786
1.0250000000	0.4788889130
1.0300000000	0.4625888666
1.0350000000	0.4502581400
1.0400000000	0.4424187693
1.0450000000	0.4359006279
1.0500000000	0.4316012481
1.0550000000	0.4292660098
1.0600000000	0.4294701793
1.0650000000	0.4306125743
1.0700000000	0.4333460152
1.0750000000	0.4376818280
1.0800000000	0.4440484198
1.0850000000	0.4521279754
1.0900000000	0.4640461487
1.0950000000	0.4781995575
1.1000000000	0.4950629874
1.1050000000	0.5144988291
1.1100000000	0.5371208559
1.1150000000	0.5634377661
1.1200000000	0.5940524584
1.1250000000	0.6297535167
1.1300000000	0.6715966368
1.1350000000	0.7208962643
1.1400000000	0.7791490886
1.1450000000	0.8490883280
1.1500000000	0.9336852573
1.1550000000	1.0372357958
1.1600000000	1.1658006703
1.1650000000	1.3272437747
1.1700000000	1.5362975086
1.1750000000	1.8125183368
1.1800000000	2.1882369985
1.1850000000	2.7165964374
1.1900000000	3.4977524339
1.1950000000	4.7240135171
1.2000000000	6.8039281355
1.2050000000	10.7344134669
1.2100000000	19.3806774053
1.2150000000	42.7513534686
1.2200000000	104.9201939114
1.2250000000	94.2634796623
1.2300000000	37.6005105648
1.2350000000	17.6347604906
1.2400000000	10.0722303662
1.2450000000	6.5998798169
1.2500000000	4.7680458555
1.2550000000	3.7108233955
1.2600000000	3.0674590476
1.2650000000	2.6644252648
1.2700000000	2.4240491652
1.2750000000	2.2959697534
1.2800000000	2.2562094053
1.2850000000	2.2942911922
1.2900000000	2.4093591048
1.2950000000	2.6073948362
1.3000000000	2.9128569251
1.3050000000	3.3571105537
1.3100000000	3.9986403618
1.3150000000	4.9386407978
1.3200000000	6.3590362097
1.3250000000	8.6065698113
1.3300000000	12.4406580051
1.3350000000	19.6219941921
1.3400000000	34.9706113678
1.3450000000	73.0737909325
1.3500000000	155.0794555803
1.3550000000	144.6335638874
1.3600000000	66.6973978134
1.3650000000	32.7708755356
1.3700000000	18.7937441757
1.3750000000	12.0861133136
1.3800000000	8.4287507202
1.3850000000	6.2255942843
1.3900000000	4.8056312921
1.3950000000	3.8368338026
1.4000000000	3.1477071287
1.4050000000	2.6415592080
1.4100000000	2.2598264729
1.4150000000	1.9675222203
1.4200000000	1.7399620296
1.4250000000	1.5705795284
1.4300000000	1.4627044657
1.4350000000	1.3911988574
1.4400000000	0.9558914520
1.4450000000	-0.2496264939
1.4500000000	-2.3477742763
1.4550000000	-0.7848776733
1.4600000000	2.3865248205
1.4650000000	1.3829294776
1.4700000000	-0.8805462442
1.4750000000	-4.4606006587
1.4800000000	-1.9677765188
1.4850000000	3.3726488301
1.4900000000	2.7302601868
1.4950000000	1.7714545597
1.5000000000	1.2472570282
1.5050000000	0.9634788337
1.5100000000	0.8010368613
1.5150000000	0.7014407641
1.5200000000	0.6362081315
1.5250000000	0.5948068964
1.5300000000	0.5621834923
1.5350000000	0.5384886732
1.5400000000	0.5213291031
1.5450000000	0.5092779642
1.5500000000	0.5013497432
1.5550000000	0.4971346198
1.5600000000	0.4974853915
1.5650000000	0.5006888359
1.5700000000	0.5085834392
1.5750000000	0.5226192264
1.5800000000	0.5456823207
1.5850000000	0.5834550558
1.5900000000	0.6479576131
1.5950000000	0.7657616699
1.6000000000	0.9928608083
1.6050000000	1.3655637323
1.6100000000	1.5392440684
1.6150000000	1.2249208409
1.6200000000	0.9335115913
1.6250000000	0.7853608462
1.6300000000	0.7173259301
1.6350000000	0.6892326673
1.6400000000	0.6828843792
1.6450000000	0.6899571535
1.6500000000	0.7063991404
1.6550000000	0.7305430987
1.6600000000	0.7615393577
1.6650000000	0.7992703433
1.6700000000	0.8440469301
1.6750000000	0.8965133457
1.6800000000	0.9576132804
1.6850000000	1.0286067310
1.6900000000	1.1109590273
1.6950000000	1.2055210524
1.7000000000	1.3143780863
1.7050000000	1.4403323857
1.7100000000	1.5929907598
1.7150000000	1.8495290969
1.7200000000	2.2369968256
1.7250000000	2.6559209263
1.7300000000	3.1540905197
1.7350000000	3.6930487808
1.7400000000	4.1905214031
1.7450000000	4.8174596914
1.7500000000	5.7785803138
1.7550000000	7.2201969524
1.7600000000	9.3831094405
1.7650000000	12.7199445253
1.7700000000	18.0952126633
1.7750000000	27.1487206159
1.7800000000	42.5683723316
1.7850000000	65.2908444200
1.7900000000	81.0849361203
1.7950000000	68.9901202493
1.8000000000	45.8704660111
1.8050000000	28.9344766609
1.8100000000	19.0506254407
1.8150000000	13.2589042385
1.8200000000	9.6948748269
1.8250000000	7.3838974992
1.8300000000	5.8139699294
1.8350000000	4.7046554106
1.8400000000	3.8949928273
1.8450000000	3.2872177271
1.8500000000	2.8196528420
1.8550000000	2.4536277510
1.8600000000	2.1619427181
1.8650000000	1.9259018552
1.8700000000	1.7318822665
1.8750000000	1.5694344698
1.8800000000	1.4296641303
1.8850000000	1.3038997075
1.8900000000	1.1814090134
1.8950000000	1.0459346950
1.9000000000	0.8699299203
1.9050000000	0.5635032348
1.9100000000	0.1234655560
1.9150000000	-0.3001731718
1.9200000000	0.2116016374
1.9250000000	2.2587213411
1.9300000000	3.8940320978
1.9350000000	3.9306854062
1.9400000000	3.1554067893
1.9450000000	2.3915353950
1.9500000000	1.8501205510
1.9550000000	1.4919945076
1.9600000000	1.2533407624
1.9650000000	1.0943178848
1.9700000000	0.9772530336
1.9750000000	0.8914111838
1.9800000000	0.8262585951
1.9850000000	0.7742412542
1.9900000000	0.7297363460
1.9950000000	0.6879776961
2.0000000000	0.6481083605
2.0050000000	0.6244040558
2.0100000000	0.6403423251
2.0150000000	0.6819041456
2.0200000000	0.7099910282
2.0250000000	0.7222089352
2.0300000000	0.7315336527
2.0350000000	0.7439688522
2.0400000000	0.7624361268
2.0450000000	0.7881767149
2.0500000000	0.8224530525
2.0550000000	0.8665205535
2.0600000000	0.9204506866
2.0650000000	0.9799354511
2.0700000000	1.0342518723
2.0750000000	1.0750254003
2.0800000000	1.1084797663
2.0850000000	1.1481417260
2.0900000000	1.2026140665
2.0950000000	1.2748769543
2.1000000000	1.3672097455
2.1050000000	1.4782179299
2.1100000000	1.6156359903
2.1150000000	1.7850068898
2.1200000000	1.9943039601
2.1250000000	2.2548409441
2.1300000000	2.5826491365
2.1350000000	3.0006657545
2.1400000000	3.5420189209
2.1450000000	4.2551318792
2.1500000000	5.2105201427
2.1550000000	6.5079203725
2.1600000000	8.2749384670
2.1650000000	10.6197124185
2.1700000000	13.5010141787
2.1750000000	16.3741091924
2.1800000000	18.1784169100
2.1850000000	18.3474557308
2.1900000000	17.6623335968
2.1950000000	17.1762814274
2.2000000000	17.0064382058
2.2050000000	16.2072330683
2.2100000000	14.3740778473
2.2150000000	12.0675472585
2.2200000000	9.9696146166
2.2250000000	8.2697045049
2.2300000000	6.8742675101
2.2350000000	5.7065179701
2.2400000000	4.7477667831
2.2450000000	3.9907341796
2.2500000000	3.4040714075
2.2550000000	2.9500177893
2.2600000000	2.5936249515
2.2650000000	2.3033951260
2.2700000000	2.0495169595
2.2750000000	1.8068018792
2.2800000000	1.5694076685
2.2850000000	1.3663210709
2.2900000000	1.2469048090
2.2950000000	1.2332784077
2.3000000000	1.2873222520
2.3050000000	1.3442655032
2.3100000000	1.3643998306
2.3150000000	1.3489766179
2.3200000000	1.3151658505
2.3250000000	1.2806140430
2.3300000000	1.2546894216
2.3350000000	1.2401278168
2.3400000000	1.2348731182
2.3450000000	1.2329416242
2.3500000000	1.2266255772
2.3550000000	1.2110010746
2.3600000000	1.1874303619
2.3650000000	1.1619194399
2.3700000000	1.1405725837
2.3750000000	1.1267821898
2.3800000000	1.1210918653
2.3850000000	1.1221368493
2.3900000000	1.1281742162
2.3950000000	1.1375341772
2.4000000000	1.1510486417
2.4050000000	1.1722476507
2.4100000000	1.2026330169
2.4150000000	1.2442769302
2.4200000000	1.2986077063
2.4250000000	1.3671566087
2.4300000000	1.4518022761
2.4350000000	1.5549530836
2.4400000000	1.6797087526
2.4450000000	1.8300440543
2.4500000000	2.0109967457
2.4550000000	2.2289227226
2.4600000000	2.4916383375
2.4650000000	2.8085655791
2.4700000000	3.1905478972
2.4750000000	3.6485183528
2.4800000000	4.1940163816
2.4850000000	4.8318361500
2.4900000000	5.5560049093
2.4950000000	6.3401086227
2.5000000000	7.1271156418
2.5050000000	7.8565416692
2.5100000000	8.3348148148
2.5150000000	8.4533529730
2.5200000000	8.1940100966
2.5250000000	7.6372208694
2.5300000000	6.9107866656
2.5350000000	6.1306440239
2.5400000000	5.3733009144
2.5450000000	4.6786791384
2.5500000000	4.0628529431
2.5550000000	3.5285823608
2.5600000000	3.0682460749
2.5650000000	2.6801687777
2.5700000000	2.3561112358
2.5750000000	2.0910949871
2.5800000000	1.8813138840
2.5850000000	1.7222766541
2.5900000000	1.6061298559
2.5950000000	1.5216016953
2.6000000000	1.4569099286
2.6050000000	1.4107497690
2.6100000000	1.3698239889
2.6150000000	1.3335835423
2.6200000000	1.3028791607
2.6250000000	1.2785827717
2.6300000000	1.2612534374
2.6350000000	1.2511588121
2.6400000000	1.2484401974
2.6450000000	1.2532409819
2.6500000000	1.2658558111
2.6550000000	1.2863506861
2.6600000000	1.3151755620
2.6650000000	1.3527583592
2.6700000000	1.3996033890
2.6750000000	1.4563000825
2.6800000000	1.5234785247
2.6850000000	1.6017842530
2.6900000000	1.6917882250
2.6950000000	1.7939275639
2.7000000000	1.9083635307
2.7050000000	2.0484866087
2.7100000000	2.2036448541
2.7150000000	2.3719456793
2.7200000000	2.5502084283
2.7250000000	2.7339093850
2.7300000000	2.9171918810
2.7350000000	3.0928863031
2.7400000000	3.2524629290
2.7450000000	3.3874094941
2.7500000000	3.4850863732
2.7550000000	3.5371267318
2.7600000000	3.5372119774
2.7650000000	3.4839505175
2.7700000000	3.3815852587
2.7750000000	3.2392777241
2.7800000000	3.0691193380
2.7850000000	2.8839706063
2.7900000000	2.6953529513
2.7950000000	2.5125010369
2.8000000000	2.3419489812
2.8050000000	2.1687131382
2.8100000000	2.0195862387
2.8150000000	1.8942342224
2.8200000000	1.7906986140
2.8250000000	1.7063758227
2.8300000000	1.6386398713
2.8350000000	1.5852552729
2.8400000000	1.5438444026
2.8450000000	1.5145514604
2.8500000000	1.4956300433
2.8550000000	1.4864195372
2.8600000000	1.4864329991
2.8650000000	1.4952575704
2.8700000000	1.5124903898
2.8750000000	1.5376714215
2.8800000000	1.5702393454
2.8850000000	1.6094823235
2.8900000000	1.6545502834
2.8950000000	1.7044368672
2.9000000000	1.7580338413
2.9050000000	1.8258134899
2.9100000000	1.8935560010
2.9150000000	1.9588424232
2.9200000000	2.0188950412
2.9250000000	2.0705088790
2.9300000000	2.1106979740
2.9350000000	2.1352756820
2.9400000000	2.1422462598
2.9450000000	2.1306347940
2.9500000000	2.1012379112
2.9550000000	2.0565555105
2.9600000000	2.0003061820
2.9650000000	1.9367714131
2.9700000000	1.8701383850
2.9750000000	1.8040179728
2.9800000000	1.7412022993
2.9850000000	1.6836209648
2.9900000000	1.6324626918
2.9950000000	1.5883042894
3.0000000000	1.5513128348
