# energy (eV)    P(omega), $W$ = 300 nm, $h$ = 300 nm, $s$ = 20 nm, $d/W = 5$, $E_{\rm e}$ = 200 keV
0.2000000000	0.0642697097
0.2050000000	0.0651929097
0.2100000000	0.0660607223
0.2150000000	0.0668748791
0.2200000000	0.0676368726
0.2250000000	0.0683479367
0.2300000000	0.0690089776
0.2350000000	0.0696205612
0.2400000000	0.0701828488
0.2450000000	0.0706954579
0.2500000000	0.0711575406
0.2550000000	0.0715674679
0.2600000000	0.0719228596
0.2650000000	0.0722203984
0.2700000000	0.0724555368
0.2750000000	0.0726223221
0.2800000000	0.0727130384
0.2850000000	0.0727178203
0.2900000000	0.0726239932
0.2950000000	0.0724155753
0.3000000000	0.0720719860
0.3050000000	0.0715672255
0.3100000000	0.0708679147
0.3150000000	0.0746854236
0.3200000000	0.0792199010
0.3250000000	0.0849519891
0.3300000000	0.0926224616
0.3350000000	0.1021733632
0.3400000000	0.1146817239
0.3450000000	0.1298666223
0.3500000000	0.1497394508
0.3550000000	0.1760480718
0.3600000000	0.2104249336
0.3650000000	0.2583726410
0.3700000000	0.3216574046
0.3750000000	0.4097561855
0.3800000000	0.5372640107
0.3850000000	0.7360679722
0.3900000000	1.0503735692
0.3950000000	1.5846524349
0.4000000000	2.6038649412
0.4050000000	4.8904460607
0.4100000000	11.1341659894
0.4150000000	35.7621750538
0.4200000000	22.7634957782
0.4250000000	-42.9708025111
0.4300000000	11.9746589586
0.4350000000	7.4717235235
0.4400000000	4.5744111190
0.4450000000	3.0137248988
0.4500000000	2.1146857193
0.4550000000	1.5610874594
0.4600000000	1.2003257025
0.4650000000	0.9543603026
0.4700000000	0.7804365775
0.4750000000	0.6546104160
0.4800000000	0.5613009042
0.4850000000	0.4910872094
0.4900000000	0.4375036375
0.4950000000	0.3962078526
0.5000000000	0.3642326133
0.5050000000	0.3393982723
0.5100000000	0.3203041771
0.5150000000	0.3059197019
0.5200000000	0.2951611744
0.5250000000	0.2875459579
0.5300000000	0.2825517138
0.5350000000	0.2797975017
0.5400000000	0.2790029481
0.5450000000	0.2799339801
0.5500000000	0.2825208903
0.5550000000	0.2866331136
0.5600000000	0.2922070477
0.5650000000	0.2992158384
0.5700000000	0.3076367655
0.5750000000	0.3175300912
0.5800000000	0.3289937699
0.5850000000	0.3420921686
0.5900000000	0.3569477430
0.5950000000	0.3737123470
0.6000000000	0.3925791711
0.6050000000	0.4138251337
0.6100000000	0.4377169951
0.6150000000	0.4646167893
0.6200000000	0.4950077496
0.6250000000	0.5293525511
0.6300000000	0.5683350474
0.6350000000	0.6128076219
0.6400000000	0.6636575471
0.6450000000	0.7221649068
0.6500000000	0.7900133391
0.6550000000	0.8689558474
0.6600000000	0.9616856647
0.6650000000	1.0716612674
0.6700000000	1.2029485678
0.6750000000	1.3617452745
0.6800000000	1.5563959945
0.6850000000	1.7978240993
0.6900000000	2.1029617906
0.6950000000	2.4954823550
0.7000000000	3.0130129760
0.7050000000	3.7130740587
0.7100000000	4.6931573700
0.7150000000	6.1268313360
0.7200000000	8.3372973309
0.7250000000	12.0078884310
0.7300000000	18.7478538337
0.7350000000	33.1749794029
0.7400000000	72.7576036832
0.7450000000	241.5485827935
0.7500000000	748.8738287309
0.7550000000	188.5373350046
0.7600000000	62.4869201763
0.7650000000	29.9633588264
0.7700000000	17.4393181590
0.7750000000	11.3912137315
0.7800000000	8.0229452523
0.7850000000	5.9635154504
0.7900000000	4.6111239489
0.7950000000	3.6780734818
0.8000000000	3.0071078357
0.8050000000	2.5072186474
0.8100000000	2.1258948008
0.8150000000	1.8234941774
0.8200000000	1.5847565023
0.8250000000	1.3924736381
0.8300000000	1.2349110804
0.8350000000	1.1053371207
0.8400000000	0.9966908585
0.8450000000	0.9055027282
0.8500000000	0.8284160843
0.8550000000	0.7618748981
0.8600000000	0.7050698762
0.8650000000	0.6565601958
0.8700000000	0.6136849559
0.8750000000	0.5772325380
0.8800000000	0.5463298764
0.8850000000	0.5186210143
0.8900000000	0.4964528281
0.8950000000	0.4762842067
0.9000000000	0.4603643177
0.9050000000	0.4495221973
0.9100000000	0.4395924181
0.9150000000	0.4337184233
0.9200000000	0.4333707002
0.9250000000	0.4331881262
0.9300000000	0.4271313842
0.9350000000	0.4081654577
0.9400000000	0.3010992949
0.9450000000	-0.1867892575
0.9500000000	-2.7641518833
0.9550000000	-15.8463212479
0.9600000000	3.7428910885
0.9650000000	6.5785524393
0.9700000000	2.9198092975
0.9750000000	1.5335237582
0.9800000000	0.9613116923
0.9850000000	0.6936122245
0.9900000000	0.5392910678
0.9950000000	0.4456830490
1.0000000000	0.3859029293
1.0050000000	0.3480200979
1.0100000000	0.3186184995
1.0150000000	0.2971261781
1.0200000000	0.2826563974
1.0250000000	0.2704793968
1.0300000000	0.2612081499
1.0350000000	0.2541693261
1.0400000000	0.2496733129
1.0450000000	0.2458931271
1.0500000000	0.2433491360
1.0550000000	0.2418956590
1.0600000000	0.2418687741
1.0650000000	0.2423333296
1.0700000000	0.2436669077
1.0750000000	0.2458739331
1.0800000000	0.2492018951
1.0850000000	0.2534327692
1.0900000000	0.2597391953
1.0950000000	0.2672388916
1.1000000000	0.2761951492
1.1050000000	0.2864929005
1.1100000000	0.2984685210
1.1150000000	0.3123874057
1.1200000000	0.3285752209
1.1250000000	0.3474035739
1.1300000000	0.3694341737
1.1350000000	0.3953453315
1.1400000000	0.4259222094
1.1450000000	0.4625407753
1.1500000000	0.5067448075
1.1550000000	0.5607437513
1.1600000000	0.6276542325
1.1650000000	0.7115322058
1.1700000000	0.8199146564
1.1750000000	0.9628604719
1.1800000000	1.1569747158
1.1850000000	1.4295357994
1.1900000000	1.8320308948
1.1950000000	2.4631432348
1.2000000000	3.5327421508
1.2050000000	5.5529607244
1.2100000000	9.9959887893
1.2150000000	22.0069705005
1.2200000000	53.9740742414
1.2250000000	48.5402121399
1.2300000000	19.4199461609
1.2350000000	9.1563326263
1.2400000000	5.2707234259
1.2450000000	3.4900310827
1.2500000000	2.5545132701
1.2550000000	2.0189652025
1.2600000000	1.6980387722
1.2650000000	1.5027130646
1.2700000000	1.3936533619
1.2750000000	1.3454827797
1.2800000000	1.3467274054
1.2850000000	1.3931823072
1.2900000000	1.4861124831
1.2950000000	1.6308135618
1.3000000000	1.8439146386
1.3050000000	2.1470638151
1.3100000000	2.5794149020
1.3150000000	3.2084259915
1.3200000000	4.1548717539
1.3250000000	5.6493930785
1.3300000000	8.1953928708
1.3350000000	12.9616956601
1.3400000000	23.1479326043
1.3450000000	48.4410311184
1.3500000000	102.9059107857
1.3550000000	96.0369556456
1.3600000000	44.3041303362
1.3650000000	21.7714544929
1.3700000000	12.4856521928
1.3750000000	8.0286446357
1.3800000000	5.5983521666
1.3850000000	4.1346128203
1.3900000000	3.1917124925
1.3950000000	2.5488189897
1.4000000000	2.0922917765
1.4050000000	1.7579984363
1.4100000000	1.5074819752
1.4150000000	1.3184543122
1.4200000000	1.1763139343
1.4250000000	1.0811293250
1.4300000000	1.0463196803
1.4350000000	1.0658226657
1.4400000000	0.8210369537
1.4450000000	0.0711507668
1.4500000000	-1.1461594514
1.4550000000	-0.3212340700
1.4600000000	1.3883701754
1.4650000000	0.7515608147
1.4700000000	-0.7101728468
1.4750000000	-3.1074514504
1.4800000000	-1.3830383451
1.4850000000	2.2729915477
1.4900000000	1.8424983701
1.4950000000	1.1925901636
1.5000000000	0.8379304413
1.5050000000	0.6469598634
1.5100000000	0.5381127201
1.5150000000	0.4720104425
1.5200000000	0.4293099768
1.5250000000	0.4027792552
1.5300000000	0.3825133732
1.5350000000	0.3685448051
1.5400000000	0.3593443748
1.5450000000	0.3540916866
1.5500000000	0.3522570850
1.5550000000	0.3538542270
1.5600000000	0.3598268782
1.5650000000	0.3696910934
1.5700000000	0.3856618546
1.5750000000	0.4104413191
1.5800000000	0.4491031087
1.5850000000	0.5115233021
1.5900000000	0.6185092990
1.5950000000	0.8161063845
1.6000000000	1.2015761863
1.6050000000	1.8389394444
1.6100000000	2.1341236241
1.6150000000	1.5807685198
1.6200000000	1.0616548842
1.6250000000	0.7876320267
1.6300000000	0.6500424020
1.6350000000	0.5792037686
1.6400000000	0.5432952725
1.6450000000	0.5275271809
1.6500000000	0.5244931785
1.6550000000	0.5307237315
1.6600000000	0.5441480459
1.6650000000	0.5638203897
1.6700000000	0.5893810304
1.6750000000	0.6208317838
1.6800000000	0.6584535287
1.6850000000	0.7026820913
1.6900000000	0.7539025249
1.6950000000	0.8113857634
1.7000000000	0.8741644617
1.7050000000	0.9384917314
1.7100000000	1.0118883051
1.7150000000	1.1943793825
1.7200000000	1.5145999868
1.7250000000	1.8079504761
1.7300000000	2.1227380501
1.7350000000	2.4686319042
1.7400000000	2.8080606506
1.7450000000	3.2440460532
1.7500000000	3.9033542572
1.7550000000	4.8846576747
1.7600000000	6.3528648932
1.7650000000	8.6161168448
1.7700000000	12.2618187685
1.7750000000	18.4038810414
1.7800000000	28.8698409173
1.7850000000	44.3047033260
1.7900000000	55.0589216699
1.7950000000	46.8837934826
1.8000000000	31.2025174384
1.8050000000	19.7051357418
1.8100000000	12.9920907620
1.8150000000	9.0573091722
1.8200000000	6.6357905827
1.8250000000	5.0659123780
1.8300000000	4.0000201773
1.8350000000	3.2476701350
1.8400000000	2.6995490428
1.8450000000	2.2893454433
1.8500000000	1.9752685385
1.8550000000	1.7311688555
1.8600000000	1.5388049349
1.8650000000	1.3857797194
1.8700000000	1.2632763780
1.8750000000	1.1648223136
1.8800000000	1.0852837795
1.8850000000	1.0201250661
1.8900000000	0.9641202541
1.8950000000	0.9094712326
1.9000000000	0.8427118589
1.9050000000	0.7163125086
1.9100000000	0.5423673148
1.9150000000	0.4503767100
1.9200000000	1.1006700428
1.9250000000	2.8975286051
1.9300000000	4.3225515165
1.9350000000	4.2559942960
1.9400000000	3.3474091915
1.9450000000	2.4665187292
1.9500000000	1.8480362932
1.9550000000	1.4427897639
1.9600000000	1.1749916095
1.9650000000	0.9957494094
1.9700000000	0.8663523448
1.9750000000	0.7714994260
1.9800000000	0.6990828393
1.9850000000	0.6403180332
1.9900000000	0.5884830148
1.9950000000	0.5377110749
2.0000000000	0.4871470221
2.0050000000	0.4548423521
2.0100000000	0.4733501110
2.0150000000	0.5243356080
2.0200000000	0.5557720684
2.0250000000	0.5641212955
2.0300000000	0.5659988693
2.0350000000	0.5694159746
2.0400000000	0.5773488744
2.0450000000	0.5905559822
2.0500000000	0.6095290001
2.0550000000	0.6347143498
2.0600000000	0.6661123507
2.0650000000	0.7018222062
2.0700000000	0.7371300113
2.0750000000	0.7685034355
2.0800000000	0.7990603963
2.0850000000	0.8352483599
2.0900000000	0.8813896369
2.0950000000	0.9393049689
2.1000000000	1.0109537798
2.1050000000	1.0956877856
2.1100000000	1.1994622038
2.1150000000	1.3266305092
2.1200000000	1.4832978420
2.1250000000	1.6780275268
2.1300000000	1.9228903775
2.1350000000	2.2351197517
2.1400000000	2.6396000641
2.1450000000	3.1727124863
2.1500000000	3.8874657344
2.1550000000	4.8588816544
2.1600000000	6.1829764560
2.1650000000	7.9410641298
2.1700000000	10.1006159076
2.1750000000	12.2476601326
2.1800000000	13.5742567090
2.1850000000	13.6431701680
2.1900000000	13.0399690467
2.1950000000	12.5705644057
2.2000000000	12.3623947057
2.2050000000	11.7842178643
2.2100000000	10.5567401953
2.2150000000	9.0475673047
2.2200000000	7.6927723568
2.2250000000	6.5730795172
2.2300000000	5.5871214740
2.2350000000	4.6956615767
2.2400000000	3.9299311982
2.2450000000	3.3172471588
2.2500000000	2.8475742052
2.2550000000	2.4947550801
2.2600000000	2.2305894834
2.2650000000	2.0268171018
2.2700000000	1.8528866790
2.2750000000	1.6786969848
2.2800000000	1.4911544364
2.2850000000	1.3126882871
2.2900000000	1.1893540407
2.2950000000	1.1472234332
2.3000000000	1.1622764966
2.3050000000	1.1852657475
2.3100000000	1.1871950438
2.3150000000	1.1682994584
2.3200000000	1.1411307641
2.3250000000	1.1186535351
2.3300000000	1.1075012666
2.3350000000	1.1088130725
2.3400000000	1.1188722924
2.3450000000	1.1292677429
2.3500000000	1.1294081747
2.3550000000	1.1125364455
2.3600000000	1.0805648633
2.3650000000	1.0418497702
2.3700000000	1.0050046632
2.3750000000	0.9751740176
2.3800000000	0.9540291017
2.3850000000	0.9410974508
2.3900000000	0.9353014530
2.3950000000	0.9353927457
2.4000000000	0.9417112476
2.4050000000	0.9563378398
2.4100000000	0.9799697866
2.4150000000	1.0135724156
2.4200000000	1.0577258668
2.4250000000	1.1134458247
2.4300000000	1.1822137247
2.4350000000	1.2660168645
2.4400000000	1.3674196868
2.4450000000	1.4896965624
2.4500000000	1.6369785836
2.4550000000	1.8144581539
2.4600000000	2.0285147929
2.4650000000	2.2868026349
2.4700000000	2.5981001491
2.4750000000	2.9712005564
2.4800000000	3.4151850923
2.4850000000	3.9336484871
2.4900000000	4.5215229402
2.4950000000	5.1577708773
2.5000000000	5.7979020931
2.5050000000	6.3967197198
2.5100000000	6.8012696521
2.5150000000	6.9233313348
2.5200000000	6.7418778101
2.5250000000	6.3129211437
2.5300000000	5.7340484307
2.5350000000	5.0993819701
2.5400000000	4.4754199746
2.5450000000	3.8997357434
2.5500000000	3.3890381269
2.5550000000	2.9471311174
2.5600000000	2.5679389067
2.5650000000	2.2491347083
2.5700000000	1.9832123525
2.5750000000	1.7654728512
2.5800000000	1.5924062666
2.5850000000	1.4601972906
2.5900000000	1.3625710224
2.5950000000	1.2907056510
2.6000000000	1.2354157985
2.6050000000	1.1961222035
2.6100000000	1.1620994559
2.6150000000	1.1328082265
2.6200000000	1.1088271340
2.6250000000	1.0907972755
2.6300000000	1.0791467643
2.6350000000	1.0740940457
2.6400000000	1.0757660133
2.6450000000	1.0842807131
2.6500000000	1.0998692353
2.6550000000	1.1225963234
2.6600000000	1.1528107292
2.6650000000	1.1908647797
2.6700000000	1.2371912877
2.6750000000	1.2923147211
2.6800000000	1.3568163780
2.6850000000	1.4312908730
2.6900000000	1.5162252272
2.6950000000	1.6119018386
2.7000000000	1.7182236920
2.7050000000	1.8472830236
2.7100000000	1.9881324786
2.7150000000	2.1380288881
2.7200000000	2.2929826564
2.7250000000	2.4479820705
2.7300000000	2.5973724532
2.7350000000	2.7351821947
2.7400000000	2.8552012860
2.7450000000	2.9519178014
2.7500000000	3.0167814530
2.7550000000	3.0446163773
2.7600000000	3.0314951710
2.7650000000	2.9769613655
2.7700000000	2.8846694015
2.7750000000	2.7619409133
2.7800000000	2.6183191001
2.7850000000	2.4639279817
2.7900000000	2.3078513005
2.7950000000	2.1573733819
2.8000000000	2.0176449602
2.8050000000	1.8762728041
2.8100000000	1.7552771196
2.8150000000	1.6543333782
2.8200000000	1.5718166465
2.8250000000	1.5055852870
2.8300000000	1.4534819539
2.8350000000	1.4136603368
2.8400000000	1.3841768472
2.8450000000	1.3650991222
2.8500000000	1.3550146712
2.8550000000	1.3533852846
2.8600000000	1.3598090626
2.8650000000	1.3739239338
2.8700000000	1.3953248612
2.8750000000	1.4234979437
2.8800000000	1.4577694623
2.8850000000	1.4972632315
2.8900000000	1.5409260105
2.8950000000	1.5875666305
2.9000000000	1.6359324588
2.9050000000	1.6940518122
2.9100000000	1.7498055348
2.9150000000	1.8014400084
2.9200000000	1.8471148848
2.9250000000	1.8847420762
2.9300000000	1.9123988859
2.9350000000	1.9270950680
2.9400000000	1.9275400796
2.9450000000	1.9131842188
2.9500000000	1.8848557421
2.9550000000	1.8447075967
2.9600000000	1.7958472787
2.9650000000	1.7417958275
2.9700000000	1.6859580386
2.9750000000	1.6312436560
2.9800000000	1.5798822218
2.9850000000	1.5333948823
2.9900000000	1.4926965475
2.9950000000	1.4582166785
3.0000000000	1.4300456230
