# energy (eV)    P(omega), $W$ = 300 nm, $h$ = 300 nm, $s$ = 20 nm, $d/W = 5$, $E_{\rm e}$ = 200 keV
0.2000000000	0.0565600072
0.2050000000	0.0574213006
0.2100000000	0.0582216919
0.2150000000	0.0589632149
0.2200000000	0.0596477004
0.2250000000	0.0602766600
0.2300000000	0.0608513009
0.2350000000	0.0613724635
0.2400000000	0.0618405758
0.2450000000	0.0622555779
0.2500000000	0.0626168642
0.2550000000	0.0629231308
0.2600000000	0.0631723494
0.2650000000	0.0633615046
0.2700000000	0.0634864988
0.2750000000	0.0635418437
0.2800000000	0.0635203831
0.2850000000	0.0634128803
0.2900000000	0.0632075214
0.2950000000	0.0628892534
0.3000000000	0.0624388642
0.3050000000	0.0618318699
0.3100000000	0.0610369114
0.3150000000	0.0646315840
0.3200000000	0.0689005094
0.3250000000	0.0743036021
0.3300000000	0.0815462430
0.3350000000	0.0905588021
0.3400000000	0.1023604665
0.3450000000	0.1166620170
0.3500000000	0.1353630661
0.3550000000	0.1600950708
0.3600000000	0.1923625315
0.3650000000	0.2373236047
0.3700000000	0.2965479982
0.3750000000	0.3788656409
0.3800000000	0.4978300852
0.3850000000	0.6830782855
0.3900000000	0.9754964338
0.3950000000	1.4718165496
0.4000000000	2.4173030499
0.4050000000	4.5355635548
0.4100000000	10.3110802418
0.4150000000	33.0586722405
0.4200000000	21.0771740396
0.4250000000	-39.5629062176
0.4300000000	10.9798491154
0.4350000000	6.8332417623
0.4400000000	4.1709464721
0.4450000000	2.7389423244
0.4500000000	1.9151464007
0.4550000000	1.4085142578
0.4600000000	1.0787454449
0.4650000000	0.8541500593
0.4700000000	0.6954841867
0.4750000000	0.5807724858
0.4800000000	0.4957404178
0.4850000000	0.4317556548
0.4900000000	0.3829014651
0.4950000000	0.3452076635
0.5000000000	0.3159600244
0.5050000000	0.2931692365
0.5100000000	0.2755521598
0.5150000000	0.2621631880
0.5200000000	0.2520202000
0.5250000000	0.2446752672
0.5300000000	0.2396521748
0.5350000000	0.2366011334
0.5400000000	0.2352639131
0.5450000000	0.2354248980
0.5500000000	0.2370115738
0.5550000000	0.2399010411
0.5600000000	0.2440278015
0.5650000000	0.2493605483
0.5700000000	0.2558690870
0.5750000000	0.2635978893
0.5800000000	0.2726189225
0.5850000000	0.2829781948
0.5900000000	0.2947680458
0.5950000000	0.3081067155
0.6000000000	0.3231442635
0.6050000000	0.3401021058
0.6100000000	0.3591886738
0.6150000000	0.3806910513
0.6200000000	0.4049924961
0.6250000000	0.4324600475
0.6300000000	0.4636373455
0.6350000000	0.4992017445
0.6400000000	0.5398571342
0.6450000000	0.5866212627
0.6500000000	0.6408312172
0.6550000000	0.7038780763
0.6600000000	0.7779018206
0.6650000000	0.8656453397
0.6700000000	0.9703327272
0.6750000000	1.0968830626
0.6800000000	1.2519082093
0.6850000000	1.4440663057
0.6900000000	1.6867665179
0.6950000000	1.9987584050
0.7000000000	2.4098205124
0.7050000000	2.9654645865
0.7100000000	3.7427900858
0.7150000000	4.8790236801
0.7200000000	6.6295677333
0.7250000000	9.5342033219
0.7300000000	14.8635548210
0.7350000000	26.2621123328
0.7400000000	57.5096331585
0.7450000000	190.6355861222
0.7500000000	590.1201615424
0.7550000000	148.3391777987
0.7600000000	49.0872066166
0.7650000000	23.5009473374
0.7700000000	13.6563265991
0.7750000000	8.9059236912
0.7800000000	6.2624148574
0.7850000000	4.6473354339
0.7900000000	3.5875311467
0.7950000000	2.8568862219
0.8000000000	2.3318478591
0.8050000000	1.9409566458
0.8100000000	1.6429891428
0.8150000000	1.4068882574
0.8200000000	1.2206118984
0.8250000000	1.0706729451
0.8300000000	0.9478922675
0.8350000000	0.8469689855
0.8400000000	0.7623906132
0.8450000000	0.6914346696
0.8500000000	0.6314639173
0.8550000000	0.5797270137
0.8600000000	0.5355630106
0.8650000000	0.4978342422
0.8700000000	0.4645071812
0.8750000000	0.4361445569
0.8800000000	0.4120595627
0.8850000000	0.3904681236
0.8900000000	0.3731058037
0.8950000000	0.3573125849
0.9000000000	0.3447487889
0.9050000000	0.3360082684
0.9100000000	0.3279924778
0.9150000000	0.3230203785
0.9200000000	0.3221593019
0.9250000000	0.3214614702
0.9300000000	0.3165281711
0.9350000000	0.3023122473
0.9400000000	0.2242014100
0.9450000000	-0.1298468105
0.9500000000	-1.9962446687
0.9550000000	-11.4555323826
0.9600000000	2.7018179530
0.9650000000	4.7421804738
0.9700000000	2.1023364506
0.9750000000	1.1035369949
0.9800000000	0.6917123881
0.9850000000	0.4991524271
0.9900000000	0.3882563716
0.9950000000	0.3210317427
1.0000000000	0.2781142319
1.0050000000	0.2508928987
1.0100000000	0.2298103060
1.0150000000	0.2144145307
1.0200000000	0.2040380695
1.0250000000	0.1953480402
1.0300000000	0.1887576917
1.0350000000	0.1837861055
1.0400000000	0.1806355819
1.0450000000	0.1780406021
1.0500000000	0.1763573729
1.0550000000	0.1754833429
1.0600000000	0.1756449883
1.0650000000	0.1762111164
1.0700000000	0.1774408030
1.0750000000	0.1793394456
1.0800000000	0.1820780786
1.0850000000	0.1855510365
1.0900000000	0.1906410944
1.0950000000	0.1966781734
1.1000000000	0.2038584730
1.1050000000	0.2121479876
1.1100000000	0.2218009564
1.1150000000	0.2330366748
1.1200000000	0.2461069732
1.1250000000	0.2613761498
1.1300000000	0.2792909890
1.1350000000	0.3004216972
1.1400000000	0.3254085024
1.1450000000	0.3554581539
1.1500000000	0.3918516477
1.1550000000	0.4364551289
1.1600000000	0.4919015889
1.1650000000	0.5615983533
1.1700000000	0.6519704962
1.1750000000	0.7715101511
1.1800000000	0.9342692672
1.1850000000	1.1633548207
1.1900000000	1.5022650201
1.1950000000	2.0346270506
1.2000000000	2.9379450189
1.2050000000	4.6453097316
1.2100000000	8.4011698250
1.2150000000	18.5504980276
1.2200000000	45.5330797802
1.2250000000	40.8696080850
1.2300000000	16.2654848311
1.2350000000	7.5995130609
1.2400000000	4.3165212257
1.2450000000	2.8074510709
1.2500000000	2.0092815786
1.2550000000	1.5462354043
1.2600000000	1.2617005992
1.2650000000	1.0802770241
1.2700000000	0.9679152702
1.2750000000	0.9024837430
1.2800000000	0.8730993385
1.2850000000	0.8745518504
1.2900000000	0.9055053896
1.2950000000	0.9673235692
1.3000000000	1.0683092223
1.3050000000	1.2189682071
1.3100000000	1.4395519161
1.3150000000	1.7652693485
1.3200000000	2.2596792729
1.3250000000	3.0437338456
1.3300000000	4.3831932490
1.3350000000	6.8933794630
1.3400000000	12.2588041254
1.3450000000	25.5754842407
1.3500000000	54.2196761745
1.3550000000	50.5334789592
1.3600000000	23.2948190383
1.3650000000	11.4444291461
1.3700000000	6.5638169284
1.3750000000	4.2220372985
1.3800000000	2.9452527996
1.3850000000	2.1760432302
1.3900000000	1.6800575278
1.3950000000	1.3414861103
1.4000000000	1.1003058143
1.4050000000	0.9227164218
1.4100000000	0.7880645502
1.4150000000	0.6837010995
1.4200000000	0.6002133678
1.4250000000	0.5333440875
1.4300000000	0.4792485258
1.4350000000	0.4242462380
1.4400000000	0.2501063966
1.4450000000	-0.2008634119
1.4500000000	-1.0258551315
1.4550000000	-0.3725707736
1.4600000000	0.9360107101
1.4650000000	0.5695860742
1.4700000000	-0.2430623794
1.4750000000	-1.4853586034
1.4800000000	-0.6474371686
1.4850000000	1.1660085894
1.4900000000	0.9433121949
1.4950000000	0.6146328379
1.5000000000	0.4347268895
1.5050000000	0.3369961033
1.5100000000	0.2809679514
1.5150000000	0.2464823200
1.5200000000	0.2237986677
1.5250000000	0.2093605480
1.5300000000	0.1978899586
1.5350000000	0.1894948063
1.5400000000	0.1833467992
1.5450000000	0.1789399872
1.5500000000	0.1759425960
1.5550000000	0.1741869250
1.5600000000	0.1739552168
1.5650000000	0.1746002670
1.5700000000	0.1767121193
1.5750000000	0.1806928026
1.5800000000	0.1873578353
1.5850000000	0.1983133522
1.5900000000	0.2169467117
1.5950000000	0.2507015239
1.6000000000	0.3150895093
1.6050000000	0.4193268967
1.6100000000	0.4655651145
1.6150000000	0.3760022620
1.6200000000	0.2950190968
1.6250000000	0.2548546988
1.6300000000	0.2372946498
1.6350000000	0.2310090414
1.6400000000	0.2309243518
1.6450000000	0.2347456737
1.6500000000	0.2413893843
1.6550000000	0.2504026401
1.6600000000	0.2616098470
1.6650000000	0.2750311399
1.6700000000	0.2908188088
1.6750000000	0.3092379888
1.6800000000	0.3306651091
1.6850000000	0.3556012980
1.6900000000	0.3846895286
1.6950000000	0.4185408049
1.7000000000	0.4584445881
1.7050000000	0.5067518192
1.7100000000	0.5662502646
1.7150000000	0.6507290432
1.7200000000	0.7677943806
1.7250000000	0.9096985717
1.7300000000	1.0879125986
1.7350000000	1.2783550895
1.7400000000	1.4464874524
1.7450000000	1.6555642467
1.7500000000	1.9799339047
1.7550000000	2.4695879557
1.7600000000	3.2058831293
1.7650000000	4.3424851209
1.7700000000	6.1733641186
1.7750000000	9.2561045937
1.7800000000	14.5038969659
1.7850000000	22.2307387585
1.7900000000	27.5883624378
1.7950000000	23.4547613335
1.8000000000	15.5811619657
1.8050000000	9.8188519114
1.8100000000	6.4577495332
1.8150000000	4.4889474399
1.8200000000	3.2776981445
1.8250000000	2.4923645498
1.8300000000	1.9587853608
1.8350000000	1.5815866882
1.8400000000	1.3060399133
1.8450000000	1.0988774939
1.8500000000	0.9391045221
1.8550000000	0.8135494022
1.8600000000	0.7128979730
1.8650000000	0.6307137858
1.8700000000	0.5622451080
1.8750000000	0.5037663979
1.8800000000	0.4520018068
1.8850000000	0.4036290968
1.8900000000	0.3544262551
1.8950000000	0.2979735114
1.9000000000	0.2234667656
1.9050000000	0.0966511891
1.9100000000	-0.0874937432
1.9150000000	-0.2858134545
1.9200000000	-0.1971182499
1.9250000000	0.3823205959
1.9300000000	0.8477481239
1.9350000000	0.8855180334
1.9400000000	0.7299492129
1.9450000000	0.5727621049
1.9500000000	0.4597406225
1.9550000000	0.3839112437
1.9600000000	0.3327502012
1.9650000000	0.2988788647
1.9700000000	0.2732290942
1.9750000000	0.2544042528
1.9800000000	0.2402252921
1.9850000000	0.2291528876
1.9900000000	0.2200901129
1.9950000000	0.2121483985
2.0000000000	0.2051134448
2.0050000000	0.2015287067
2.0100000000	0.2048169178
2.0150000000	0.2126789933
2.0200000000	0.2188673841
2.0250000000	0.2230862756
2.0300000000	0.2275904836
2.0350000000	0.2333527689
2.0400000000	0.2411153719
2.0450000000	0.2513614279
2.0500000000	0.2646717232
2.0550000000	0.2816352700
2.0600000000	0.3022801247
2.0650000000	0.3246450159
2.0700000000	0.3438643713
2.0750000000	0.3560738187
2.0800000000	0.3639115244
2.0850000000	0.3732696849
2.0900000000	0.3877959373
2.0950000000	0.4086051861
2.1000000000	0.4362971481
2.1050000000	0.4702384120
2.1100000000	0.5127970536
2.1150000000	0.5656170228
2.1200000000	0.6311381663
2.1250000000	0.7128677892
2.1300000000	0.8158067809
2.1350000000	0.9471279075
2.1400000000	1.1171991420
2.1450000000	1.3411751740
2.1500000000	1.6411169074
2.1550000000	2.0482055329
2.1600000000	2.6023080479
2.1650000000	3.3371386829
2.1700000000	4.2399267430
2.1750000000	5.1409175599
2.1800000000	5.7105849014
2.1850000000	5.7747146171
2.1900000000	5.5786063206
2.1950000000	5.4484097856
2.2000000000	5.4109144418
2.2050000000	5.1506851809
2.2100000000	4.5354797099
2.2150000000	3.7540336435
2.2200000000	3.0390352365
2.2250000000	2.4663633922
2.2300000000	2.0156217969
2.2350000000	1.6576099526
2.2400000000	1.3735665937
2.2450000000	1.1518651226
2.2500000000	0.9789644335
2.2550000000	0.8425479793
2.2600000000	0.7323348815
2.2650000000	0.6397711877
2.2700000000	0.5576695561
2.2750000000	0.4809853376
2.2800000000	0.4100751831
2.2850000000	0.3538412639
2.2900000000	0.3254701605
2.2950000000	0.3295070282
2.3000000000	0.3529440594
2.3050000000	0.3758486901
2.3100000000	0.3857350183
2.3150000000	0.3832368964
2.3200000000	0.3738210114
2.3250000000	0.3630681260
2.3300000000	0.3539940653
2.3350000000	0.3476440701
2.3400000000	0.3438016057
2.3450000000	0.3413477946
2.3500000000	0.3387888354
2.3550000000	0.3351694719
2.3600000000	0.3307546369
2.3650000000	0.3267029756
2.3700000000	0.3241631339
2.3750000000	0.3236964436
2.3800000000	0.3252077181
2.3850000000	0.3281211134
2.3900000000	0.3317951188
2.3950000000	0.3356810715
2.4000000000	0.3401064467
2.4050000000	0.3462912346
2.4100000000	0.3548556068
2.4150000000	0.3665859539
2.4200000000	0.3820171380
2.4250000000	0.4016357647
2.4300000000	0.4259876551
2.4350000000	0.4557569761
2.4400000000	0.4918240051
2.4450000000	0.5353244201
2.4500000000	0.5877036008
2.4550000000	0.6507901456
2.4600000000	0.7268420753
2.4650000000	0.8185915315
2.4700000000	0.9292032821
2.4750000000	1.0618987909
2.4800000000	1.2201625707
2.4850000000	1.4055614810
2.4900000000	1.6165610069
2.4950000000	1.8455293475
2.5000000000	2.0755118485
2.5050000000	2.2880708826
2.5100000000	2.4253899243
2.5150000000	2.4554537022
2.5200000000	2.3741224279
2.5250000000	2.2068429418
2.5300000000	1.9923295313
2.5350000000	1.7645402469
2.5400000000	1.5449840052
2.5450000000	1.3442914883
2.5500000000	1.1664351211
2.5550000000	1.0119196334
2.5600000000	0.8785032379
2.5650000000	0.7658934476
2.5700000000	0.6718433418
2.5750000000	0.5950229223
2.5800000000	0.5343934771
2.5850000000	0.4886682197
2.5900000000	0.4555241830
2.5950000000	0.4315984818
2.6000000000	0.4133737789
2.6050000000	0.4003756550
2.6100000000	0.3887046033
2.6150000000	0.3782170919
2.6200000000	0.3691751897
2.6250000000	0.3618365540
2.6300000000	0.3563567641
2.6350000000	0.3528032744
2.6400000000	0.3512114745
2.6450000000	0.3516213423
2.6500000000	0.3541187206
2.6550000000	0.3587180559
2.6600000000	0.3655400134
2.6650000000	0.3746911900
2.6700000000	0.3862971849
2.6750000000	0.4005070171
2.6800000000	0.4174865410
2.6850000000	0.4374168946
2.6900000000	0.4604731171
2.6950000000	0.4868138593
2.7000000000	0.5165490164
2.7050000000	0.5532590770
2.7100000000	0.5944036112
2.7150000000	0.6397001125
2.7200000000	0.6885380305
2.7250000000	0.7399003107
2.7300000000	0.7922912113
2.7350000000	0.8436729714
2.7400000000	0.8914327574
2.7450000000	0.9328123308
2.7500000000	0.9638077060
2.7550000000	0.9816686323
2.7600000000	0.9843295380
2.7650000000	0.9712591081
2.7700000000	0.9436477627
2.7750000000	0.9041664869
2.7800000000	0.8563576761
2.7850000000	0.8039898359
2.7900000000	0.7504295435
2.7950000000	0.6983721526
2.8000000000	0.6497188459
2.8050000000	0.6002457985
2.8100000000	0.5575387050
2.8150000000	0.5215001464
2.8200000000	0.4915636502
2.8250000000	0.4669763371
2.8300000000	0.4469829565
2.8350000000	0.4309398352
2.8400000000	0.4181627062
2.8450000000	0.4086976592
2.8500000000	0.4020432285
2.8550000000	0.3980125667
2.8600000000	0.3964734885
2.8650000000	0.3973215630
2.8700000000	0.4004638224
2.8750000000	0.4058051314
2.8800000000	0.4132354260
2.8850000000	0.4226178558
2.8900000000	0.4337839283
2.8950000000	0.4465278574
2.9000000000	0.4606055612
2.9050000000	0.4790981275
2.9100000000	0.4980840008
2.9150000000	0.5168310134
2.9200000000	0.5344587285
2.9250000000	0.5499463031
2.9300000000	0.5623342857
2.9350000000	0.5703453366
2.9400000000	0.5733396375
2.9450000000	0.5709895578
2.9500000000	0.5634879668
2.9550000000	0.5515192351
2.9600000000	0.5361257191
2.9650000000	0.5185166560
2.9700000000	0.4998786569
2.9750000000	0.4812412972
2.9800000000	0.4634030649
2.9850000000	0.4469209904
2.9900000000	0.4321378603
2.9950000000	0.4192282831
3.0000000000	0.4082485560
