# energy (eV)    P(omega), $W$ = 300 nm, $h$ = 300 nm, $s$ = 20 nm, $d/W = 5$, $E_{\rm e}$ = 200 keV
0.2000000000	0.0971811467
0.2050000000	0.0986389926
0.2100000000	0.1000037388
0.2150000000	0.1012784027
0.2200000000	0.1024655058
0.2250000000	0.1035672137
0.2300000000	0.1045851503
0.2350000000	0.1055203932
0.2400000000	0.1063732946
0.2450000000	0.1071434886
0.2500000000	0.1078296669
0.2550000000	0.1084294013
0.2600000000	0.1089390839
0.2650000000	0.1093534778
0.2700000000	0.1096655177
0.2750000000	0.1098658475
0.2800000000	0.1099423365
0.2850000000	0.1098794135
0.2900000000	0.1096571174
0.2950000000	0.1092501531
0.3000000000	0.1086261924
0.3050000000	0.1077440518
0.3100000000	0.1065510004
0.3150000000	0.1125856043
0.3200000000	0.1197523523
0.3250000000	0.1288155053
0.3300000000	0.1409507774
0.3350000000	0.1560566986
0.3400000000	0.1758379712
0.3450000000	0.1998342861
0.3500000000	0.2312271835
0.3550000000	0.2727683890
0.3600000000	0.3270141464
0.3650000000	0.4026435714
0.3700000000	0.5023803430
0.3750000000	0.6411329353
0.3800000000	0.8418294284
0.3850000000	1.1545809719
0.3900000000	1.6487150124
0.3950000000	2.4881544359
0.4000000000	4.0885900446
0.4050000000	7.6771010040
0.4100000000	17.4699161579
0.4150000000	56.0740600646
0.4200000000	35.7262085873
0.4250000000	-67.2716856206
0.4300000000	18.7114860816
0.4350000000	11.6624597151
0.4400000000	7.1307648728
0.4450000000	4.6911267699
0.4500000000	3.2865427228
0.4550000000	2.4220875863
0.4600000000	1.8590238739
0.4650000000	1.4752961857
0.4700000000	1.2040649633
0.4750000000	1.0078937125
0.4800000000	0.8624437475
0.4850000000	0.7529955900
0.4900000000	0.6694531312
0.4950000000	0.6050384637
0.5000000000	0.5551187489
0.5050000000	0.5162944837
0.5100000000	0.4863769252
0.5150000000	0.4637551517
0.5200000000	0.4467437912
0.5250000000	0.4345846816
0.5300000000	0.4264629598
0.5350000000	0.4217831497
0.5400000000	0.4201063127
0.5450000000	0.4210655993
0.5500000000	0.4245460746
0.5550000000	0.4303412274
0.5600000000	0.4383462154
0.5650000000	0.4485143833
0.5700000000	0.4608036078
0.5750000000	0.4753000464
0.5800000000	0.4921435647
0.5850000000	0.5114259357
0.5900000000	0.5333237615
0.5950000000	0.5580589514
0.6000000000	0.5859142235
0.6050000000	0.6172984819
0.6100000000	0.6526025213
0.6150000000	0.6923596843
0.6200000000	0.7372812887
0.6250000000	0.7880495330
0.6300000000	0.8456724141
0.6350000000	0.9114062612
0.6400000000	0.9865586065
0.6450000000	1.0730162327
0.6500000000	1.1732601692
0.6550000000	1.2898735415
0.6600000000	1.4268253568
0.6650000000	1.5892099698
0.6700000000	1.7830154877
0.6750000000	2.0173749073
0.6800000000	2.3045673794
0.6850000000	2.6606824254
0.6900000000	3.1106381401
0.6950000000	3.6892873583
0.7000000000	4.4519914710
0.7050000000	5.4833891945
0.7100000000	6.9268919531
0.7150000000	9.0377938172
0.7200000000	12.2913889468
0.7250000000	17.6924013407
0.7300000000	27.6064983143
0.7350000000	48.8208629233
0.7400000000	107.0048618253
0.7450000000	355.0214454472
0.7500000000	1099.9652951521
0.7550000000	276.7468477016
0.7600000000	91.6609670926
0.7650000000	43.9228996970
0.7700000000	25.5464137017
0.7750000000	16.6749871255
0.7800000000	11.7359884304
0.7850000000	8.7171334530
0.7900000000	6.7353171848
0.7950000000	5.3684404724
0.8000000000	4.3857976025
0.8050000000	3.6539152644
0.8100000000	3.0957893133
0.8150000000	2.6533300507
0.8200000000	2.3041158165
0.8250000000	2.0229205549
0.8300000000	1.7925687425
0.8350000000	1.6031708036
0.8400000000	1.4443941353
0.8450000000	1.3111565211
0.8500000000	1.1985303767
0.8550000000	1.1013351563
0.8600000000	1.0183621326
0.8650000000	0.9474898692
0.8700000000	0.8848663723
0.8750000000	0.8315986892
0.8800000000	0.7864034244
0.8850000000	0.7458829861
0.8900000000	0.7133872684
0.8950000000	0.6838259875
0.9000000000	0.6604073422
0.9050000000	0.6442975994
0.9100000000	0.6295359909
0.9150000000	0.6206058865
0.9200000000	0.6195883615
0.9250000000	0.6188474330
0.9300000000	0.6098191061
0.9350000000	0.5825984561
0.9400000000	0.4307045139
0.9450000000	-0.2599257808
0.9500000000	-3.9051335103
0.9550000000	-22.3958244093
0.9600000000	5.2847528231
0.9650000000	9.2843898088
0.9700000000	4.1181537119
0.9750000000	2.1619405048
0.9800000000	1.3548830707
0.9850000000	0.9774108978
0.9900000000	0.7599104320
0.9950000000	0.6280204878
1.0000000000	0.5438082725
1.0050000000	0.4904232535
1.0100000000	0.4490334513
1.0150000000	0.4187953515
1.0200000000	0.3984307459
1.0250000000	0.3813347204
1.0300000000	0.3683462030
1.0350000000	0.3585189837
1.0400000000	0.3522712053
1.0450000000	0.3470726060
1.0500000000	0.3436401249
1.0550000000	0.3417708136
1.0600000000	0.3419243764
1.0650000000	0.3428214525
1.0700000000	0.3449833940
1.0750000000	0.3484193969
1.0800000000	0.3534712850
1.0850000000	0.3598815864
1.0900000000	0.3693406933
1.0950000000	0.3805748157
1.1000000000	0.3939618940
1.1050000000	0.4093884090
1.1100000000	0.4273430490
1.1150000000	0.4482290992
1.1200000000	0.4725262376
1.1250000000	0.5008554913
1.1300000000	0.5340556477
1.1350000000	0.5731685276
1.1400000000	0.6193821118
1.1450000000	0.6748587966
1.1500000000	0.7419553322
1.1550000000	0.8240762458
1.1600000000	0.9260248662
1.1650000000	1.0540357073
1.1700000000	1.2197796257
1.1750000000	1.4387579820
1.1800000000	1.7365919002
1.1850000000	2.1553999370
1.1900000000	2.7745658740
1.1950000000	3.7464948274
1.2000000000	5.3949995134
1.2050000000	8.5102444467
1.2100000000	15.3632900251
1.2150000000	33.8878448095
1.2200000000	83.1697085069
1.2250000000	74.7315030002
1.2300000000	29.8166392192
1.2350000000	13.9893678607
1.2400000000	7.9943313862
1.2450000000	5.2419126630
1.2500000000	3.7901835242
1.2550000000	2.9527074160
1.2600000000	2.4435062018
1.2650000000	2.1250284015
1.2700000000	1.9357572080
1.2750000000	1.8358092564
1.2800000000	1.8062561838
1.2850000000	1.8388986032
1.2900000000	1.9332178211
1.2950000000	2.0941532136
1.3000000000	2.3414793473
1.3050000000	2.7005682834
1.3100000000	3.2186254131
1.3150000000	3.9773026715
1.3200000000	5.1233497684
1.3250000000	6.9364907093
1.3300000000	10.0292371741
1.3350000000	15.8218052516
1.3400000000	28.2021591501
1.3450000000	58.9370795305
1.3500000000	125.0873806151
1.3550000000	116.6670820904
1.3600000000	53.8020512453
1.3650000000	26.4350610873
1.3700000000	15.1600891695
1.3750000000	9.7491565041
1.3800000000	6.7988021729
1.3850000000	5.0215469523
1.3900000000	3.8761086644
1.3950000000	3.0946288027
1.4000000000	2.5387868173
1.4050000000	2.1305840430
1.4100000000	1.8228046583
1.4150000000	1.5872755413
1.4200000000	1.4041755391
1.4250000000	1.2684303094
1.4300000000	1.1833068502
1.4350000000	1.1291290505
1.4400000000	0.7810637990
1.4450000000	-0.1862979668
1.4500000000	-1.8651258715
1.4550000000	-0.6195737531
1.4600000000	1.9101351097
1.4650000000	1.1029594649
1.4700000000	-0.7196710234
1.4750000000	-3.6086015138
1.4800000000	-1.5932443244
1.4850000000	2.7218113788
1.4900000000	2.2034013146
1.4950000000	1.4291109322
1.5000000000	1.0058070950
1.5050000000	0.7766749576
1.5100000000	0.6455080909
1.5150000000	0.5650842742
1.5200000000	0.5123984296
1.5250000000	0.4789369497
1.5300000000	0.4525555852
1.5350000000	0.4333656149
1.5400000000	0.4194309186
1.5450000000	0.4095946373
1.5500000000	0.4030510462
1.5550000000	0.3994586544
1.5600000000	0.3994866361
1.5650000000	0.4017261859
1.5700000000	0.4076140001
1.5750000000	0.4182421428
1.5800000000	0.4357986583
1.5850000000	0.4645987137
1.5900000000	0.5137784966
1.5950000000	0.6035451003
1.6000000000	0.7765191712
1.6050000000	1.0605356819
1.6100000000	1.1937198962
1.6150000000	0.9556935181
1.6200000000	0.7347740195
1.6250000000	0.6227875115
1.6300000000	0.5718288405
1.6350000000	0.5513738591
1.6400000000	0.5475953402
1.6450000000	0.5541749507
1.6500000000	0.5680406335
1.6550000000	0.5879551388
1.6600000000	0.6132919107
1.6650000000	0.6439920931
1.6700000000	0.6803292068
1.6750000000	0.7228380490
1.6800000000	0.7722884143
1.6850000000	0.8297049343
1.6900000000	0.8962709308
1.6950000000	0.9726678637
1.7000000000	1.0605710622
1.7050000000	1.1622154945
1.7100000000	1.2854284771
1.7150000000	1.4930110644
1.7200000000	1.8066612184
1.7250000000	2.1449505111
1.7300000000	2.5467983563
1.7350000000	2.9818153518
1.7400000000	3.3840610303
1.7450000000	3.8912125607
1.7500000000	4.6682859526
1.7550000000	5.8335263039
1.7600000000	7.5816196351
1.7650000000	10.2784361643
1.7700000000	14.6227369805
1.7750000000	21.9399707313
1.7800000000	34.4028307156
1.7850000000	52.7690825991
1.7900000000	65.5371121033
1.7950000000	55.7639880625
1.8000000000	37.0783382193
1.8050000000	23.3896335952
1.8100000000	15.4006327117
1.8150000000	10.7191197717
1.8200000000	7.8382190351
1.8250000000	5.9701619423
1.8300000000	4.7011111983
1.8350000000	3.8043940290
1.8400000000	3.1499047259
1.8450000000	2.6586222653
1.8500000000	2.2806922774
1.8550000000	1.9848569828
1.8600000000	1.7491352511
1.8650000000	1.5584179521
1.8700000000	1.4016986768
1.8750000000	1.2705398867
1.8800000000	1.1577645678
1.8850000000	1.0563810018
1.8900000000	0.9577427284
1.8950000000	0.8487504281
1.9000000000	0.7072047073
1.9050000000	0.4606124871
1.9100000000	0.1065858819
1.9150000000	-0.2331926636
1.9200000000	0.1849529458
1.9250000000	1.8462101477
1.9300000000	3.1732370257
1.9350000000	3.2016634671
1.9400000000	2.5692789399
1.9450000000	1.9463657314
1.9500000000	1.5049302909
1.9550000000	1.2129875795
1.9600000000	1.0184686107
1.9650000000	0.8888434792
1.9700000000	0.7934558914
1.9750000000	0.7235113648
1.9800000000	0.6704198524
1.9850000000	0.6280206870
1.9900000000	0.5917255697
1.9950000000	0.5576437772
2.0000000000	0.5250787669
2.0050000000	0.5056930388
2.0100000000	0.5186996467
2.0150000000	0.5526315426
2.0200000000	0.5755111446
2.0250000000	0.5853782024
2.0300000000	0.5928359881
2.0350000000	0.6027913071
2.0400000000	0.6176158822
2.0450000000	0.6383043728
2.0500000000	0.6658617679
2.0550000000	0.7012870361
2.0600000000	0.7446396002
2.0650000000	0.7924959489
2.0700000000	0.8363288738
2.0750000000	0.8694856863
2.0800000000	0.8969366321
2.0850000000	0.9294676327
2.0900000000	0.9739499735
2.0950000000	1.0327809689
2.1000000000	1.1078230843
2.1050000000	1.1979679847
2.1100000000	1.3094946464
2.1150000000	1.4469102356
2.1200000000	1.6166866258
2.1250000000	1.8280057080
2.1300000000	2.0938714465
2.1350000000	2.4328904329
2.1400000000	2.8719322310
2.1450000000	3.4502707953
2.1500000000	4.2251030628
2.1550000000	5.2773257845
2.1600000000	6.7104481521
2.1650000000	8.6122052647
2.1700000000	10.9492031315
2.1750000000	13.2796533823
2.1800000000	14.7433217920
2.1850000000	14.8805740627
2.1900000000	14.3248340985
2.1950000000	13.9304615439
2.2000000000	13.7928417255
2.2050000000	13.1456904876
2.2100000000	11.6609689249
2.2150000000	9.7928844820
2.2200000000	8.0938535201
2.2250000000	6.7167504088
2.2300000000	5.5852172853
2.2350000000	4.6372456221
2.2400000000	3.8583770582
2.2450000000	3.2432138037
2.2500000000	2.7665203117
2.2550000000	2.3976797038
2.2600000000	2.1082999996
2.2650000000	1.8727579250
2.2700000000	1.6667697940
2.2750000000	1.4697784367
2.2800000000	1.2769514524
2.2850000000	1.1118095915
2.2900000000	1.0144960879
2.2950000000	1.0030607726
2.3000000000	1.0466212367
2.3050000000	1.0925995702
2.3100000000	1.1087675950
2.3150000000	1.0961216578
2.3200000000	1.0685861371
2.3250000000	1.0404758928
2.3300000000	1.0193913507
2.3350000000	1.0075463907
2.3400000000	1.0032652157
2.3450000000	1.0016799007
2.3500000000	0.9965221955
2.3550000000	0.9837875580
2.3600000000	0.9645838572
2.3650000000	0.9437960094
2.3700000000	0.9263900608
2.3750000000	0.9151283070
2.3800000000	0.9104590588
2.3850000000	0.9112816265
2.3900000000	0.9161887497
2.3950000000	0.9238286916
2.4000000000	0.9348728602
2.4050000000	0.9521831462
2.4100000000	0.9769661040
2.4150000000	1.0108974210
2.4200000000	1.0551361225
2.4250000000	1.1109260083
2.4300000000	1.1797963097
2.4350000000	1.2637080558
2.4400000000	1.3651837025
2.4450000000	1.4874568087
2.4500000000	1.6346250567
2.4550000000	1.8118611604
2.4600000000	2.0255196613
2.4650000000	2.2832665755
2.4700000000	2.5939158888
2.4750000000	2.9663575952
2.4800000000	3.4099639716
2.4850000000	3.9286199442
2.4900000000	4.5174489493
2.4950000000	5.1549577374
2.5000000000	5.7947797592
2.5050000000	6.3877565769
2.5100000000	6.7765850238
2.5150000000	6.8730243563
2.5200000000	6.6623051142
2.5250000000	6.2097676162
2.5300000000	5.6192684510
2.5350000000	4.9850514381
2.5400000000	4.3693309987
2.5450000000	3.8045827378
2.5500000000	3.3038904946
2.5550000000	2.8695039620
2.5600000000	2.4952279966
2.5650000000	2.1796986567
2.5700000000	1.9162147696
2.5750000000	1.7007283979
2.5800000000	1.5301464665
2.5850000000	1.4008178654
2.5900000000	1.3063592325
2.5950000000	1.2376082738
2.6000000000	1.1849858117
2.6050000000	1.1474336883
2.6100000000	1.1141407293
2.6150000000	1.0846611145
2.6200000000	1.0596875205
2.6250000000	1.0399313125
2.6300000000	1.0258492866
2.6350000000	1.0176621058
2.6400000000	1.0154842838
2.6450000000	1.0194320827
2.6500000000	1.0297445058
2.6550000000	1.0464739617
2.6600000000	1.0699871297
2.6650000000	1.1006332677
2.6700000000	1.1388225876
2.6750000000	1.1850361162
2.6800000000	1.2397886254
2.6850000000	1.3036038030
2.6900000000	1.3769454930
2.6950000000	1.4601684283
2.7000000000	1.5534003229
2.7050000000	1.6675475434
2.7100000000	1.7939257619
2.7150000000	1.9309899229
2.7200000000	2.0761448168
2.7250000000	2.2257027609
2.7300000000	2.3748937767
2.7350000000	2.5178839706
2.7400000000	2.6477367867
2.7450000000	2.7575331556
2.7500000000	2.8369951975
2.7550000000	2.8793200035
2.7600000000	2.8793700356
2.7650000000	2.8360127485
2.7700000000	2.7526993528
2.7750000000	2.6368824660
2.7800000000	2.4983996295
2.7850000000	2.3477151337
2.7900000000	2.1942045086
2.7950000000	2.0453837791
2.8000000000	1.9065717074
2.8050000000	1.7655668079
2.8100000000	1.6441841336
2.8150000000	1.5421536117
2.8200000000	1.4578830027
2.8250000000	1.3892543052
2.8300000000	1.3341308328
2.8350000000	1.2906949551
2.8400000000	1.2570113325
2.8450000000	1.2332001188
2.8500000000	1.2178381681
2.8550000000	1.2103885422
2.8600000000	1.2104548706
2.8650000000	1.2176985441
2.8700000000	1.2317919066
2.8750000000	1.2523599202
2.8800000000	1.2789421617
2.8850000000	1.3109576762
2.8900000000	1.3477154273
2.8950000000	1.3883909315
2.9000000000	1.4320836326
2.9050000000	1.4873176785
2.9100000000	1.5425116897
2.9150000000	1.5956957701
2.9200000000	1.6446110929
2.9250000000	1.6866488135
2.9300000000	1.7193814475
2.9350000000	1.7393979460
2.9400000000	1.7450766525
2.9450000000	1.7356237581
2.9500000000	1.7116858264
2.9550000000	1.6753004936
2.9600000000	1.6294958342
2.9650000000	1.5777570423
2.9700000000	1.5234967625
2.9750000000	1.4696549289
2.9800000000	1.4185055901
2.9850000000	1.3716205319
2.9900000000	1.3299698567
2.9950000000	1.2940217777
3.0000000000	1.2639130533
