# energy (eV)    P(omega), $W$ = 400 nm, $h$ = 300 nm, $s$ = 20 nm, $d/W = 5$, $E_{\rm e}$ = 200 keV
0.2000000000	0.0402329952
0.2050000000	0.0405989913
0.2100000000	0.0408567068
0.2150000000	0.0410018013
0.2200000000	0.0410282060
0.2250000000	0.0409276766
0.2300000000	0.0406893657
0.2350000000	0.0402991498
0.2400000000	0.0397388666
0.2450000000	0.0389851076
0.2500000000	0.0380079462
0.2550000000	0.0367688753
0.2600000000	0.0352182736
0.2650000000	0.0368431232
0.2700000000	0.0409704328
0.2750000000	0.0468765100
0.2800000000	0.0551053923
0.2850000000	0.0672369706
0.2900000000	0.0822689759
0.2950000000	0.1038187211
0.3000000000	0.1327879078
0.3050000000	0.1771909208
0.3100000000	0.2390432924
0.3150000000	0.3587250405
0.3200000000	0.5456456433
0.3250000000	0.6736217795
0.3300000000	0.8506546905
0.3350000000	1.1016251254
0.3400000000	1.4955989681
0.3450000000	2.1715332507
0.3500000000	3.5194078436
0.3550000000	6.6395784896
0.3600000000	16.3176594576
0.3650000000	0.0736522534
0.3700000000	7.5627558410
0.3750000000	9.9447719153
0.3800000000	4.6339480607
0.3850000000	2.6103610370
0.3900000000	1.6743263151
0.3950000000	1.1798705727
0.4000000000	0.8935806378
0.4050000000	0.7069393238
0.4100000000	0.5854317138
0.4150000000	0.5052909234
0.4200000000	0.4546407659
0.4250000000	0.4148615839
0.4300000000	0.3678559566
0.4350000000	0.3306537710
0.4400000000	0.3012310284
0.4450000000	0.2778365312
0.4500000000	0.2593667838
0.4550000000	0.2447208891
0.4600000000	0.2332960125
0.4650000000	0.2244545402
0.4700000000	0.2177743653
0.4750000000	0.2129601577
0.4800000000	0.2097541979
0.4850000000	0.2079305056
0.4900000000	0.2073554475
0.4950000000	0.2079262105
0.5000000000	0.2095549548
0.5050000000	0.2122025296
0.5100000000	0.2158368645
0.5150000000	0.2204389070
0.5200000000	0.2260182018
0.5250000000	0.2325825827
0.5300000000	0.2402284173
0.5350000000	0.2489985567
0.5400000000	0.2589701501
0.5450000000	0.2702443661
0.5500000000	0.2829643457
0.5550000000	0.2972866556
0.5600000000	0.3134018695
0.5650000000	0.3315550352
0.5700000000	0.3520844372
0.5750000000	0.3752408006
0.5800000000	0.4014932521
0.5850000000	0.4314827672
0.5900000000	0.4656417099
0.5950000000	0.5048798495
0.6000000000	0.5503991127
0.6050000000	0.6031003442
0.6100000000	0.6650485347
0.6150000000	0.7379561357
0.6200000000	0.8247627515
0.6250000000	0.9296857058
0.6300000000	1.0570260218
0.6350000000	1.2148655560
0.6400000000	1.4121208568
0.6450000000	1.6649721379
0.6500000000	1.9940880449
0.6550000000	2.4344791739
0.6600000000	3.0452601868
0.6650000000	3.9198273412
0.6700000000	5.2441313183
0.6750000000	7.3734133682
0.6800000000	11.1373224536
0.6850000000	18.6898535829
0.6900000000	37.4574996855
0.6950000000	105.1489209968
0.7000000000	509.9817586500
0.7050000000	247.9405159723
0.7100000000	63.6908318537
0.7150000000	27.0849792912
0.7200000000	14.7914830898
0.7250000000	9.2917146823
0.7300000000	6.3728457857
0.7350000000	4.6473558989
0.7400000000	3.5424140432
0.7450000000	2.7924226110
0.7500000000	2.2611423786
0.7550000000	1.8708259849
0.7600000000	1.5766355594
0.7650000000	1.3484949389
0.7700000000	1.1684011682
0.7750000000	1.0238194826
0.7800000000	0.9063274570
0.7850000000	0.8095847331
0.7900000000	0.7285367474
0.7950000000	0.6608467584
0.8000000000	0.6032919885
0.8050000000	0.5539822718
0.8100000000	0.5120049002
0.8150000000	0.4752134741
0.8200000000	0.4431825917
0.8250000000	0.4163030894
0.8300000000	0.3927746197
0.8350000000	0.3723200312
0.8400000000	0.3560310196
0.8450000000	0.3418179920
0.8500000000	0.3297668675
0.8550000000	0.3221495262
0.8600000000	0.3160479356
0.8650000000	0.3116791983
0.8700000000	0.3132002735
0.8750000000	0.3137330878
0.8800000000	0.3120445034
0.8850000000	0.2984766684
0.8900000000	0.2316277915
0.8950000000	-0.1033867611
0.9000000000	-1.8998278697
0.9050000000	-12.4832720934
0.9100000000	2.3770616678
0.9150000000	5.6308218040
0.9200000000	2.3374627225
0.9250000000	1.2160141975
0.9300000000	0.7422819874
0.9350000000	0.5159477173
0.9400000000	0.3938494757
0.9450000000	0.3261705400
0.9500000000	0.2781070029
0.9550000000	0.2459329853
0.9600000000	0.2260336256
0.9650000000	0.2096133396
0.9700000000	0.1978946779
0.9750000000	0.1899055916
0.9800000000	0.1850376104
0.9850000000	0.1841357239
0.9900000000	0.1858916250
0.9950000000	0.1930214695
1.0000000000	0.2100831907
1.0050000000	0.2499306477
1.0100000000	0.3543682584
1.0150000000	0.7123231267
1.0200000000	1.3676564663
1.0250000000	0.6219470088
1.0300000000	0.3187150528
1.0350000000	0.2283380030
1.0400000000	0.1927986820
1.0450000000	0.1761274439
1.0500000000	0.1677724666
1.0550000000	0.1633905732
1.0600000000	0.1614258112
1.0650000000	0.1610613418
1.0700000000	0.1618442941
1.0750000000	0.1636154143
1.0800000000	0.1660580829
1.0850000000	0.1693812097
1.0900000000	0.1741821886
1.0950000000	0.1797788092
1.1000000000	0.1862259605
1.1050000000	0.1935353179
1.1100000000	0.2018225598
1.1150000000	0.2111979776
1.1200000000	0.2217924434
1.1250000000	0.2337142506
1.1300000000	0.2472722726
1.1350000000	0.2626746683
1.1400000000	0.2802332184
1.1450000000	0.3003443467
1.1500000000	0.3233165201
1.1550000000	0.3501103080
1.1600000000	0.3813330817
1.1650000000	0.4177803874
1.1700000000	0.4596174379
1.1750000000	0.5020490612
1.1800000000	0.5422105821
1.1850000000	0.7535935319
1.1900000000	0.9352001269
1.1950000000	1.2819948123
1.2000000000	1.7459697884
1.2050000000	1.5315413085
1.2100000000	1.4657359193
1.2150000000	1.6317975816
1.2200000000	1.9516529975
1.2250000000	2.4428453765
1.2300000000	3.1897367179
1.2350000000	4.3712403279
1.2400000000	6.3614839730
1.2450000000	10.1091013442
1.2500000000	18.2253889161
1.2550000000	39.4522958217
1.2600000000	95.2938520683
1.2650000000	96.5288311047
1.2700000000	40.1540751171
1.2750000000	18.5351827875
1.2800000000	10.2651298729
1.2850000000	6.4553337586
1.2900000000	4.4245488448
1.2950000000	3.2246824713
1.3000000000	2.4604204337
1.3050000000	1.9458452528
1.3100000000	1.5829869957
1.3150000000	1.3208041850
1.3200000000	1.1264481650
1.3250000000	0.9801887825
1.3300000000	0.8700421672
1.3350000000	0.7886550097
1.3400000000	0.7322098808
1.3450000000	0.6996605007
1.3500000000	0.6957569486
1.3550000000	0.7313128537
1.3600000000	0.8338420978
1.3650000000	1.0733593414
1.3700000000	1.6453510810
1.3750000000	3.0685057055
1.3800000000	5.0122254063
1.3850000000	3.5014113610
1.3900000000	1.7843261162
1.3950000000	1.0353145755
1.4000000000	0.6780208524
1.4050000000	0.4584330613
1.4100000000	0.2596958778
1.4150000000	-0.0367677944
1.4200000000	-0.7004901383
1.4250000000	-2.4591678268
1.4300000000	-3.3065244956
1.4350000000	1.5148743948
1.4400000000	1.9377540310
1.4450000000	1.1617713395
1.4500000000	0.7229036923
1.4550000000	0.4983304483
1.4600000000	0.3679873977
1.4650000000	0.2649734704
1.4700000000	0.1547811474
1.4750000000	0.1819009766
1.4800000000	0.2666890348
1.4850000000	0.2421620694
1.4900000000	0.2144276423
1.4950000000	0.1964888584
1.5000000000	0.1847045354
1.5050000000	0.1769126329
1.5100000000	0.1716117636
1.5150000000	0.1687190850
1.5200000000	0.1665864156
1.5250000000	0.1658162083
1.5300000000	0.1664790995
1.5350000000	0.1688788708
1.5400000000	0.1737736087
1.5450000000	0.1828469980
1.5500000000	0.1998833631
1.5550000000	0.2324259059
1.5600000000	0.2812738841
1.5650000000	0.2891032180
1.5700000000	0.2450263441
1.5750000000	0.2140984195
1.5800000000	0.2007591366
1.5850000000	0.1965653120
1.5900000000	0.1971148019
1.5950000000	0.2004959106
1.6000000000	0.2058758213
1.6050000000	0.2129679349
1.6100000000	0.2215582006
1.6150000000	0.2316148355
1.6200000000	0.2432980889
1.6250000000	0.2567462056
1.6300000000	0.2721863319
1.6350000000	0.2899112893
1.6400000000	0.3102955051
1.6450000000	0.3338171885
1.6500000000	0.3610766033
1.6550000000	0.3928344463
1.6600000000	0.4300762765
1.6650000000	0.4740742390
1.6700000000	0.5260652756
1.6750000000	0.5890847812
1.6800000000	0.6658158479
1.6850000000	0.7604794567
1.6900000000	0.8790686006
1.6950000000	1.0303778451
1.7000000000	1.2276463984
1.7050000000	1.4997843561
1.7100000000	1.8794664818
1.7150000000	2.4313448364
1.7200000000	3.2724302738
1.7250000000	4.6067848778
1.7300000000	6.6573208950
1.7350000000	9.2887676383
1.7400000000	12.6152147142
1.7450000000	18.4525986387
1.7500000000	26.0301243034
1.7550000000	26.4488466236
1.7600000000	18.5555692749
1.7650000000	11.5584034655
1.7700000000	7.4094006686
1.7750000000	5.0501222305
1.7800000000	3.6558879883
1.7850000000	2.7982602173
1.7900000000	2.2663999870
1.7950000000	1.9620750356
1.8000000000	1.8392398881
1.8050000000	1.8003483344
1.8100000000	1.6017910728
1.8150000000	1.2411584223
1.8200000000	0.9530390437
1.8250000000	0.8044881398
1.8300000000	0.7003925677
1.8350000000	0.6078792103
1.8400000000	0.5324411425
1.8450000000	0.4725762802
1.8500000000	0.4243315503
1.8550000000	0.3844760612
1.8600000000	0.3478146347
1.8650000000	0.3168211090
1.8700000000	0.2854977993
1.8750000000	0.2403425025
1.8800000000	0.1374092039
1.8850000000	-0.0881930848
1.8900000000	-0.3916436759
1.8950000000	-0.4437118302
1.9000000000	0.0474848074
1.9050000000	0.5054556353
1.9100000000	0.5588943981
1.9150000000	0.4721615803
1.9200000000	0.3871552204
1.9250000000	0.3268338878
1.9300000000	0.2903021707
1.9350000000	0.2624106292
1.9400000000	0.2438545992
1.9450000000	0.2315693727
1.9500000000	0.2229818687
1.9550000000	0.2157994373
1.9600000000	0.2096011371
1.9650000000	0.2052010342
1.9700000000	0.2028519254
1.9750000000	0.2023973863
1.9800000000	0.2037108458
1.9850000000	0.2068305638
1.9900000000	0.2119613620
1.9950000000	0.2193593782
2.0000000000	0.2288322800
2.0050000000	0.2395791497
2.0100000000	0.2472893911
2.0150000000	0.2524337554
2.0200000000	0.2586370529
2.0250000000	0.2682105330
2.0300000000	0.2818344968
2.0350000000	0.2998496964
2.0400000000	0.3228747972
2.0450000000	0.3519830977
2.0500000000	0.3887159523
2.0550000000	0.4347861658
2.0600000000	0.4910243659
2.0650000000	0.5565463775
2.0700000000	0.6323364877
2.0750000000	0.7268493611
2.0800000000	0.8540435264
2.0850000000	1.0275286514
2.0900000000	1.2552196664
2.0950000000	1.5207579858
2.1000000000	1.7574269745
2.1050000000	1.8721085898
2.1100000000	1.8176490905
2.1150000000	1.6923292926
2.1200000000	1.6037529447
2.1250000000	1.5999763548
2.1300000000	1.6952569897
2.1350000000	1.9008953809
2.1400000000	2.2395258164
2.1450000000	2.7511916464
2.1500000000	3.4919666477
2.1550000000	4.5039709906
2.1600000000	5.7055937346
2.1650000000	6.7155380546
2.1700000000	6.9541762917
2.1750000000	6.2251157252
2.1800000000	5.0257031395
2.1850000000	3.8775693671
2.1900000000	2.9798989783
2.1950000000	2.3313597797
2.2000000000	1.8763573198
2.2050000000	1.5624453101
2.2100000000	1.3445278048
2.2150000000	1.1773825914
2.2200000000	1.0276071467
2.2250000000	0.8851437670
2.2300000000	0.7561517202
2.2350000000	0.6453938890
2.2400000000	0.5515860182
2.2450000000	0.4705866889
2.2500000000	0.3982735064
2.2550000000	0.3323407992
2.2600000000	0.2664066959
2.2650000000	0.2184406470
2.2700000000	0.1923846772
2.2750000000	0.1989422621
2.2800000000	0.2367832651
2.2850000000	0.2849698476
2.2900000000	0.3202409343
2.2950000000	0.3358724717
2.3000000000	0.3376585949
2.3050000000	0.3322621499
2.3100000000	0.3251546996
2.3150000000	0.3188577613
2.3200000000	0.3143682019
2.3250000000	0.3122331053
2.3300000000	0.3128948618
2.3350000000	0.3167199614
2.3400000000	0.3240216228
2.3450000000	0.3351168967
2.3500000000	0.3503417440
2.3550000000	0.3701998421
2.3600000000	0.3943651729
2.3650000000	0.4229881630
2.3700000000	0.4559892884
2.3750000000	0.4937268463
2.3800000000	0.5375630599
2.3850000000	0.5891142810
2.3900000000	0.6487378803
2.3950000000	0.7137789116
2.4000000000	0.7774122144
2.4050000000	0.8322500694
2.4100000000	0.8626455284
2.4150000000	0.8655512901
2.4200000000	0.8483985144
2.4250000000	0.8238591281
2.4300000000	0.8031797810
2.4350000000	0.7931495647
2.4400000000	0.7964778070
2.4450000000	0.8136025180
2.4500000000	0.8445787170
2.4550000000	0.8900966809
2.4600000000	0.9530742709
2.4650000000	1.0365025615
2.4700000000	1.1437123778
2.4750000000	1.2767840276
2.4800000000	1.4346675485
2.4850000000	1.6106265368
2.4900000000	1.7892516882
2.4950000000	1.9449721172
2.5000000000	2.0457895081
2.5050000000	2.0587513509
2.5100000000	1.9706999139
2.5150000000	1.8056691502
2.5200000000	1.6020611346
2.5250000000	1.3936131140
2.5300000000	1.2008900467
2.5350000000	1.0325326421
2.5400000000	0.8898129928
2.5450000000	0.7706136649
2.5500000000	0.6718660865
2.5550000000	0.5908131975
2.5600000000	0.5230389713
2.5650000000	0.4723179119
2.5700000000	0.4358730983
2.5750000000	0.4124048492
2.5800000000	0.3993083910
2.5850000000	0.3930212443
2.5900000000	0.3902001178
2.5950000000	0.3887631736
2.6000000000	0.3880391599
2.6050000000	0.3911325953
2.6100000000	0.3960342542
2.6150000000	0.4034947011
2.6200000000	0.4139126990
2.6250000000	0.4273128076
2.6300000000	0.4433167890
2.6350000000	0.4611218811
2.6400000000	0.4795015228
2.6450000000	0.4969003237
2.6500000000	0.5116710360
2.6550000000	0.5224630705
2.6600000000	0.5286490554
2.6650000000	0.5305974630
2.6700000000	0.5295946873
2.6750000000	0.5275211442
2.6800000000	0.5261989434
2.6850000000	0.5273305053
2.6900000000	0.5321014093
2.6950000000	0.5412402794
2.7000000000	0.5550964808
2.7050000000	0.5758368063
2.7100000000	0.6025281949
2.7150000000	0.6347391698
2.7200000000	0.6715778042
2.7250000000	0.7115299932
2.7300000000	0.7523099270
2.7350000000	0.7908358604
2.7400000000	0.8234420348
2.7450000000	0.8464065050
2.7500000000	0.8567293076
2.7550000000	0.8528990258
2.7600000000	0.8353017920
2.7650000000	0.8060819784
2.7700000000	0.7685209264
2.7750000000	0.7262541691
2.7800000000	0.6826152827
2.7850000000	0.6402711226
2.7900000000	0.6007677660
2.7950000000	0.5657970603
2.8000000000	0.5357090354
2.8050000000	0.5078417205
2.8100000000	0.4858700762
2.8150000000	0.4689291827
2.8200000000	0.4560794287
2.8250000000	0.4464585962
2.8300000000	0.4393338632
2.8350000000	0.4340973745
2.8400000000	0.4302354984
2.8450000000	0.4273121522
2.8500000000	0.4249771585
2.8550000000	0.4229980480
2.8600000000	0.4212961054
2.8650000000	0.4199579960
2.8700000000	0.4192137418
2.8750000000	0.4193797192
2.8800000000	0.4207885867
2.8850000000	0.4237261114
2.8900000000	0.4283871447
2.8950000000	0.4348491044
2.9000000000	0.4430588908
2.9050000000	0.4553387602
2.9100000000	0.4688049260
2.9150000000	0.4825583360
2.9200000000	0.4954627833
2.9250000000	0.5062977062
2.9300000000	0.5139298476
2.9350000000	0.5175118903
2.9400000000	0.5166464246
2.9450000000	0.5114618409
2.9500000000	0.5025643282
2.9550000000	0.4908833773
2.9600000000	0.4774758854
2.9650000000	0.4633429704
2.9700000000	0.4493079413
2.9750000000	0.4359629191
2.9800000000	0.4236724485
2.9850000000	0.4126128667
2.9900000000	0.4028251867
2.9950000000	0.3942664914
3.0000000000	0.3868518857
