# energy (eV)    P(omega), $W$ = 300 nm, $h$ = 300 nm, $s$ = 20 nm, $d/W = 5$, $E_{\rm e}$ = 200 keV
0.2000000000	0.0800846497
0.2050000000	0.0812855484
0.2100000000	0.0824092647
0.2150000000	0.0834583050
0.2200000000	0.0844347795
0.2250000000	0.0853404934
0.2300000000	0.0861768094
0.2350000000	0.0869446313
0.2400000000	0.0876442713
0.2450000000	0.0882754409
0.2500000000	0.0888370789
0.2550000000	0.0893271968
0.2600000000	0.0897428296
0.2650000000	0.0900796724
0.2700000000	0.0903319095
0.2750000000	0.0904918370
0.2800000000	0.0905494628
0.2850000000	0.0904919529
0.2900000000	0.0903028599
0.2950000000	0.0899613322
0.3000000000	0.0894407246
0.3050000000	0.0887070906
0.3100000000	0.0877169665
0.3150000000	0.0926915540
0.3200000000	0.0985994531
0.3250000000	0.1060710518
0.3300000000	0.1160759558
0.3350000000	0.1285298216
0.3400000000	0.1448382643
0.3450000000	0.1646206756
0.3500000000	0.1905001895
0.3550000000	0.2247446963
0.3600000000	0.2694601980
0.3650000000	0.3318006343
0.3700000000	0.4140075814
0.3750000000	0.5283675297
0.3800000000	0.6937742668
0.3850000000	0.9515227232
0.3900000000	1.3587350110
0.3950000000	2.0504788406
0.4000000000	3.3692688846
0.4050000000	6.3261472216
0.4100000000	14.3949088021
0.4150000000	46.2012130023
0.4200000000	29.4363529344
0.4250000000	-55.4200242187
0.4300000000	15.4133710368
0.4350000000	9.6060918426
0.4400000000	5.8729543497
0.4450000000	3.8633103375
0.4500000000	2.7063361805
0.4550000000	1.9943004631
0.4600000000	1.5305313739
0.4650000000	1.2144833726
0.4700000000	0.9910964243
0.4750000000	0.8295324694
0.4800000000	0.7097433969
0.4850000000	0.6196046411
0.4900000000	0.5508002750
0.4950000000	0.4977476186
0.5000000000	0.4566307700
0.5050000000	0.4246498180
0.5100000000	0.4000019621
0.5150000000	0.3813601940
0.5200000000	0.3673367116
0.5250000000	0.3573067944
0.5300000000	0.3505993778
0.5350000000	0.3467239182
0.5400000000	0.3453188020
0.5450000000	0.3460818557
0.5500000000	0.3489180373
0.5550000000	0.3536571508
0.5600000000	0.3602125705
0.5650000000	0.3685456041
0.5700000000	0.3786211951
0.5750000000	0.3905098877
0.5800000000	0.4043262618
0.5850000000	0.4201453401
0.5900000000	0.4381118798
0.5950000000	0.4584078620
0.6000000000	0.4812651227
0.6050000000	0.5070192493
0.6100000000	0.5359907545
0.6150000000	0.5686172436
0.6200000000	0.6054823895
0.6250000000	0.6471459073
0.6300000000	0.6944349239
0.6350000000	0.7483803383
0.6400000000	0.8100549650
0.6450000000	0.8810070661
0.6500000000	0.9632724525
0.6550000000	1.0589705751
0.6600000000	1.1713583438
0.6650000000	1.3046156107
0.6700000000	1.4636558473
0.6750000000	1.6559725669
0.6800000000	1.8916414818
0.6850000000	2.1838637607
0.6900000000	2.5530847473
0.6950000000	3.0279004045
0.7000000000	3.6537341675
0.7050000000	4.5000295591
0.7100000000	5.6844508611
0.7150000000	7.4164567228
0.7200000000	10.0860026167
0.7250000000	14.5174080143
0.7300000000	22.6515521226
0.7350000000	40.0568247831
0.7400000000	87.7928509881
0.7450000000	291.2694292486
0.7500000000	902.4103954252
0.7550000000	227.0349362738
0.7600000000	75.1933496436
0.7650000000	36.0305688242
0.7700000000	20.9553649203
0.7750000000	13.6777966628
0.7800000000	9.6262181331
0.7850000000	7.1498218284
0.7900000000	5.5241463937
0.7950000000	4.4029216685
0.8000000000	3.5968904432
0.8050000000	2.9965598444
0.8100000000	2.5387612376
0.8150000000	2.1758444159
0.8200000000	1.8894134908
0.8250000000	1.6587763500
0.8300000000	1.4698437522
0.8350000000	1.3145030030
0.8400000000	1.1842790361
0.8450000000	1.0750024671
0.8500000000	0.9826312550
0.8550000000	0.9029168919
0.8600000000	0.8348670386
0.8650000000	0.7767413710
0.8700000000	0.7253815007
0.8750000000	0.6816939708
0.8800000000	0.6446260554
0.8850000000	0.6113924184
0.8900000000	0.5847380166
0.8950000000	0.5604906175
0.9000000000	0.5412789410
0.9050000000	0.5280581072
0.9100000000	0.5159432545
0.9150000000	0.5086078477
0.9200000000	0.5077565510
0.9250000000	0.5071327692
0.9300000000	0.4997210234
0.9350000000	0.4774092492
0.9400000000	0.3529744369
0.9450000000	-0.2127428989
0.9500000000	-3.1985203457
0.9550000000	-18.3437338771
0.9600000000	4.3285432938
0.9650000000	7.6042290468
0.9700000000	3.3728576782
0.9750000000	1.7706739498
0.9800000000	1.1096869541
0.9850000000	0.8005366201
0.9900000000	0.6224059344
0.9950000000	0.5143902091
1.0000000000	0.4454218069
1.0050000000	0.4016994182
1.0100000000	0.3678019939
1.0150000000	0.3430376476
1.0200000000	0.3263588234
1.0250000000	0.3123577869
1.0300000000	0.3017209042
1.0350000000	0.2936733520
1.0400000000	0.2885570251
1.0450000000	0.2843008240
1.0500000000	0.2814914449
1.0550000000	0.2799626982
1.0600000000	0.2800907287
1.0650000000	0.2808286798
1.0700000000	0.2826032197
1.0750000000	0.2854218367
1.0800000000	0.2895643523
1.0850000000	0.2948209666
1.0900000000	0.3025768692
1.0950000000	0.3117879348
1.1000000000	0.3227637720
1.1050000000	0.3354123804
1.1100000000	0.3501340652
1.1150000000	0.3672596103
1.1200000000	0.3871820279
1.1250000000	0.4104117391
1.1300000000	0.4376362702
1.1350000000	0.4697102068
1.1400000000	0.5076075959
1.1450000000	0.5531031979
1.1500000000	0.6081297734
1.1550000000	0.6754800882
1.1600000000	0.7590943111
1.1650000000	0.8640860803
1.1700000000	1.0000302682
1.1750000000	1.1796420793
1.1800000000	1.4239390326
1.1850000000	1.7674707084
1.1900000000	2.2753538402
1.1950000000	3.0726077408
1.2000000000	4.4248496962
1.2050000000	6.9802326138
1.2100000000	12.6016340191
1.2150000000	27.7966861069
1.2200000000	68.2198145192
1.2250000000	61.2960466284
1.2300000000	24.4543079791
1.2350000000	11.4721475371
1.2400000000	6.5547942020
1.2450000000	4.2971037602
1.2500000000	3.1062362746
1.2550000000	2.4191529067
1.2600000000	2.0012833035
1.2650000000	1.7398003810
1.2700000000	1.5842315132
1.2750000000	1.5018530342
1.2800000000	1.4771192660
1.2850000000	1.5032781842
1.2900000000	1.5798642187
1.2950000000	1.7108792844
1.3000000000	1.9124464733
1.3050000000	2.2052494561
1.3100000000	2.6277963855
1.3150000000	3.2467019066
1.3200000000	4.1817001154
1.3250000000	5.6610141326
1.3300000000	8.1844145068
1.3350000000	12.9106779304
1.3400000000	23.0120523128
1.3450000000	48.0891553394
1.3500000000	102.0615801426
1.3550000000	95.1899456593
1.3600000000	43.8973543074
1.3650000000	21.5684595645
1.3700000000	12.3692032778
1.3750000000	7.9544371492
1.3800000000	5.5472559413
1.3850000000	4.0971994774
1.3900000000	3.1626339475
1.3950000000	2.5250185049
1.4000000000	2.0714925231
1.4050000000	1.7384168062
1.4100000000	1.4872615909
1.4150000000	1.2950281977
1.4200000000	1.1455221617
1.4250000000	1.0345486543
1.4300000000	0.9646304926
1.4350000000	0.9195659174
1.4400000000	0.6348196976
1.4450000000	-0.1557083753
1.4500000000	-1.5288375891
1.4550000000	-0.5088498273
1.4600000000	1.5621772671
1.4650000000	0.9030115361
1.4700000000	-0.5848752041
1.4750000000	-2.9417099127
1.4800000000	-1.2984774568
1.4850000000	2.2204364248
1.4900000000	1.7975176444
1.4950000000	1.1659823864
1.5000000000	0.8207188306
1.5050000000	0.6338230202
1.5100000000	0.5268358212
1.5150000000	0.4612383628
1.5200000000	0.4182679514
1.5250000000	0.3909826828
1.5300000000	0.3694742997
1.5350000000	0.3538361445
1.5400000000	0.3424898967
1.5450000000	0.3344931410
1.5500000000	0.3291911532
1.5550000000	0.3263080313
1.5600000000	0.3263944262
1.5650000000	0.3283075778
1.5700000000	0.3332312399
1.5750000000	0.3420757809
1.5800000000	0.3566613561
1.5850000000	0.3805756810
1.5900000000	0.4214126376
1.5950000000	0.4959652823
1.6000000000	0.6396431914
1.6050000000	0.8755200234
1.6100000000	0.9859117950
1.6150000000	0.7878349224
1.6200000000	0.6040579677
1.6250000000	0.5108122947
1.6300000000	0.4682567426
1.6350000000	0.4510171133
1.6400000000	0.4475994397
1.6450000000	0.4527497596
1.6500000000	0.4639125811
1.6550000000	0.4800515965
1.6600000000	0.5006409129
1.6650000000	0.5256235339
1.6700000000	0.5552169498
1.6750000000	0.5898537267
1.6800000000	0.6301597971
1.6850000000	0.6769690898
1.6900000000	0.7312467115
1.6950000000	0.7935497769
1.7000000000	0.8652466773
1.7050000000	0.9481667774
1.7100000000	1.0486772488
1.7150000000	1.2178866209
1.7200000000	1.4735293227
1.7250000000	1.7494531559
1.7300000000	2.0773225275
1.7350000000	2.4321891685
1.7400000000	2.7601478337
1.7450000000	3.1735840100
1.7500000000	3.8071640232
1.7550000000	4.7573103304
1.7600000000	6.1827590693
1.7650000000	8.3818393501
1.7700000000	11.9243293341
1.7750000000	17.8910068454
1.7800000000	28.0534797589
1.7850000000	43.0294734064
1.7900000000	53.4401659486
1.7950000000	45.4703562987
1.8000000000	30.2335202593
1.8050000000	19.0715353564
1.8100000000	12.5572439981
1.8150000000	8.7399358320
1.8200000000	6.3908616291
1.8250000000	4.8676637481
1.8300000000	3.8328941473
1.8350000000	3.1017219123
1.8400000000	2.5680585487
1.8450000000	2.1674695190
1.8500000000	1.8593035393
1.8550000000	1.6180730215
1.8600000000	1.4258533945
1.8650000000	1.2703239571
1.8700000000	1.1425088490
1.8750000000	1.0355259514
1.8800000000	0.9435201420
1.8850000000	0.8607861387
1.8900000000	0.7802667538
1.8950000000	0.6912707689
1.9000000000	0.5756806725
1.9050000000	0.3743454072
1.9100000000	0.0852721795
1.9150000000	-0.1924224210
1.9200000000	0.1474544107
1.9250000000	1.5004612277
1.9300000000	2.5812647995
1.9350000000	2.6047326593
1.9400000000	2.0904663551
1.9450000000	1.5838627170
1.9500000000	1.2248345540
1.9550000000	0.9873797037
1.9600000000	0.8291582648
1.9650000000	0.7237239340
1.9700000000	0.6461290693
1.9750000000	0.5892309338
1.9800000000	0.5460434337
1.9850000000	0.5115563579
1.9900000000	0.4820388621
1.9950000000	0.4543276591
2.0000000000	0.4278557188
2.0050000000	0.4121028854
2.0100000000	0.4226785886
2.0150000000	0.4502652884
2.0200000000	0.4688786936
2.0250000000	0.4769264641
2.0300000000	0.4830267972
2.0350000000	0.4911676954
2.0400000000	0.5032806300
2.0450000000	0.5201787728
2.0500000000	0.5426853737
2.0550000000	0.5716188561
2.0600000000	0.6070272612
2.0650000000	0.6461046617
2.0700000000	0.6818635722
2.0750000000	0.7088508128
2.0800000000	0.7311339500
2.0850000000	0.7575440893
2.0900000000	0.7937042907
2.0950000000	0.8415721660
2.1000000000	0.9026614605
2.1050000000	0.9760638066
2.1100000000	1.0668924543
2.1150000000	1.1788159981
2.1200000000	1.3171050148
2.1250000000	1.4892373952
2.1300000000	1.7058053938
2.1350000000	1.9819646320
2.1400000000	2.3396021147
2.1450000000	2.8107093192
2.1500000000	3.4418760773
2.1550000000	4.2989974827
2.1600000000	5.4663859059
2.1650000000	7.0155007659
2.1700000000	8.9191292382
2.1750000000	10.8173970468
2.1800000000	12.0095912416
2.1850000000	12.1213512745
2.1900000000	11.6686708192
2.1950000000	11.3474565919
2.2000000000	11.2353166969
2.2050000000	10.7079092980
2.2100000000	9.4979991065
2.2150000000	7.9756774624
2.2200000000	6.5910941316
2.2250000000	5.4689582516
2.2300000000	4.5471873587
2.2350000000	3.7752063586
2.2400000000	3.1410694693
2.2450000000	2.6402578718
2.2500000000	2.2521697220
2.2550000000	1.9518632783
2.2600000000	1.7162225873
2.2650000000	1.5243941708
2.2700000000	1.3566224091
2.2750000000	1.1961925971
2.2800000000	1.0391908608
2.2850000000	0.9047739248
2.2900000000	0.8256156311
2.2950000000	0.8163926088
2.3000000000	0.8519407043
2.3050000000	0.8894424508
2.3100000000	0.9026512610
2.3150000000	0.8923832432
2.3200000000	0.8699811334
2.3250000000	0.8471047648
2.3300000000	0.8299446470
2.3350000000	0.8203053169
2.3400000000	0.8168235833
2.3450000000	0.8155375571
2.3500000000	0.8113451213
2.3550000000	0.8009867885
2.3600000000	0.7853643120
2.3650000000	0.7684536808
2.3700000000	0.7542966336
2.3750000000	0.7451407529
2.3800000000	0.7413494831
2.3850000000	0.7420247507
2.3900000000	0.7460187040
2.3950000000	0.7522296326
2.4000000000	0.7612052427
2.4050000000	0.7752769990
2.4100000000	0.7954305188
2.4150000000	0.8230319510
2.4200000000	0.8590252303
2.4250000000	0.9044230565
2.4300000000	0.9604697406
2.4350000000	1.0287608057
2.4400000000	1.1113489239
2.4450000000	1.2108656766
2.4500000000	1.3306460571
2.4550000000	1.4748992840
2.4600000000	1.6487979388
2.4650000000	1.8585806216
2.4700000000	2.1114222558
2.4750000000	2.4145588517
2.4800000000	2.7756215946
2.4850000000	3.1977758604
2.4900000000	3.6770572159
2.4950000000	4.1959749420
2.5000000000	4.7167872053
2.5050000000	5.1994760384
2.5100000000	5.5159812392
2.5150000000	5.5944668298
2.5200000000	5.4229143166
2.5250000000	5.0545224477
2.5300000000	4.5738402632
2.5350000000	4.0575843572
2.5400000000	3.5563936372
2.5450000000	3.0966985586
2.5500000000	2.6891456835
2.5550000000	2.3355649195
2.5600000000	2.0309132436
2.5650000000	1.7740808245
2.5700000000	1.5596135718
2.5750000000	1.3842165754
2.5800000000	1.2453717482
2.5850000000	1.1401070409
2.5900000000	1.0632261030
2.5950000000	1.0072705342
2.6000000000	0.9644430590
2.6050000000	0.9338817335
2.6100000000	0.9067865085
2.6150000000	0.8827943480
2.6200000000	0.8624688201
2.6250000000	0.8463883541
2.6300000000	0.8349242189
2.6350000000	0.8282552814
2.6400000000	0.8264748440
2.6450000000	0.8296776221
2.6500000000	0.8380582962
2.6550000000	0.8516598367
2.6600000000	0.8707805081
2.6650000000	0.8957042763
2.6700000000	0.9267650048
2.6750000000	0.9643538031
2.6800000000	1.0088890771
2.6850000000	1.0607973858
2.6900000000	1.1204563770
2.6950000000	1.1881549468
2.7000000000	1.2639978674
2.7050000000	1.3568580175
2.7100000000	1.4596722323
2.7150000000	1.5711843253
2.7200000000	1.6892840138
2.7250000000	1.8109718873
2.7300000000	1.9323672574
2.7350000000	2.0487226072
2.7400000000	2.1543921624
2.7450000000	2.2437436223
2.7500000000	2.3084114742
2.7550000000	2.3428584985
2.7600000000	2.3429030045
2.7650000000	2.3076234467
2.7700000000	2.2398286678
2.7750000000	2.1455839644
2.7800000000	2.0328952094
2.7850000000	1.9102780783
2.7900000000	1.7853620269
2.7950000000	1.6642629920
2.8000000000	1.5513087830
2.8050000000	1.4365723414
2.8100000000	1.3378029444
2.8150000000	1.2547803883
2.8200000000	1.1862085989
2.8250000000	1.1303638577
2.8300000000	1.0855073581
2.8350000000	1.0501596068
2.8400000000	1.0227458240
2.8450000000	1.0033631006
2.8500000000	0.9908538202
2.8550000000	0.9847808882
2.8600000000	0.9848217729
2.8650000000	0.9907015776
2.8700000000	1.0021536140
2.8750000000	1.0188728504
2.8800000000	1.0404854859
2.8850000000	1.0665191529
2.8900000000	1.0964113152
2.8950000000	1.1294923679
2.9000000000	1.1650291406
2.9050000000	1.2099576709
2.9100000000	1.2548558577
2.9150000000	1.2981210457
2.9200000000	1.3379147337
2.9250000000	1.3721141702
2.9300000000	1.3987434128
2.9350000000	1.4150277290
2.9400000000	1.4196469078
2.9450000000	1.4119551139
2.9500000000	1.3924789250
2.9550000000	1.3628756865
2.9600000000	1.3256090369
2.9650000000	1.2835148281
2.9700000000	1.2393688447
2.9750000000	1.1955631110
2.9800000000	1.1539476843
2.9850000000	1.1158012380
2.9900000000	1.0819125225
2.9950000000	1.0526628354
3.0000000000	1.0281632675
