# energy (eV)    P(omega), $W$ = 300 nm, $h$ = 300 nm, $s$ = 20 nm, $d/W = 5$, $E_{\rm e}$ = 200 keV
0.2000000000	0.0706857420
0.2050000000	0.0717011570
0.2100000000	0.0726556277
0.2150000000	0.0735510599
0.2200000000	0.0743890965
0.2250000000	0.0751710957
0.2300000000	0.0758980553
0.2350000000	0.0765705987
0.2400000000	0.0771889039
0.2450000000	0.0777525513
0.2500000000	0.0782606089
0.2550000000	0.0787112853
0.2600000000	0.0791019633
0.2650000000	0.0794289944
0.2700000000	0.0796873773
0.2750000000	0.0798705646
0.2800000000	0.0799700700
0.2850000000	0.0799750424
0.2900000000	0.0798715410
0.2950000000	0.0796419871
0.3000000000	0.0792637440
0.3050000000	0.0787082139
0.3100000000	0.0779386827
0.3150000000	0.0821376484
0.3200000000	0.0871252241
0.3250000000	0.0934300983
0.3300000000	0.1018670845
0.3350000000	0.1123724014
0.3400000000	0.1261307115
0.3450000000	0.1428329648
0.3500000000	0.1646915552
0.3550000000	0.1936289680
0.3600000000	0.2314406948
0.3650000000	0.2841791349
0.3700000000	0.3537867681
0.3750000000	0.4506873223
0.3800000000	0.5909337862
0.3850000000	0.8095986586
0.3900000000	1.1553029414
0.3950000000	1.7429537376
0.4000000000	2.8639776592
0.4050000000	5.3789636285
0.4100000000	12.2463437875
0.4150000000	39.3342664563
0.4200000000	25.0372711388
0.4250000000	-47.2625401418
0.4300000000	13.1705379839
0.4350000000	8.2178648979
0.4400000000	5.0311927554
0.4450000000	3.3146429458
0.4500000000	2.3258205834
0.4550000000	1.7169383181
0.4600000000	1.3201507032
0.4650000000	1.0496236322
0.4700000000	0.8583325299
0.4750000000	0.7199420156
0.4800000000	0.6173151834
0.4850000000	0.5400903802
0.4900000000	0.4811562311
0.4950000000	0.4357367695
0.5000000000	0.4005684406
0.5050000000	0.3732539423
0.5100000000	0.3522527471
0.5150000000	0.3364313032
0.5200000000	0.3245977407
0.5250000000	0.3162212126
0.5300000000	0.3107272231
0.5350000000	0.3076967867
0.5400000000	0.3068215276
0.5450000000	0.3078439951
0.5500000000	0.3106875017
0.5550000000	0.3152084371
0.5600000000	0.3213368302
0.5650000000	0.3290431305
0.5700000000	0.3383023295
0.5750000000	0.3491806817
0.5800000000	0.3617858864
0.5850000000	0.3761887089
0.5900000000	0.3925237917
0.5950000000	0.4109581060
0.6000000000	0.4317040770
0.6050000000	0.4550662042
0.6100000000	0.4813378107
0.6150000000	0.5109169863
0.6200000000	0.5443350905
0.6250000000	0.5821008798
0.6300000000	0.6249663151
0.6350000000	0.6738686775
0.6400000000	0.7297836054
0.6450000000	0.7941186758
0.6500000000	0.8687252116
0.6550000000	0.9555308065
0.6600000000	1.0574969368
0.6650000000	1.1784265090
0.6700000000	1.3227903908
0.6750000000	1.4974035394
0.6800000000	1.7114416307
0.6850000000	1.9769159222
0.6900000000	2.3124449363
0.6950000000	2.7440596032
0.7000000000	3.3131344411
0.7050000000	4.0829183209
0.7100000000	5.1606121386
0.7150000000	6.7370698533
0.7200000000	9.1676799140
0.7250000000	13.2038267472
0.7300000000	20.6150196877
0.7350000000	36.4789121849
0.7400000000	80.0034337640
0.7450000000	265.6034746964
0.7500000000	823.4494230797
0.7550000000	207.3121030009
0.7600000000	68.7092850917
0.7650000000	32.9469957614
0.7700000000	19.1758153027
0.7750000000	12.5254503140
0.7800000000	8.8217792839
0.7850000000	6.5572797915
0.7900000000	5.0702242563
0.7950000000	4.0442666307
0.8000000000	3.3064913086
0.8050000000	2.7568275219
0.8100000000	2.3375352038
0.8150000000	2.0050249027
0.8200000000	1.7425166492
0.8250000000	1.5310887873
0.8300000000	1.3578384003
0.8350000000	1.2153634042
0.8400000000	1.0958998760
0.8450000000	0.9956327435
0.8500000000	0.9108711215
0.8550000000	0.8377049521
0.8600000000	0.7752443160
0.8650000000	0.7219048892
0.8700000000	0.6747609256
0.8750000000	0.6346791973
0.8800000000	0.6006997022
0.8850000000	0.5702320068
0.8900000000	0.5458564793
0.8950000000	0.5236796236
0.9000000000	0.5061743714
0.9050000000	0.4942522048
0.9100000000	0.4833332412
0.9150000000	0.4768736539
0.9200000000	0.4764901912
0.9250000000	0.4762883798
0.9300000000	0.4696281739
0.9350000000	0.4487749239
0.9400000000	0.3310586404
0.9450000000	-0.2053575933
0.9500000000	-3.0390690673
0.9550000000	-17.4223855868
0.9600000000	4.1151502597
0.9650000000	7.2328261986
0.9700000000	3.2101963606
0.9750000000	1.6860380086
0.9800000000	1.0569175035
0.9850000000	0.7625945917
0.9900000000	0.5929259686
0.9950000000	0.4900085631
1.0000000000	0.4242832838
1.0050000000	0.3826329355
1.0100000000	0.3503073672
1.0150000000	0.3266776690
1.0200000000	0.3107688622
1.0250000000	0.2973809229
1.0300000000	0.2871877363
1.0350000000	0.2794490137
1.0400000000	0.2745059736
1.0450000000	0.2703500215
1.0500000000	0.2675532434
1.0550000000	0.2659554732
1.0600000000	0.2659261865
1.0650000000	0.2664372996
1.0700000000	0.2679039253
1.0750000000	0.2703309292
1.0800000000	0.2739904016
1.0850000000	0.2786427235
1.0900000000	0.2855772203
1.0950000000	0.2938238040
1.1000000000	0.3036719599
1.1050000000	0.3149952584
1.1100000000	0.3281635465
1.1150000000	0.3434686589
1.1200000000	0.3612686777
1.1250000000	0.3819723253
1.1300000000	0.4061972430
1.1350000000	0.4346893319
1.1400000000	0.4683119612
1.1450000000	0.5085782962
1.1500000000	0.5571859178
1.1550000000	0.6165644511
1.1600000000	0.6901411072
1.1650000000	0.7823760020
1.1700000000	0.9015572976
1.1750000000	1.0587462907
1.1800000000	1.2722028337
1.1850000000	1.5719238335
1.1900000000	2.0145273254
1.1950000000	2.7085310998
1.2000000000	3.8847189767
1.2050000000	6.1062604031
1.2100000000	10.9920545262
1.2150000000	24.1999704149
1.2200000000	59.3526424237
1.2250000000	53.3771409038
1.2300000000	21.3549539916
1.2350000000	10.0685538711
1.2400000000	5.7957343004
1.2450000000	3.8375845535
1.2500000000	2.8088277696
1.2550000000	2.2198939838
1.2600000000	1.8669646775
1.2650000000	1.6521475009
1.2700000000	1.5321865893
1.2750000000	1.4791750590
1.2800000000	1.4804936402
1.2850000000	1.5315156327
1.2900000000	1.6336281442
1.2950000000	1.7926493884
1.3000000000	2.0268561023
1.3050000000	2.3600408240
1.3100000000	2.8352379705
1.3150000000	3.5265920327
1.3200000000	4.5668496417
1.3250000000	6.2095136717
1.3300000000	9.0078888460
1.3350000000	14.2466617146
1.3400000000	25.4426326555
1.3450000000	53.2429573402
1.3500000000	113.1067197308
1.3550000000	105.5567528764
1.3600000000	48.6958105394
1.3650000000	23.9295618062
1.3700000000	13.7233004735
1.3750000000	8.8244915032
1.3800000000	6.1532963176
1.3850000000	4.5444634683
1.3900000000	3.5080972099
1.3950000000	2.8014756436
1.4000000000	2.2996931319
1.4050000000	1.9322599772
1.4100000000	1.6569064316
1.4150000000	1.4491336842
1.4200000000	1.2928901842
1.4250000000	1.1882446721
1.4300000000	1.1499299022
1.4350000000	1.1712664317
1.4400000000	0.9021443691
1.4450000000	0.0778310984
1.4500000000	-1.2604420541
1.4550000000	-0.3533975003
1.4600000000	1.5263222718
1.4650000000	0.8263379771
1.4700000000	-0.7803613841
1.4750000000	-3.4152435528
1.4800000000	-1.5200051149
1.4850000000	2.4982595836
1.4900000000	2.0250991905
1.4950000000	1.3107889644
1.5000000000	0.9209837996
1.5050000000	0.7110874996
1.5100000000	0.5914528694
1.5150000000	0.5187987921
1.5200000000	0.4718655004
1.5250000000	0.4427044358
1.5300000000	0.4204287722
1.5350000000	0.4050743575
1.5400000000	0.3949604219
1.5450000000	0.3891851614
1.5500000000	0.3871663792
1.5550000000	0.3889188793
1.5600000000	0.3954797442
1.5650000000	0.4063166026
1.5700000000	0.4238633534
1.5750000000	0.4510888514
1.5800000000	0.4935675386
1.5850000000	0.5621503789
1.5900000000	0.6796986952
1.5950000000	0.8968028487
1.6000000000	1.3203245769
1.6050000000	2.0206015970
1.6100000000	2.3449177348
1.6150000000	1.7369388777
1.6200000000	1.1665872450
1.6250000000	0.8655209714
1.6300000000	0.7143557182
1.6350000000	0.6365308240
1.6400000000	0.5970845166
1.6450000000	0.5797673170
1.6500000000	0.5764420076
1.6550000000	0.5832966823
1.6600000000	0.5980563455
1.6650000000	0.6196821209
1.6700000000	0.6477790164
1.6750000000	0.6823493382
1.6800000000	0.7237021002
1.6850000000	0.7723166733
1.6900000000	0.8286168738
1.6950000000	0.8918027528
1.7000000000	0.9608135501
1.7050000000	1.0315369652
1.7100000000	1.1122374029
1.7150000000	1.3128002992
1.7200000000	1.6646892713
1.7250000000	1.9871001760
1.7300000000	2.3331084893
1.7350000000	2.7133000403
1.7400000000	3.0863576359
1.7450000000	3.5655282027
1.7500000000	4.2901544825
1.7550000000	5.3686865453
1.7600000000	6.9823708813
1.7650000000	9.4698792834
1.7700000000	13.4768187571
1.7750000000	20.2274697469
1.7800000000	31.7304453256
1.7850000000	48.6946455187
1.7900000000	60.5143869513
1.7950000000	51.5291743775
1.8000000000	34.2941081487
1.8050000000	21.6575172052
1.8100000000	14.2793206955
1.8150000000	9.9546696433
1.8200000000	7.2932206609
1.8250000000	5.5677948163
1.8300000000	4.3962907909
1.8350000000	3.5693948488
1.8400000000	2.9669626692
1.8450000000	2.5161123372
1.8500000000	2.1709121961
1.8550000000	1.9026216676
1.8600000000	1.6911916282
1.8650000000	1.5229963483
1.8700000000	1.3883449237
1.8750000000	1.2801227384
1.8800000000	1.1926863750
1.8850000000	1.1210492306
1.8900000000	1.0594653169
1.8950000000	0.9993603013
1.9000000000	0.9259280185
1.9050000000	0.7869147249
1.9100000000	0.5955971898
1.9150000000	0.4942763347
1.9200000000	1.2086664785
1.9250000000	3.1831074510
1.9300000000	4.7489725212
1.9350000000	4.6759210912
1.9400000000	3.6777356401
1.9450000000	2.7099670531
1.9500000000	2.0304828421
1.9550000000	1.5852637977
1.9600000000	1.2910492149
1.9650000000	1.0941265451
1.9700000000	0.9519640372
1.9750000000	0.8477535386
1.9800000000	0.7681930673
1.9850000000	0.7036317274
1.9900000000	0.6466847105
1.9950000000	0.5909069225
2.0000000000	0.5353587461
2.0050000000	0.4998710626
2.0100000000	0.5202041413
2.0150000000	0.5762163999
2.0200000000	0.6107541626
2.0250000000	0.6199307413
2.0300000000	0.6219994442
2.0350000000	0.6257609325
2.0400000000	0.6344853087
2.0450000000	0.6490063164
2.0500000000	0.6698648617
2.0550000000	0.6975521437
2.0600000000	0.7320685453
2.0650000000	0.7713233996
2.0700000000	0.8101319276
2.0750000000	0.8446086016
2.0800000000	0.8781819129
2.0850000000	0.9179422276
2.0900000000	0.9686423635
2.0950000000	1.0322837884
2.1000000000	1.1110194874
2.1050000000	1.2041364704
2.1100000000	1.3181790976
2.1150000000	1.4579314019
2.1200000000	1.6301025240
2.1250000000	1.8441031004
2.1300000000	2.1131983997
2.1350000000	2.4563271644
2.1400000000	2.9008363029
2.1450000000	3.4867072054
2.1500000000	4.2721942057
2.1550000000	5.3397430485
2.1600000000	6.7948713441
2.1650000000	8.7269393995
2.1700000000	11.1002004201
2.1750000000	13.4597205297
2.1800000000	14.9176167227
2.1850000000	14.9933969531
2.1900000000	14.3305784798
2.1950000000	13.8148106434
2.2000000000	13.5861065908
2.2050000000	12.9506848788
2.2100000000	11.6015919032
2.2150000000	9.9428599622
2.2200000000	8.4537863466
2.2250000000	7.2231426034
2.2300000000	6.1395615542
2.2350000000	5.1599053831
2.2400000000	4.3184511340
2.2450000000	3.6451861973
2.2500000000	3.1290690325
2.2550000000	2.7413519947
2.2600000000	2.4510462550
2.2650000000	2.2270994759
2.2700000000	2.0359448753
2.2750000000	1.8445128528
2.2800000000	1.6384221922
2.2850000000	1.4423210876
2.2900000000	1.3068142645
2.2950000000	1.2605447088
2.3000000000	1.2771113786
2.3050000000	1.3023943050
2.3100000000	1.3045274593
2.3150000000	1.2837699724
2.3200000000	1.2539160680
2.3250000000	1.2292135154
2.3300000000	1.2169525850
2.3350000000	1.2183858785
2.3400000000	1.2294306721
2.3450000000	1.2408465101
2.3500000000	1.2409978005
2.3550000000	1.2224611335
2.3600000000	1.1873373852
2.3650000000	1.1448068467
2.3700000000	1.1043322676
2.3750000000	1.0715651725
2.3800000000	1.0483411791
2.3850000000	1.0341405309
2.3900000000	1.0277786974
2.3950000000	1.0278837173
2.4000000000	1.0348293880
2.4050000000	1.0509029757
2.4100000000	1.0768712346
2.4150000000	1.1137955178
2.4200000000	1.1623137559
2.4250000000	1.2235422142
2.4300000000	1.2991087964
2.4350000000	1.3911972574
2.4400000000	1.5026255415
2.4450000000	1.6369916962
2.4500000000	1.7988352152
2.4550000000	1.9938618400
2.4600000000	2.2290818066
2.4650000000	2.5129060207
2.4700000000	2.8549809118
2.4750000000	3.2649692403
2.4800000000	3.7528504737
2.4850000000	4.3225752226
2.4900000000	4.9685751178
2.4950000000	5.6677325136
2.5000000000	6.3711570419
2.5050000000	7.0291800966
2.5100000000	7.4737201640
2.5150000000	7.6078332757
2.5200000000	7.4084177189
2.5250000000	6.9370308208
2.5300000000	6.3009134317
2.5350000000	5.6034945584
2.5400000000	4.9178442101
2.5450000000	4.2852470959
2.5500000000	3.7240614932
2.5550000000	3.2384663954
2.5600000000	2.8217851795
2.5650000000	2.4714617171
2.5700000000	2.1792482563
2.5750000000	1.9399816483
2.5800000000	1.7498052107
2.5850000000	1.6045264901
2.5900000000	1.4972500601
2.5950000000	1.4182815978
2.6000000000	1.3575272333
2.6050000000	1.3143500984
2.6100000000	1.2769642454
2.6150000000	1.2447770620
2.6200000000	1.2184244720
2.6250000000	1.1986109786
2.6300000000	1.1858070172
2.6350000000	1.1802526274
2.6400000000	1.1820872113
2.6450000000	1.1914405015
2.6500000000	1.2085664109
2.6550000000	1.2335360583
2.6600000000	1.2667326471
2.6650000000	1.3085432786
2.6700000000	1.3594434836
2.6750000000	1.4200095345
2.6800000000	1.4908801343
2.6850000000	1.5727086592
2.6900000000	1.6660303163
2.6950000000	1.7711555380
2.7000000000	1.8879779283
2.7050000000	2.0297842783
2.7100000000	2.1845467593
2.7150000000	2.3492519124
2.7200000000	2.5195167903
2.7250000000	2.6898352180
2.7300000000	2.8539941361
2.7350000000	3.0054316550
2.7400000000	3.1373232619
2.7450000000	3.2436110101
2.7500000000	3.3148979966
2.7550000000	3.3454954292
2.7600000000	3.3310867263
2.7650000000	3.2711698064
2.7700000000	3.1697602664
2.7750000000	3.0349036952
2.7800000000	2.8770869934
2.7850000000	2.7074353408
2.7900000000	2.5359307219
2.7950000000	2.3705777727
2.8000000000	2.2170365491
2.8050000000	2.0616888161
2.8100000000	1.9287314624
2.8150000000	1.8178078555
2.8200000000	1.7271324294
2.8250000000	1.6543518091
2.8300000000	1.5970953658
2.8350000000	1.5533342847
2.8400000000	1.5209328172
2.8450000000	1.4999653258
2.8500000000	1.4888796753
2.8550000000	1.4870844616
2.8600000000	1.4941380737
2.8650000000	1.5096426873
2.8700000000	1.5331532953
2.8750000000	1.5641053217
2.8800000000	1.6017586088
2.8850000000	1.6451505747
2.8900000000	1.6931241405
2.8950000000	1.7443706512
2.9000000000	1.7975138964
2.9050000000	1.8613762175
2.9100000000	1.9226408221
2.9150000000	1.9793805740
2.9200000000	2.0295729046
2.9250000000	2.0709229000
2.9300000000	2.1013174105
2.9350000000	2.1174702707
2.9400000000	2.1179631013
2.9450000000	2.1021916844
2.9500000000	2.0710660061
2.9550000000	2.0269517555
2.9600000000	1.9732635706
2.9650000000	1.9138705268
2.9700000000	1.8525140039
2.9750000000	1.7923914079
2.9800000000	1.7359527086
2.9850000000	1.6848694568
2.9900000000	1.6401470396
2.9950000000	1.6022574169
3.0000000000	1.5712998995
