# energy (eV)    P(omega), $W$ = 300 nm, $h$ = 300 nm, $s$ = 20 nm, $d/W = 5$, $E_{\rm e}$ = 200 keV
0.2000000000	0.1907788591
0.2050000000	0.1936369748
0.2100000000	0.1963084886
0.2150000000	0.1987994906
0.2200000000	0.2011151973
0.2250000000	0.2032600312
0.2300000000	0.2052373828
0.2350000000	0.2070494995
0.2400000000	0.2086972545
0.2450000000	0.2101800359
0.2500000000	0.2114954185
0.2550000000	0.2126387360
0.2600000000	0.2136029742
0.2650000000	0.2143779415
0.2700000000	0.2149498210
0.2750000000	0.2153002989
0.2800000000	0.2154055941
0.2850000000	0.2152351221
0.2900000000	0.2147497117
0.2950000000	0.2138996474
0.3000000000	0.2126214299
0.3050000000	0.2108341363
0.3100000000	0.2084341692
0.3150000000	0.2202947375
0.3200000000	0.2343807429
0.3250000000	0.2521973923
0.3300000000	0.2760588919
0.3350000000	0.3057600194
0.3400000000	0.3446541828
0.3450000000	0.3918270754
0.3500000000	0.4535355265
0.3550000000	0.5351838725
0.3600000000	0.6417860664
0.3650000000	0.7903949708
0.3700000000	0.9863332595
0.3750000000	1.2588756750
0.3800000000	1.6530288430
0.3850000000	2.2671670495
0.3900000000	3.2373193092
0.3950000000	4.8851559448
0.4000000000	8.0263773423
0.4050000000	15.0686181373
0.4100000000	34.2833752600
0.4150000000	110.0174523571
0.4200000000	70.0981887396
0.4250000000	-131.9268372987
0.4300000000	36.6818864762
0.4350000000	22.8569917473
0.4400000000	13.9713698298
0.4450000000	9.1885485155
0.4500000000	6.4353068142
0.4550000000	4.7410428564
0.4600000000	3.6376159240
0.4650000000	2.8857177119
0.4700000000	2.3543019740
0.4750000000	1.9699769659
0.4800000000	1.6850342321
0.4850000000	1.4706213995
0.4900000000	1.3069513148
0.4950000000	1.1807411212
0.5000000000	1.0829114987
0.5050000000	1.0068013154
0.5100000000	0.9481210289
0.5150000000	0.9037123494
0.5200000000	0.8702754689
0.5250000000	0.8463224711
0.5300000000	0.8302573248
0.5350000000	0.8209124333
0.5400000000	0.8174269352
0.5450000000	0.8190817926
0.5500000000	0.8256486357
0.5550000000	0.8367219305
0.5600000000	0.8520939402
0.5650000000	0.8716710429
0.5700000000	0.8953676873
0.5750000000	0.9233492194
0.5800000000	0.9558845653
0.5850000000	0.9931488703
0.5900000000	1.0354823739
0.5950000000	1.0833133409
0.6000000000	1.1371872795
0.6050000000	1.1978954728
0.6100000000	1.2661923809
0.6150000000	1.3431091937
0.6200000000	1.4300215181
0.6250000000	1.5282481128
0.6300000000	1.6397384586
0.6350000000	1.7669222926
0.6400000000	1.9123275404
0.6450000000	2.0796035411
0.6500000000	2.2735483179
0.6550000000	2.4991562236
0.6600000000	2.7641039773
0.6650000000	3.0782408398
0.6700000000	3.4531464181
0.6750000000	3.9064781662
0.6800000000	4.4619828382
0.6850000000	5.1507666664
0.6900000000	6.0210081712
0.6950000000	7.1400874185
0.7000000000	8.6150386061
0.7050000000	10.6094864229
0.7100000000	13.4006714245
0.7150000000	17.4821104745
0.7200000000	23.7725722164
0.7250000000	34.2141806614
0.7300000000	53.3796087560
0.7350000000	94.3875014772
0.7400000000	206.8511953331
0.7450000000	686.2066879638
0.7500000000	2125.8155127587
0.7550000000	534.7809041269
0.7600000000	177.1024413366
0.7650000000	84.8552023411
0.7700000000	49.3474766483
0.7750000000	32.2068807814
0.7800000000	22.6647596644
0.7850000000	16.8327006176
0.7900000000	13.0043057353
0.7950000000	10.3639803654
0.8000000000	8.4659703899
0.8050000000	7.0523933231
0.8100000000	5.9744751587
0.8150000000	5.1200047499
0.8200000000	4.4456398118
0.8250000000	3.9026554751
0.8300000000	3.4578708702
0.8350000000	3.0921790582
0.8400000000	2.7856258759
0.8450000000	2.5283898844
0.8500000000	2.3109524601
0.8550000000	2.1233149722
0.8600000000	1.9631355559
0.8650000000	1.8263151034
0.8700000000	1.7054240476
0.8750000000	1.6025879055
0.8800000000	1.5153277650
0.8850000000	1.4370944319
0.8900000000	1.3743345136
0.8950000000	1.3172423728
0.9000000000	1.2719908583
0.9050000000	1.2408198678
0.9100000000	1.2122541003
0.9150000000	1.1949191071
0.9200000000	1.1928147350
0.9250000000	1.1912499192
0.9300000000	1.1737605961
0.9350000000	1.1213205355
0.9400000000	0.8292594411
0.9450000000	-0.4981651859
0.9500000000	-7.5033571073
0.9550000000	-43.0341653421
0.9600000000	10.1544859227
0.9650000000	17.8374375921
0.9700000000	7.9115020614
0.9750000000	4.1533437778
0.9800000000	2.6029713609
0.9850000000	1.8778622550
0.9900000000	1.4600738576
0.9950000000	1.2067382516
1.0000000000	1.0449828794
1.0050000000	0.9424327026
1.0100000000	0.8629320877
1.0150000000	0.8048519200
1.0200000000	0.7657309385
1.0250000000	0.7328956126
1.0300000000	0.7079514706
1.0350000000	0.6890819355
1.0400000000	0.6770855114
1.0450000000	0.6671116217
1.0500000000	0.6605334690
1.0550000000	0.6569614245
1.0600000000	0.6572756025
1.0650000000	0.6590262795
1.0700000000	0.6632122899
1.0750000000	0.6698509363
1.0800000000	0.6795977412
1.0850000000	0.6919670807
1.0900000000	0.7102124813
1.0950000000	0.7318795987
1.1000000000	0.7576950813
1.1050000000	0.7874490198
1.1100000000	0.8220807687
1.1150000000	0.8623691599
1.1200000000	0.9092369678
1.1250000000	0.9638922733
1.1300000000	1.0279510787
1.1350000000	1.1034259042
1.1400000000	1.1926080116
1.1450000000	1.2996828656
1.1500000000	1.4291994238
1.1550000000	1.5877351660
1.1600000000	1.7845696372
1.1650000000	2.0317428306
1.1700000000	2.3518122959
1.1750000000	2.7747204571
1.1800000000	3.3499690718
1.1850000000	4.1589249051
1.1900000000	5.3549346934
1.1950000000	7.2324421088
1.2000000000	10.4169696353
1.2050000000	16.4348798827
1.2100000000	29.6730312689
1.2150000000	65.4553389781
1.2200000000	160.6399243980
1.2250000000	144.3222188419
1.2300000000	57.5670723912
1.2350000000	26.9982245874
1.2400000000	15.4195104798
1.2450000000	10.1030811043
1.2500000000	7.2983505186
1.2550000000	5.6795648962
1.2600000000	4.6943876065
1.2650000000	4.0771353224
1.2700000000	3.7088759261
1.2750000000	3.5124964054
1.2800000000	3.4512715224
1.2850000000	3.5091415176
1.2900000000	3.6847674967
1.2950000000	3.9872726641
1.3000000000	4.4540364179
1.3050000000	5.1329907715
1.3100000000	6.1135299107
1.3150000000	7.5503352860
1.3200000000	9.7214956215
1.3250000000	13.1570370315
1.3300000000	19.0178134407
1.3350000000	29.9952227468
1.3400000000	53.4571691242
1.3450000000	111.7017250160
1.3500000000	237.0551997876
1.3550000000	221.0865972163
1.3600000000	101.9532812580
1.3650000000	50.0933560918
1.3700000000	28.7280221344
1.3750000000	18.4748023588
1.3800000000	12.8841967700
1.3850000000	9.5164737753
1.3900000000	7.3459274916
1.3950000000	5.8650264154
1.4000000000	4.8116214118
1.4050000000	4.0379095800
1.4100000000	3.4543662154
1.4150000000	3.0075014457
1.4200000000	2.6595652897
1.4250000000	2.4004776406
1.4300000000	2.2352169300
1.4350000000	2.1252438591
1.4400000000	1.4592707946
1.4450000000	-0.3843714585
1.4500000000	-3.5940597427
1.4550000000	-1.2022514634
1.4600000000	3.6507454321
1.4650000000	2.1162250373
1.4700000000	-1.3442962332
1.4750000000	-6.8165520803
1.4800000000	-3.0068623739
1.4850000000	5.1551677379
1.4900000000	4.1732571204
1.4950000000	2.7077901665
1.5000000000	1.9065876685
1.5050000000	1.4728450581
1.5100000000	1.2245598757
1.5150000000	1.0723313988
1.5200000000	0.9726269482
1.5250000000	0.9093504960
1.5300000000	0.8594912919
1.5350000000	0.8232815607
1.5400000000	0.7970636776
1.5450000000	0.7786574025
1.5500000000	0.7665578748
1.5550000000	0.7601400344
1.5600000000	0.7607100133
1.5650000000	0.7656524629
1.5700000000	0.7777839051
1.5750000000	0.7993311367
1.5800000000	0.8347244457
1.5850000000	0.8926853571
1.5900000000	0.9916618389
1.5950000000	1.1724329952
1.6000000000	1.5209246654
1.6050000000	2.0928219236
1.6100000000	2.3591957327
1.6150000000	1.8766579244
1.6200000000	1.4293438819
1.6250000000	1.2018920189
1.6300000000	1.0973791834
1.6350000000	1.0541464463
1.6400000000	1.0442662874
1.6450000000	1.0549627067
1.6500000000	1.0800163988
1.6550000000	1.1168644578
1.6600000000	1.1642005173
1.6650000000	1.2218401556
1.6700000000	1.2902556312
1.6750000000	1.3704298157
1.6800000000	1.4638043093
1.6850000000	1.5723043341
1.6900000000	1.6981703794
1.6950000000	1.8427056513
1.7000000000	2.0091019946
1.7050000000	2.2016546757
1.7100000000	2.4350342622
1.7150000000	2.8270562708
1.7200000000	3.4190743844
1.7250000000	4.0593621279
1.7300000000	4.8208866965
1.7350000000	5.6447111716
1.7400000000	6.4049772121
1.7450000000	7.3630520675
1.7500000000	8.8318981489
1.7550000000	11.0351321355
1.7600000000	14.3407605796
1.7650000000	19.4405336075
1.7700000000	27.6556930179
1.7750000000	41.4923695113
1.7800000000	65.0584959333
1.7850000000	99.7854848689
1.7900000000	123.9234141857
1.7950000000	105.4382451894
1.8000000000	70.1039387780
1.8050000000	44.2204137974
1.8100000000	29.1148247520
1.8150000000	20.2633024617
1.8200000000	14.8163841689
1.8250000000	11.2845146004
1.8300000000	8.8851938439
1.8350000000	7.1898275702
1.8400000000	5.9524176600
1.8450000000	5.0235495002
1.8500000000	4.3089611886
1.8550000000	3.7495523245
1.8600000000	3.3037522809
1.8650000000	2.9429871590
1.8700000000	2.6464355408
1.8750000000	2.3981251429
1.8800000000	2.1844594593
1.8850000000	1.9921810479
1.8900000000	1.8048803441
1.8950000000	1.5977000073
1.9000000000	1.3285220339
1.9050000000	0.8599192318
1.9100000000	0.1869675456
1.9150000000	-0.4611787949
1.9200000000	0.3198326896
1.9250000000	3.4468434441
1.9300000000	5.9448301273
1.9350000000	6.0011672404
1.9400000000	4.8177516774
1.9450000000	3.6517018747
1.9500000000	2.8252123866
1.9550000000	2.2785064763
1.9600000000	1.9141758133
1.9650000000	1.6714130818
1.9700000000	1.4926937196
1.9750000000	1.3616412215
1.9800000000	1.2621757993
1.9850000000	1.1827664158
1.9900000000	1.1148306430
1.9950000000	1.0510940321
2.0000000000	0.9902479233
2.0050000000	0.9540788506
2.0100000000	0.9784073129
2.0150000000	1.0418416919
2.0200000000	1.0847221344
2.0250000000	1.1033964336
2.0300000000	1.1176665616
2.0350000000	1.1366939911
2.0400000000	1.1649408850
2.0450000000	1.2043057992
2.0500000000	1.2567211961
2.0550000000	1.3241089102
2.0600000000	1.4065779566
2.0650000000	1.4975332135
2.0700000000	1.5805597973
2.0750000000	1.6428364712
2.0800000000	1.6938865718
2.0850000000	1.7544115188
2.0900000000	1.8375748478
2.0950000000	1.9479333956
2.1000000000	2.0889668331
2.1050000000	2.2585404156
2.1100000000	2.4684693438
2.1150000000	2.7272198072
2.1200000000	3.0469721474
2.1250000000	3.4450099670
2.1300000000	3.9458249784
2.1350000000	4.5844592010
2.1400000000	5.4115243370
2.1450000000	6.5009995121
2.1500000000	7.9606147266
2.1550000000	9.9427428309
2.1600000000	12.6423326130
2.1650000000	16.2245881365
2.1700000000	20.6265174059
2.1750000000	25.0158984687
2.1800000000	27.7724387192
2.1850000000	28.0307361054
2.1900000000	26.9841539702
2.1950000000	26.2417374240
2.2000000000	25.9823336062
2.2050000000	24.7611328300
2.2100000000	21.9599733007
2.2150000000	18.4354209275
2.2200000000	15.2295815403
2.2250000000	12.6320561783
2.2300000000	10.5000448884
2.2350000000	8.7161689200
2.2400000000	7.2517005145
2.2450000000	6.0953909493
2.2500000000	5.1992978570
2.2550000000	4.5057277161
2.2600000000	3.9612982390
2.2650000000	3.5179070287
2.2700000000	3.1300371103
2.2750000000	2.7592412710
2.2800000000	2.3966203609
2.2850000000	2.0864565934
2.2900000000	1.9041357570
2.2950000000	1.8834215060
2.3000000000	1.9660648531
2.3050000000	2.0531199013
2.3100000000	2.0839245737
2.3150000000	2.0603947724
2.3200000000	2.0087628688
2.3250000000	1.9559885516
2.3300000000	1.9163843053
2.3350000000	1.8941317389
2.3400000000	1.8860933068
2.3450000000	1.8831339483
2.3500000000	1.8734859313
2.3550000000	1.8496317820
2.3600000000	1.8136512923
2.3650000000	1.7747139427
2.3700000000	1.7421388941
2.3750000000	1.7211043926
2.3800000000	1.7124383003
2.3850000000	1.7140538378
2.3900000000	1.7232867665
2.3950000000	1.7375855357
2.4000000000	1.7582219797
2.4050000000	1.7905900003
2.4100000000	1.8369865114
2.4150000000	1.9005788494
2.4200000000	1.9835495636
2.4250000000	2.0882378853
2.4300000000	2.2175128973
2.4350000000	2.3750524510
2.4400000000	2.5655905065
2.4450000000	2.7951975589
2.4500000000	3.0715676288
2.4550000000	3.4044075856
2.4600000000	3.8056556918
2.4650000000	4.2897017824
2.4700000000	4.8731080273
2.4750000000	5.5725730527
2.4800000000	6.4057238282
2.4850000000	7.3798855157
2.4900000000	8.4859396999
2.4950000000	9.6835457153
2.5000000000	10.8855936368
2.5050000000	11.9996952542
2.5100000000	12.7301785466
2.5150000000	12.9111922809
2.5200000000	12.5150302320
2.5250000000	11.6645645069
2.5300000000	10.5550090366
2.5350000000	9.3634432686
2.5400000000	8.2067156082
2.5450000000	7.1457923146
2.5500000000	6.2052180144
2.5550000000	5.3892056932
2.5600000000	4.6861146187
2.5650000000	4.0933873848
2.5700000000	3.5984411252
2.5750000000	3.1936726345
2.5800000000	2.8732688242
2.5850000000	2.6303700105
2.5900000000	2.4529807949
2.5950000000	2.3238843598
2.6000000000	2.2250845588
2.6050000000	2.1545875440
2.6100000000	2.0920835774
2.6150000000	2.0367340907
2.6200000000	1.9898384613
2.6250000000	1.9527280931
2.6300000000	1.9262564978
2.6350000000	1.9108319591
2.6400000000	1.9066703649
2.6450000000	1.9139907314
2.6500000000	1.9332431639
2.6550000000	1.9645286199
2.6600000000	2.0085341395
2.6650000000	2.0659129737
2.6700000000	2.1374352598
2.6750000000	2.2240009000
2.6800000000	2.3265717771
2.6850000000	2.4461339948
2.6900000000	2.5835596795
2.6950000000	2.7395167804
2.7000000000	2.9142524528
2.7050000000	3.1282140668
2.7100000000	3.3651390482
2.7150000000	3.6221393014
2.7200000000	3.8943599640
2.7250000000	4.1748950128
2.7300000000	4.4548015982
2.7350000000	4.7231301521
2.7400000000	4.9668522186
2.7450000000	5.1729646861
2.7500000000	5.3221606143
2.7550000000	5.4016590495
2.7600000000	5.4018079026
2.7650000000	5.3204811681
2.7700000000	5.1641587550
2.7750000000	4.9468329864
2.7800000000	4.6869709306
2.7850000000	4.4042140880
2.7900000000	4.1161587116
2.7950000000	3.8369082615
2.8000000000	3.5764417622
2.8050000000	3.3118774635
2.8100000000	3.0841316408
2.8150000000	2.8926937110
2.8200000000	2.7345724945
2.8250000000	2.6057916005
2.8300000000	2.5023404792
2.8350000000	2.4208048389
2.8400000000	2.3575536532
2.8450000000	2.3128066113
2.8500000000	2.2838969685
2.8550000000	2.2698156546
2.8600000000	2.2698191669
2.8650000000	2.2832773720
2.8700000000	2.3095751574
2.8750000000	2.3480101533
2.8800000000	2.3977260385
2.8850000000	2.4576363238
2.8900000000	2.5264429649
2.8950000000	2.6026104978
2.9000000000	2.6844464645
2.9050000000	2.7879447493
2.9100000000	2.8913907173
2.9150000000	2.9910900831
2.9200000000	3.0827999094
2.9250000000	3.1616249626
2.9300000000	3.2230040753
2.9350000000	3.2605433871
2.9400000000	3.2711942315
2.9450000000	3.2534674057
2.9500000000	3.2085796299
2.9550000000	3.1403481116
2.9600000000	3.0544515331
2.9650000000	2.9574284878
2.9700000000	2.8556728483
2.9750000000	2.7546990100
2.9800000000	2.6587709034
2.9850000000	2.5708352850
2.9900000000	2.4927071906
2.9950000000	2.4252677878
3.0000000000	2.3687721470
