# energy (eV)    P(omega), $W$ = 300 nm, $h$ = 300 nm, $s$ = 20 nm, $d/W = 5$, $E_{\rm e}$ = 200 keV
0.2000000000	0.2397656063
0.2050000000	0.2432096021
0.2100000000	0.2464468669
0.2150000000	0.2494838664
0.2200000000	0.2523261747
0.2250000000	0.2549784004
0.2300000000	0.2574439293
0.2350000000	0.2597248761
0.2400000000	0.2618218467
0.2450000000	0.2637334176
0.2500000000	0.2654564290
0.2550000000	0.2669848062
0.2600000000	0.2683096724
0.2650000000	0.2694186528
0.2700000000	0.2702947866
0.2750000000	0.2709158653
0.2800000000	0.2712531048
0.2850000000	0.2712697026
0.2900000000	0.2709183746
0.2950000000	0.2701394979
0.3000000000	0.2688562925
0.3050000000	0.2669717616
0.3100000000	0.2643613808
0.3150000000	0.2786033528
0.3200000000	0.2955201223
0.3250000000	0.3169049014
0.3300000000	0.3455213855
0.3350000000	0.3811532159
0.3400000000	0.4278185194
0.3450000000	0.4844690230
0.3500000000	0.5586087191
0.3550000000	0.6567582388
0.3600000000	0.7850074787
0.3650000000	0.9638848397
0.3700000000	1.1999787044
0.3750000000	1.5286439999
0.3800000000	2.0043288188
0.3850000000	2.7459910906
0.3900000000	3.9185419779
0.3950000000	5.9117196174
0.4000000000	9.7139755560
0.4050000000	18.2442265251
0.4100000000	41.5367787311
0.4150000000	133.4126444023
0.4200000000	84.9205009639
0.4250000000	-160.3031923588
0.4300000000	44.6712836218
0.4350000000	27.8729917153
0.4400000000	17.0645666985
0.4450000000	11.2424461482
0.4500000000	7.8886021425
0.4550000000	5.8234231235
0.4600000000	4.4776175793
0.4650000000	3.5600569138
0.4700000000	2.9112451596
0.4750000000	2.4418592369
0.4800000000	2.0937747573
0.4850000000	1.8318475917
0.4900000000	1.6319577146
0.4950000000	1.4779062225
0.5000000000	1.3586239362
0.5050000000	1.2659798283
0.5100000000	1.1947487848
0.5150000000	1.1410860919
0.5200000000	1.1009492231
0.5250000000	1.0725376712
0.5300000000	1.0539028944
0.5350000000	1.0436237989
0.5400000000	1.0406544372
0.5450000000	1.0441216229
0.5500000000	1.0537652158
0.5550000000	1.0690981293
0.5600000000	1.0898830491
0.5650000000	1.1160197301
0.5700000000	1.1474233241
0.5750000000	1.1843185704
0.5800000000	1.2270707098
0.5850000000	1.2759197765
0.5900000000	1.3313223958
0.5950000000	1.3938448865
0.6000000000	1.4642077208
0.6050000000	1.5434436484
0.6100000000	1.6325475063
0.6150000000	1.7328694775
0.6200000000	1.8462117506
0.6250000000	1.9742998273
0.6300000000	2.1196841092
0.6350000000	2.2855435075
0.6400000000	2.4751870399
0.6450000000	2.6933886716
0.6500000000	2.9464275156
0.6550000000	3.2408412504
0.6600000000	3.5866740743
0.6650000000	3.9968242214
0.6700000000	4.4864551576
0.6750000000	5.0786808214
0.6800000000	5.8046219034
0.6850000000	6.7050162718
0.6900000000	7.8430112230
0.6950000000	9.3068944470
0.7000000000	11.2369936148
0.7050000000	13.8478261769
0.7100000000	17.5029794093
0.7150000000	22.8497618522
0.7200000000	31.0935237165
0.7250000000	44.7826933996
0.7300000000	69.9188136881
0.7350000000	123.7234710559
0.7400000000	271.3430923202
0.7450000000	900.8320816880
0.7500000000	2792.8459768080
0.7550000000	703.1284644010
0.7600000000	233.0372982842
0.7650000000	111.7444149309
0.7700000000	65.0375027837
0.7750000000	42.4818468715
0.7800000000	29.9203227578
0.7850000000	22.2399522214
0.7900000000	17.1963933839
0.7950000000	13.7167131576
0.8000000000	11.2144441874
0.8050000000	9.3501820386
0.8100000000	7.9280931291
0.8150000000	6.8003376854
0.8200000000	5.9100040730
0.8250000000	5.1929168195
0.8300000000	4.6053138507
0.8350000000	4.1220900194
0.8400000000	3.7169128056
0.8450000000	3.3768427418
0.8500000000	3.0893619963
0.8550000000	2.8412087031
0.8600000000	2.6293647830
0.8650000000	2.4484567913
0.8700000000	2.2885615198
0.8750000000	2.1526188318
0.8800000000	2.0373727590
0.8850000000	1.9340374376
0.8900000000	1.8513646034
0.8950000000	1.7761488404
0.9000000000	1.7167775213
0.9050000000	1.6763421034
0.9100000000	1.6393091491
0.9150000000	1.6174008446
0.9200000000	1.6161006714
0.9250000000	1.6154165211
0.9300000000	1.5928275146
0.9350000000	1.5221001813
0.9400000000	1.1228448259
0.9450000000	-0.6965047477
0.9500000000	-10.3075335305
0.9550000000	-59.0910738220
0.9600000000	13.9572756961
0.9650000000	24.5314244636
0.9700000000	10.8879632061
0.9750000000	5.7185091172
0.9800000000	3.5847345882
0.9850000000	2.5864857239
0.9900000000	2.0110240745
0.9950000000	1.6619610887
1.0000000000	1.4390418771
1.0050000000	1.2977771541
1.0100000000	1.1881390335
1.0150000000	1.1079945036
1.0200000000	1.0540367909
1.0250000000	1.0086289859
1.0300000000	0.9740567253
1.0350000000	0.9478091947
1.0400000000	0.9310437105
1.0450000000	0.9169476959
1.0500000000	0.9074615013
1.0550000000	0.9020419023
1.0600000000	0.9019420609
1.0650000000	0.9036749635
1.0700000000	0.9086485587
1.0750000000	0.9168793450
1.0800000000	0.9292901790
1.0850000000	0.9450682491
1.0900000000	0.9685864581
1.0950000000	0.9965546151
1.1000000000	1.0299545403
1.1050000000	1.0683573009
1.1100000000	1.1130172794
1.1150000000	1.1649241854
1.1200000000	1.2252924655
1.1250000000	1.2955081550
1.1300000000	1.3776659445
1.1350000000	1.4742954918
1.1400000000	1.5883248301
1.1450000000	1.7248855704
1.1500000000	1.8897349200
1.1550000000	2.0911125962
1.1600000000	2.3406415533
1.1650000000	2.6534477153
1.1700000000	3.0576391067
1.1750000000	3.5907287701
1.1800000000	4.3146423234
1.1850000000	5.3311101122
1.1900000000	6.8321443098
1.1950000000	9.1857674928
1.2000000000	13.1746502845
1.2050000000	20.7087017707
1.2100000000	37.2781870164
1.2150000000	82.0709643323
1.2200000000	201.2862453768
1.2250000000	181.0211817813
1.2300000000	72.4225201228
1.2350000000	34.1463268496
1.2400000000	19.6556923386
1.2450000000	13.0149329179
1.2500000000	9.5260804940
1.2550000000	7.5288294338
1.2600000000	6.3319592260
1.2650000000	5.6034831978
1.2700000000	5.1967074668
1.2750000000	5.0169919181
1.2800000000	5.0215430948
1.2850000000	5.1946748651
1.2900000000	5.5410971411
1.2950000000	6.0805500543
1.3000000000	6.8750306637
1.3050000000	8.0052480114
1.3100000000	9.6171797141
1.3150000000	11.9623316101
1.3200000000	15.4909924768
1.3250000000	21.0630693344
1.3300000000	30.5554217774
1.3350000000	48.3258242262
1.3400000000	86.3035934282
1.3450000000	180.6048839456
1.3500000000	383.6684250019
1.3550000000	358.0584314821
1.3600000000	165.1808300060
1.3650000000	81.1713712696
1.3700000000	46.5507589044
1.3750000000	29.9335300413
1.3800000000	20.8725805278
1.3850000000	15.4152667934
1.3900000000	11.8998162081
1.3950000000	9.5028922098
1.4000000000	7.8008039921
1.4050000000	6.5544443811
1.4100000000	5.6204323650
1.4150000000	4.9156693464
1.4200000000	4.3857149624
1.4250000000	4.0308210613
1.4300000000	3.9010099559
1.4350000000	3.9736675813
1.4400000000	3.0609406478
1.4450000000	0.2649216104
1.4500000000	-4.2740406317
1.4550000000	-1.1980169060
1.4600000000	5.1767710177
1.4650000000	2.8024530257
1.4700000000	-2.6474886448
1.4750000000	-11.5853483384
1.4800000000	-5.1562523169
1.4850000000	8.4745082764
1.4900000000	6.8694866144
1.4950000000	4.4464274467
1.5000000000	3.1241472133
1.5050000000	2.4121519470
1.5100000000	2.0063394499
1.5150000000	1.7598942330
1.5200000000	1.6006995359
1.5250000000	1.5017923098
1.5300000000	1.4262440775
1.5350000000	1.3741764646
1.5400000000	1.3398888307
1.5450000000	1.3203233464
1.5500000000	1.3135065246
1.5550000000	1.3194911075
1.5600000000	1.3417985113
1.5650000000	1.3786287363
1.5700000000	1.4382469785
1.5750000000	1.5307397629
1.5800000000	1.6750449389
1.5850000000	1.9080256056
1.5900000000	2.3073462379
1.5950000000	3.0448718102
1.6000000000	4.4836312186
1.6050000000	6.8625679235
1.6100000000	7.9642772683
1.6150000000	5.8988009201
1.6200000000	3.9611548300
1.6250000000	2.9383175350
1.6300000000	2.4247143998
1.6350000000	2.1602530491
1.6400000000	2.0261606949
1.6450000000	1.9672336368
1.6500000000	1.9558271511
1.6550000000	1.9789891537
1.6600000000	2.0289892903
1.6650000000	2.1022957791
1.6700000000	2.1975635612
1.6750000000	2.3147969793
1.6800000000	2.4550412951
1.6850000000	2.6199194156
1.6900000000	2.8108647372
1.6950000000	3.0251549148
1.7000000000	3.2591753975
1.7050000000	3.4989385173
1.7100000000	3.7724820637
1.7150000000	4.4528662129
1.7200000000	5.6469018693
1.7250000000	6.7406457811
1.7300000000	7.9142338473
1.7350000000	9.2037884830
1.7400000000	10.4692530804
1.7450000000	12.0947133416
1.7500000000	14.5527787301
1.7550000000	18.2113228363
1.7600000000	23.6851654281
1.7650000000	32.1231324510
1.7700000000	45.7152144053
1.7750000000	68.6143425129
1.7800000000	107.6340184251
1.7850000000	165.1789598610
1.7900000000	205.2732618787
1.7950000000	174.7943054539
1.8000000000	116.3306312788
1.8050000000	73.4655737290
1.8100000000	48.4377055084
1.8150000000	33.7678864681
1.8200000000	24.7398829842
1.8250000000	18.8870024270
1.8300000000	14.9131054301
1.8350000000	12.1081706255
1.8400000000	10.0646520703
1.8450000000	8.5353246494
1.8500000000	7.3643825682
1.8550000000	6.4543346010
1.8600000000	5.7371728647
1.8650000000	5.1666790290
1.8700000000	4.7099828655
1.8750000000	4.3429547820
1.8800000000	4.0464571968
1.8850000000	3.8035836046
1.8900000000	3.5948559520
1.8950000000	3.3912096223
1.9000000000	3.1424539012
1.9050000000	2.6714239797
1.9100000000	2.0232476327
1.9150000000	1.6808033669
1.9200000000	4.1060297713
1.9250000000	10.8061541214
1.9300000000	16.1197502278
1.9350000000	15.8713654434
1.9400000000	12.4829689526
1.9450000000	9.1978783732
1.9500000000	6.8913916248
1.9550000000	5.3801249163
1.9600000000	4.3814416888
1.9650000000	3.7130032422
1.9700000000	3.2304538080
1.9750000000	2.8767267367
1.9800000000	2.6066686704
1.9850000000	2.3875192695
1.9900000000	2.1942098874
1.9950000000	2.0048609442
2.0000000000	1.8162834891
2.0050000000	1.6958003745
2.0100000000	1.7648227564
2.0150000000	1.9549712517
2.0200000000	2.0722086570
2.0250000000	2.1033385366
2.0300000000	2.1103287835
2.0350000000	2.1230580211
2.0400000000	2.1526256368
2.0450000000	2.2018598166
2.0500000000	2.2725936722
2.0550000000	2.3664914735
2.0600000000	2.4835541430
2.0650000000	2.6166935320
2.0700000000	2.7483317779
2.0750000000	2.8652969109
2.0800000000	2.9792147253
2.0850000000	3.1141260850
2.0900000000	3.2861475651
2.0950000000	3.5020677591
2.1000000000	3.7691917208
2.1050000000	4.0851018695
2.1100000000	4.4720011613
2.1150000000	4.9461205027
2.1200000000	5.5302216588
2.1250000000	6.2562310964
2.1300000000	7.1691527540
2.1350000000	8.3332377268
2.1400000000	9.8412631762
2.1450000000	11.8288694821
2.1500000000	14.4936901454
2.1550000000	18.1154304792
2.1600000000	23.0520689632
2.1650000000	29.6067688103
2.1700000000	37.6582407364
2.1750000000	45.6630448485
2.1800000000	50.6088797258
2.1850000000	50.8655596988
2.1900000000	48.6162762328
2.1950000000	46.8657713633
2.2000000000	46.0892993462
2.2050000000	43.9336475743
2.2100000000	39.3576081920
2.2150000000	33.7315617279
2.2200000000	28.6810882103
2.2250000000	24.5069875575
2.2300000000	20.8312551738
2.2350000000	17.5076510435
2.2400000000	14.6527243594
2.2450000000	12.3683990062
2.2500000000	10.6172956186
2.2550000000	9.3018998822
2.2600000000	8.3170697287
2.2650000000	7.5574304275
2.2700000000	6.9090531560
2.2750000000	6.2596756092
2.2800000000	5.5604529127
2.2850000000	4.8950104054
2.2900000000	4.4350865473
2.2950000000	4.2779157523
2.3000000000	4.3339607029
2.3050000000	4.4196133493
2.3100000000	4.4267730224
2.3150000000	4.3563152431
2.3200000000	4.2550362765
2.3250000000	4.1712710958
2.3300000000	4.1297500356
2.3350000000	4.1347159646
2.3400000000	4.1723016267
2.3450000000	4.2111284046
2.3500000000	4.2116851080
2.3550000000	4.1487640355
2.3600000000	4.0294993427
2.3650000000	3.8850658345
2.3700000000	3.7475975271
2.3750000000	3.6362873242
2.3800000000	3.5573720156
2.3850000000	3.5090914783
2.3900000000	3.4874278108
2.3950000000	3.4877261639
2.4000000000	3.5112525898
2.4050000000	3.5657628521
2.4100000000	3.6538560565
2.4150000000	3.7791289266
2.4200000000	3.9437418350
2.4250000000	4.1514804649
2.4300000000	4.4078678790
2.4350000000	4.7203134497
2.4400000000	5.0983780933
2.4450000000	5.5542702378
2.4500000000	6.1033917368
2.4550000000	6.7651020301
2.4600000000	7.5631861696
2.4650000000	8.5261816999
2.4700000000	9.6868182581
2.4750000000	11.0778805186
2.4800000000	12.7332274658
2.4850000000	14.6662632425
2.4900000000	16.8580962729
2.4950000000	19.2302956098
2.5000000000	21.6169930569
2.5050000000	23.8496921102
2.5100000000	25.3581234656
2.5150000000	25.8133543373
2.5200000000	25.1369566049
2.5250000000	23.5377281578
2.5300000000	21.3794906930
2.5350000000	19.0131756558
2.5400000000	16.6867364239
2.5450000000	14.5402852874
2.5500000000	12.6361367021
2.5550000000	10.9884806507
2.5600000000	9.5746648200
2.5650000000	8.3860100914
2.5700000000	7.3945262856
2.5750000000	6.5826907911
2.5800000000	5.9374148440
2.5850000000	5.4444724971
2.5900000000	5.0804683720
2.5950000000	4.8125124441
2.6000000000	4.6063594021
2.6050000000	4.4598516182
2.6100000000	4.3330005158
2.6150000000	4.2237947010
2.6200000000	4.1343911168
2.6250000000	4.0671792915
2.6300000000	4.0237552430
2.6350000000	4.0049331168
2.6400000000	4.0111861363
2.6450000000	4.0429542233
2.6500000000	4.1010987034
2.6550000000	4.1858607615
2.6600000000	4.2985400907
2.6650000000	4.4404495945
2.6700000000	4.6132024421
2.6750000000	4.8187537403
2.6800000000	5.0592712049
2.6850000000	5.3369723101
2.6900000000	5.6536736923
2.6950000000	6.0104283617
2.7000000000	6.4068744670
2.7050000000	6.8881000625
2.7100000000	7.4132818326
2.7150000000	7.9721877566
2.7200000000	8.5499376065
2.7250000000	9.1278407561
2.7300000000	9.6848109913
2.7350000000	10.1985837686
2.7400000000	10.6460087493
2.7450000000	11.0065415804
2.7500000000	11.2483108543
2.7550000000	11.3520262039
2.7600000000	11.3030499401
2.7650000000	11.0996833667
2.7700000000	10.7555523048
2.7750000000	10.2979537686
2.7800000000	9.7624668671
2.7850000000	9.1868355794
2.7900000000	8.6049257212
2.7950000000	8.0438943642
2.8000000000	7.5229442543
2.8050000000	6.9958695422
2.8100000000	6.5447677426
2.8150000000	6.1684282391
2.8200000000	5.8607923138
2.8250000000	5.6138749245
2.8300000000	5.4196326966
2.8350000000	5.2711816963
2.8400000000	5.1612754546
2.8450000000	5.0901660563
2.8500000000	5.0525873437
2.8550000000	5.0465327568
2.8600000000	5.0705041096
2.8650000000	5.1231517564
2.8700000000	5.2029653654
2.8750000000	5.3080287214
2.8800000000	5.4358291106
2.8850000000	5.5830987449
2.8900000000	5.7459094227
2.8950000000	5.9198184954
2.9000000000	6.1001543403
2.9050000000	6.3168465093
2.9100000000	6.5247096752
2.9150000000	6.7172068804
2.9200000000	6.8874786163
2.9250000000	7.0277422794
2.9300000000	7.1308314027
2.9350000000	7.1855994269
2.9400000000	7.1872362069
2.9450000000	7.1336931710
2.9500000000	7.0280590545
2.9550000000	6.8783609957
2.9600000000	6.6961848502
2.9650000000	6.4946580186
2.9700000000	6.2864742721
2.9750000000	6.0824815876
2.9800000000	5.8909921599
2.9850000000	5.7176767393
2.9900000000	5.5659462039
2.9950000000	5.4374015913
3.0000000000	5.3323795243
