# energy (eV)    P(omega), $W$ = 300 nm, $h$ = 300 nm, $s$ = 20 nm, $d/W = 5$, $E_{\rm e}$ = 200 keV
0.2000000000	0.0644994825
0.2050000000	0.0654816914
0.2100000000	0.0663944519
0.2150000000	0.0672400827
0.2200000000	0.0680206718
0.2250000000	0.0687379426
0.2300000000	0.0693932717
0.2350000000	0.0699876174
0.2400000000	0.0705214674
0.2450000000	0.0709947535
0.2500000000	0.0714067848
0.2550000000	0.0717560745
0.2600000000	0.0720403092
0.2650000000	0.0722560504
0.2700000000	0.0723986249
0.2750000000	0.0724617741
0.2800000000	0.0724373372
0.2850000000	0.0723147807
0.2900000000	0.0720806323
0.2950000000	0.0717177258
0.3000000000	0.0712041522
0.3050000000	0.0705119906
0.3100000000	0.0696054795
0.3150000000	0.0737047685
0.3200000000	0.0785729605
0.3250000000	0.0847345300
0.3300000000	0.0929938756
0.3350000000	0.1032715970
0.3400000000	0.1167299515
0.3450000000	0.1330391259
0.3500000000	0.1543653956
0.3550000000	0.1825692405
0.3600000000	0.2193663690
0.3650000000	0.2706390355
0.3700000000	0.3381773210
0.3750000000	0.4320507063
0.3800000000	0.5677154110
0.3850000000	0.7789688593
0.3900000000	1.1124369471
0.3950000000	1.6784311421
0.4000000000	2.7566466209
0.4050000000	5.1722728205
0.4100000000	11.7585703537
0.4150000000	37.6995324687
0.4200000000	24.0360445794
0.4250000000	-45.1168912081
0.4300000000	12.5212483738
0.4350000000	7.7925262632
0.4400000000	4.7564873762
0.4450000000	3.1234522592
0.4500000000	2.1840080028
0.4550000000	1.6062523098
0.4600000000	1.2301888042
0.4650000000	0.9740634730
0.4700000000	0.7931231680
0.4750000000	0.6623075558
0.4800000000	0.5653381702
0.4850000000	0.4923708363
0.4900000000	0.4366582014
0.4950000000	0.3936727263
0.5000000000	0.3603191458
0.5050000000	0.3343288801
0.5100000000	0.3142386544
0.5150000000	0.2989701144
0.5200000000	0.2874032610
0.5250000000	0.2790272849
0.5300000000	0.2732991163
0.5350000000	0.2698198621
0.5400000000	0.2682950402
0.5450000000	0.2684787655
0.5500000000	0.2702883459
0.5550000000	0.2735836295
0.5600000000	0.2782899232
0.5650000000	0.2843715275
0.5700000000	0.2917940105
0.5750000000	0.3006080891
0.5800000000	0.3108958375
0.5850000000	0.3227097251
0.5900000000	0.3361550580
0.5950000000	0.3513666797
0.6000000000	0.3685157215
0.6050000000	0.3878546885
0.6100000000	0.4096212798
0.6150000000	0.4341428907
0.6200000000	0.4618565932
0.6250000000	0.4931809646
0.6300000000	0.5287359805
0.6350000000	0.5692941051
0.6400000000	0.6156580647
0.6450000000	0.6689885142
0.6500000000	0.7308102864
0.6550000000	0.8027097883
0.6600000000	0.8871274853
0.6650000000	0.9871914070
0.6700000000	1.1065783611
0.6750000000	1.2508981339
0.6800000000	1.4276909918
0.6850000000	1.6468308098
0.6900000000	1.9236095938
0.6950000000	2.2794096267
0.7000000000	2.7481908088
0.7050000000	3.3818554191
0.7100000000	4.2683288506
0.7150000000	5.5641064802
0.7200000000	7.5604530769
0.7250000000	10.8729432728
0.7300000000	16.9506166088
0.7350000000	29.9497060869
0.7400000000	65.5848612212
0.7450000000	217.4037722493
0.7500000000	672.9823085727
0.7550000000	169.1683660502
0.7600000000	55.9798454691
0.7650000000	26.8008664311
0.7700000000	15.5739023396
0.7750000000	10.1564657445
0.7800000000	7.1417650130
0.7850000000	5.2999018246
0.7900000000	4.0912834209
0.7950000000	3.2580437398
0.8000000000	2.6592811511
0.8050000000	2.2135021873
0.8100000000	1.8736949681
0.8150000000	1.6044414587
0.8200000000	1.3920086784
0.8250000000	1.2210156906
0.8300000000	1.0809944574
0.8350000000	0.9658997728
0.8400000000	0.8694451016
0.8450000000	0.7885256840
0.8500000000	0.7201339701
0.8550000000	0.6611322789
0.8600000000	0.6107668577
0.8650000000	0.5677402936
0.8700000000	0.5297335127
0.8750000000	0.4973882671
0.8800000000	0.4699213103
0.8850000000	0.4452980471
0.8900000000	0.4254977550
0.8950000000	0.4074868928
0.9000000000	0.3931589304
0.9050000000	0.3831911113
0.9100000000	0.3740497866
0.9150000000	0.3683795538
0.9200000000	0.3673976242
0.9250000000	0.3666018605
0.9300000000	0.3609758670
0.9350000000	0.3447637394
0.9400000000	0.2556842981
0.9450000000	-0.1480808970
0.9500000000	-2.2765668920
0.9550000000	-13.0641728434
0.9600000000	3.0812200551
0.9650000000	5.4081011086
0.9700000000	2.3975571745
0.9750000000	1.2585012537
0.9800000000	0.7888461211
0.9850000000	0.5692458965
0.9900000000	0.4427772401
0.9950000000	0.3661125799
1.0000000000	0.3171683720
1.0050000000	0.2861244848
1.0100000000	0.2620813704
1.0150000000	0.2445236471
1.0200000000	0.2326900788
1.0250000000	0.2227797592
1.0300000000	0.2152639687
1.0350000000	0.2095942561
1.0400000000	0.2060013301
1.0450000000	0.2030419605
1.0500000000	0.2011223745
1.0550000000	0.2001256197
1.0600000000	0.2003099775
1.0650000000	0.2009556166
1.0700000000	0.2023579955
1.0750000000	0.2045232699
1.0800000000	0.2076464918
1.0850000000	0.2116071568
1.0900000000	0.2174120048
1.0950000000	0.2242968613
1.1000000000	0.2324854777
1.1050000000	0.2419390734
1.1100000000	0.2529475895
1.1150000000	0.2657611171
1.1200000000	0.2806668512
1.1250000000	0.2980802468
1.1300000000	0.3185108298
1.1350000000	0.3426088800
1.1400000000	0.3711045318
1.1450000000	0.4053739948
1.1500000000	0.4468781550
1.1550000000	0.4977452164
1.1600000000	0.5609779179
1.1650000000	0.6404620718
1.1700000000	0.7435250137
1.1750000000	0.8798514177
1.1800000000	1.0654665319
1.1850000000	1.3267222086
1.1900000000	1.7132250639
1.1950000000	2.3203459538
1.2000000000	3.3505156844
1.2050000000	5.2976435636
1.2100000000	9.5809349588
1.2150000000	21.1555234369
1.2200000000	51.9272474377
1.2250000000	46.6088971096
1.2300000000	18.5496382581
1.2350000000	8.6667102782
1.2400000000	4.9226898459
1.2450000000	3.2017017149
1.2500000000	2.2914456006
1.2550000000	1.7633740094
1.2600000000	1.4388820633
1.2650000000	1.2319812257
1.2700000000	1.1038405517
1.2750000000	1.0292205177
1.2800000000	0.9957097067
1.2850000000	0.9973662608
1.2900000000	1.0326666979
1.2950000000	1.1031661156
1.3000000000	1.2183333436
1.3050000000	1.3901495935
1.3100000000	1.6417101803
1.3150000000	2.0131685676
1.3200000000	2.5770091646
1.3250000000	3.4711695940
1.3300000000	4.9987311272
1.3350000000	7.8614262543
1.3400000000	13.9803249363
1.3450000000	29.1670848171
1.3500000000	61.8338202830
1.3550000000	57.6299653535
1.3600000000	26.5661426985
1.3650000000	13.0515861108
1.3700000000	7.4855827722
1.3750000000	4.8149437631
1.3800000000	3.3588586242
1.3850000000	2.4816278550
1.3900000000	1.9159901524
1.3950000000	1.5298726319
1.4000000000	1.2548229811
1.4050000000	1.0522943653
1.4100000000	0.8987330000
1.4150000000	0.7797134146
1.4200000000	0.6845009770
1.4250000000	0.6082403597
1.4300000000	0.5465463997
1.4350000000	0.4838170691
1.4400000000	0.2852214558
1.4450000000	-0.2290780921
1.4500000000	-1.1699272492
1.4550000000	-0.4248964642
1.4600000000	1.0674596125
1.4650000000	0.6495770115
1.4700000000	-0.2771936735
1.4750000000	-1.6939469575
1.4800000000	-0.7383565386
1.4850000000	1.3297517286
1.4900000000	1.0757818351
1.4950000000	0.7009458261
1.5000000000	0.4957755385
1.5050000000	0.3843202903
1.5100000000	0.3204240016
1.5150000000	0.2810954504
1.5200000000	0.2552262238
1.5250000000	0.2387604429
1.5300000000	0.2256789001
1.5350000000	0.2161046540
1.5400000000	0.2090930882
1.5450000000	0.2040671894
1.5500000000	0.2006485795
1.5550000000	0.1986459829
1.5600000000	0.1983812458
1.5650000000	0.1991162206
1.5700000000	0.2015237265
1.5750000000	0.2060621024
1.5800000000	0.2136611241
1.5850000000	0.2261519635
1.5900000000	0.2473965946
1.5950000000	0.2858815737
1.6000000000	0.3592919849
1.6050000000	0.4781352329
1.6100000000	0.5308525540
1.6150000000	0.4287416421
1.6200000000	0.3364131514
1.6250000000	0.2906230026
1.6300000000	0.2706046132
1.6350000000	0.2634406133
1.6400000000	0.2633466456
1.6450000000	0.2677062952
1.6500000000	0.2752841529
1.6550000000	0.2855639814
1.6600000000	0.2983456491
1.6650000000	0.3136521901
1.6700000000	0.3316573268
1.6750000000	0.3526634616
1.6800000000	0.3770999118
1.6850000000	0.4055382090
1.6900000000	0.4387116553
1.6950000000	0.4773171344
1.7000000000	0.5228253212
1.7050000000	0.5779176174
1.7100000000	0.6457732446
1.7150000000	0.7421152035
1.7200000000	0.8756172611
1.7250000000	1.0374488450
1.7300000000	1.2406910365
1.7350000000	1.4578788008
1.7400000000	1.6496222965
1.7450000000	1.8880596963
1.7500000000	2.2579809728
1.7550000000	2.8163981115
1.7600000000	3.6560928946
1.7650000000	4.9523106087
1.7700000000	7.0403043444
1.7750000000	10.5559614813
1.7800000000	16.5407138369
1.7850000000	25.3526542356
1.7900000000	31.4626610833
1.7950000000	26.7485677342
1.8000000000	17.7692597171
1.8050000000	11.1977346665
1.8100000000	7.3646247109
1.8150000000	5.1193390714
1.8200000000	3.7379911407
1.8250000000	2.8423712505
1.8300000000	2.2338601996
1.8350000000	1.8036905299
1.8400000000	1.4894479426
1.8450000000	1.2531930606
1.8500000000	1.0709825962
1.8550000000	0.9277952311
1.8600000000	0.8130087815
1.8650000000	0.7192828998
1.8700000000	0.6411985341
1.8750000000	0.5745069254
1.8800000000	0.5154721440
1.8850000000	0.4603053350
1.8900000000	0.4041914761
1.8950000000	0.3398090914
1.9000000000	0.2548365741
1.9050000000	0.1102079259
1.9100000000	-0.0998031233
1.9150000000	-0.3259830166
1.9200000000	-0.2248468254
1.9250000000	0.4359446333
1.9300000000	0.9667183819
1.9350000000	1.0097970125
1.9400000000	0.8323998443
1.9450000000	0.6531561069
1.9500000000	0.5242748705
1.9550000000	0.4378044133
1.9600000000	0.3794638028
1.9650000000	0.3408392695
1.9700000000	0.3115898431
1.9750000000	0.2901231435
1.9800000000	0.2739543508
1.9850000000	0.2613281452
1.9900000000	0.2509936927
1.9950000000	0.2419377646
2.0000000000	0.2339159797
2.0050000000	0.2298285978
2.0100000000	0.2335782558
2.0150000000	0.2425434072
2.0200000000	0.2496003078
2.0250000000	0.2544116882
2.0300000000	0.2595486604
2.0350000000	0.2661204131
2.0400000000	0.2749733791
2.0450000000	0.2866585465
2.0500000000	0.3018382833
2.0550000000	0.3211843399
2.0600000000	0.3447287153
2.0650000000	0.3702346570
2.0700000000	0.3921531668
2.0750000000	0.4060770693
2.0800000000	0.4150150751
2.0850000000	0.4256869877
2.0900000000	0.4422527762
2.0950000000	0.4659839288
2.1000000000	0.4975643626
2.1050000000	0.5362716987
2.1100000000	0.5848065394
2.1150000000	0.6450436723
2.1200000000	0.7197655507
2.1250000000	0.8129719844
2.1300000000	0.9303661010
2.1350000000	1.0801278986
2.1400000000	1.2740812539
2.1450000000	1.5295089367
2.1500000000	1.8715697210
2.1550000000	2.3358233711
2.1600000000	2.9677351473
2.1650000000	3.8057535631
2.1700000000	4.8353146791
2.1750000000	5.8628264619
2.1800000000	6.5124899064
2.1850000000	6.5856275699
2.1900000000	6.3619850002
2.1950000000	6.2135104364
2.2000000000	6.1707533446
2.2050000000	5.8739803450
2.2100000000	5.1723780631
2.2150000000	4.2811875701
2.2200000000	3.4657757028
2.2250000000	2.8126796215
2.2300000000	2.2986404743
2.2350000000	1.8903563966
2.2400000000	1.5664292921
2.2450000000	1.3135982526
2.2500000000	1.1164200206
2.2550000000	0.9608484125
2.2600000000	0.8351589788
2.2650000000	0.7295968206
2.2700000000	0.6359656851
2.2750000000	0.5485130225
2.2800000000	0.4676459438
2.2850000000	0.4035166742
2.2900000000	0.3711631289
2.2950000000	0.3757683135
2.3000000000	0.4024976261
2.3050000000	0.4286195361
2.3100000000	0.4398947969
2.3150000000	0.4370463067
2.3200000000	0.4263084267
2.3250000000	0.4140456092
2.3300000000	0.4036971913
2.3350000000	0.3964552239
2.3400000000	0.3920728366
2.3450000000	0.3892741561
2.3500000000	0.3863557643
2.3550000000	0.3822283601
2.3600000000	0.3771940551
2.3650000000	0.3725740836
2.3700000000	0.3696782709
2.3750000000	0.3691466937
2.3800000000	0.3708707546
2.3850000000	0.3741937181
2.3900000000	0.3783839696
2.3950000000	0.3828157933
2.4000000000	0.3878626599
2.4050000000	0.3949158969
2.4100000000	0.4046827884
2.4150000000	0.4180601776
2.4200000000	0.4356580509
2.4250000000	0.4580313465
2.4300000000	0.4858025265
2.4350000000	0.5197518220
2.4400000000	0.5608831090
2.4450000000	0.6104915270
2.4500000000	0.6702254021
2.4550000000	0.7421700893
2.4600000000	0.8289006642
2.4650000000	0.9335328986
2.4700000000	1.0596759321
2.4750000000	1.2110035860
2.4800000000	1.3914896722
2.4850000000	1.6029210973
2.4900000000	1.8435479246
2.4950000000	2.1046667767
2.5000000000	2.3669422626
2.5050000000	2.6093477135
2.5100000000	2.7659480757
2.5150000000	2.8002325869
2.5200000000	2.7074803537
2.5250000000	2.5167116643
2.5300000000	2.2720771049
2.5350000000	2.0123029438
2.5400000000	1.7619181265
2.5450000000	1.5330458530
2.5500000000	1.3302162115
2.5550000000	1.1540047610
2.5600000000	1.0018549259
2.5650000000	0.8734331921
2.5700000000	0.7661771685
2.5750000000	0.6785701306
2.5800000000	0.6094275300
2.5850000000	0.5572819005
2.5900000000	0.5194840923
2.5950000000	0.4921990077
2.6000000000	0.4714154084
2.6050000000	0.4565922434
2.6100000000	0.4432824536
2.6150000000	0.4313223578
2.6200000000	0.4210108267
2.6250000000	0.4126416986
2.6300000000	0.4063923980
2.6350000000	0.4023398512
2.6400000000	0.4005244146
2.6450000000	0.4009916792
2.6500000000	0.4038395397
2.6550000000	0.4090844677
2.6600000000	0.4168640683
2.6650000000	0.4272999000
2.6700000000	0.4405351932
2.6750000000	0.4567398871
2.6800000000	0.4761031206
2.6850000000	0.4988314658
2.6900000000	0.5251245439
2.6950000000	0.5551632892
2.7000000000	0.5890730414
2.7050000000	0.6309369842
2.7100000000	0.6778580789
2.7150000000	0.7295142024
2.7200000000	0.7852091319
2.7250000000	0.8437830647
2.7300000000	0.9035302654
2.7350000000	0.9621268548
2.7400000000	1.0165930944
2.7450000000	1.0637833963
2.7500000000	1.0991314914
2.7550000000	1.1195008970
2.7600000000	1.1225359551
2.7650000000	1.1076307196
2.7700000000	1.0761427575
2.7750000000	1.0311181003
2.7800000000	0.9765965538
2.7850000000	0.9168757773
2.7900000000	0.8557950766
2.7950000000	0.7964282716
2.8000000000	0.7409434999
2.8050000000	0.6845238753
2.8100000000	0.6358201990
2.8150000000	0.5947213733
2.8200000000	0.5605813844
2.8250000000	0.5325416384
2.8300000000	0.5097408385
2.8350000000	0.4914449308
2.8400000000	0.4768735681
2.8450000000	0.4660793138
2.8500000000	0.4584902886
2.8550000000	0.4538934112
2.8600000000	0.4521379375
2.8650000000	0.4531047753
2.8700000000	0.4566879095
2.8750000000	0.4627788521
2.8800000000	0.4712520960
2.8850000000	0.4819515872
2.8900000000	0.4946851897
2.8950000000	0.5092182388
2.9000000000	0.5252723930
2.9050000000	0.5463613809
2.9100000000	0.5680130391
2.9150000000	0.5893923881
2.9200000000	0.6094953505
2.9250000000	0.6271577234
2.9300000000	0.6412853160
2.9350000000	0.6504214190
2.9400000000	0.6538363614
2.9450000000	0.6511564993
2.9500000000	0.6426017763
2.9550000000	0.6289526508
2.9600000000	0.6113978345
2.9650000000	0.5913163540
2.9700000000	0.5700614336
2.9750000000	0.5488072128
2.9800000000	0.5284642982
2.9850000000	0.5096679344
2.9900000000	0.4928090414
2.9950000000	0.4780867466
3.0000000000	0.4655652532
