# energy (eV)    P(omega), $W$ = 300 nm, $h$ = 300 nm, $s$ = 20 nm, $d/W = 5$, $E_{\rm e}$ = 200 keV
0.2000000000	0.2506419156
0.2050000000	0.2542421182
0.2100000000	0.2576266956
0.2150000000	0.2608023789
0.2200000000	0.2637749693
0.2250000000	0.2665492614
0.2300000000	0.2691287710
0.2350000000	0.2715156928
0.2400000000	0.2737106408
0.2450000000	0.2757121141
0.2500000000	0.2775167938
0.2550000000	0.2791183199
0.2600000000	0.2805074024
0.2650000000	0.2816711012
0.2700000000	0.2825916748
0.2750000000	0.2832459108
0.2800000000	0.2836037209
0.2850000000	0.2836266323
0.2900000000	0.2832652229
0.2950000000	0.2824571746
0.3000000000	0.2811222444
0.3050000000	0.2791590524
0.3100000000	0.2764374435
0.3150000000	0.2913222014
0.3200000000	0.3090024653
0.3250000000	0.3313520171
0.3300000000	0.3612588806
0.3350000000	0.3984975933
0.3400000000	0.4472673906
0.3450000000	0.5064737833
0.3500000000	0.5839590454
0.3550000000	0.6865386406
0.3600000000	0.8205786241
0.3650000000	1.0075346525
0.3700000000	1.2542962865
0.3750000000	1.5978176753
0.3800000000	2.0950116236
0.3850000000	2.8702199760
0.3900000000	4.0958259873
0.3950000000	6.1792231893
0.4000000000	10.1536419433
0.4050000000	19.0702620981
0.4100000000	43.4182034710
0.4150000000	139.4584564818
0.4200000000	88.7681662654
0.4250000000	-167.5748873394
0.4300000000	46.6993564399
0.4350000000	29.1391641800
0.4400000000	17.8402525942
0.4450000000	11.7538325854
0.4500000000	8.2476901312
0.4550000000	6.0887037310
0.4600000000	4.6817504890
0.4650000000	3.7224895024
0.4700000000	3.0441850806
0.4750000000	2.5534588790
0.4800000000	2.1895475636
0.4850000000	1.9157109215
0.4900000000	1.7067332326
0.4950000000	1.5456796430
0.5000000000	1.4209781184
0.5050000000	1.3241279941
0.5100000000	1.2496669200
0.5150000000	1.1935755692
0.5200000000	1.1516274265
0.5250000000	1.1219404294
0.5300000000	1.1024774197
0.5350000000	1.0917528002
0.5400000000	1.0886732056
0.5450000000	1.0923257552
0.5500000000	1.1024389197
0.5550000000	1.1185035843
0.5600000000	1.1402719015
0.5650000000	1.1676393670
0.5700000000	1.2005176887
0.5750000000	1.2391421610
0.5800000000	1.2838953937
0.5850000000	1.3350287572
0.5900000000	1.3930204737
0.5950000000	1.4584633803
0.6000000000	1.5321117056
0.6050000000	1.6150464277
0.6100000000	1.7083089790
0.6150000000	1.8133126189
0.6200000000	1.9319437221
0.6250000000	2.0660084403
0.6300000000	2.2181762674
0.6350000000	2.3917745821
0.6400000000	2.5902670121
0.6450000000	2.8186505854
0.6500000000	3.0834974142
0.6550000000	3.3916506983
0.6600000000	3.7536239177
0.6650000000	4.1829176159
0.6700000000	4.6954038972
0.6750000000	5.3152765226
0.6800000000	6.0751099425
0.6850000000	7.0175456045
0.6900000000	8.2086817080
0.6950000000	9.7409316123
0.7000000000	11.7611805645
0.7050000000	14.4939721506
0.7100000000	18.3198874430
0.7150000000	23.9164905063
0.7200000000	32.5454767334
0.7250000000	46.8744072315
0.7300000000	73.1854049005
0.7350000000	129.5052364756
0.7400000000	284.0264503024
0.7450000000	942.9498567022
0.7500000000	2923.4551674449
0.7550000000	736.0186686055
0.7600000000	243.9406831832
0.7650000000	116.9739724329
0.7700000000	68.0819296008
0.7750000000	44.4709040531
0.7800000000	31.3215569686
0.7850000000	23.2817396034
0.7900000000	18.0021099102
0.7950000000	14.3595402898
0.8000000000	11.7401226061
0.8050000000	9.7885715834
0.8100000000	8.2998901117
0.8150000000	7.1193182203
0.8200000000	6.1872830937
0.8250000000	5.4366057263
0.8300000000	4.8214750126
0.8350000000	4.3156115761
0.8400000000	3.8914496277
0.8450000000	3.5354447555
0.8500000000	3.2344922311
0.8550000000	2.9747095540
0.8600000000	2.7529374181
0.8650000000	2.5635512909
0.8700000000	2.3961620610
0.8750000000	2.2538487889
0.8800000000	2.1332030846
0.8850000000	2.0250260268
0.8900000000	1.9384821216
0.8950000000	1.8597444171
0.9000000000	1.7975958987
0.9050000000	1.7552743667
0.9100000000	1.7165144179
0.9150000000	1.6935912641
0.9200000000	1.6922476007
0.9250000000	1.6915480495
0.9300000000	1.6679077429
0.9350000000	1.5938516627
0.9400000000	1.1757380929
0.9450000000	-0.7296072395
0.9500000000	-10.7950511903
0.9550000000	-61.8855549226
0.9600000000	14.6173674628
0.9650000000	25.6918711869
0.9700000000	11.4030608596
0.9750000000	5.9890461974
0.9800000000	3.7543131042
0.9850000000	2.7088300037
0.9900000000	2.1061363373
0.9950000000	1.7405541213
1.0000000000	1.5070852126
1.0050000000	1.3591360063
1.0100000000	1.2443089681
1.0150000000	1.1603712051
1.0200000000	1.1038602510
1.0250000000	1.0563028919
1.0300000000	1.0200936441
1.0350000000	0.9926027595
1.0400000000	0.9750429123
1.0450000000	0.9602779291
1.0500000000	0.9503404697
1.0550000000	0.9446615327
1.0600000000	0.9445539563
1.0650000000	0.9463647970
1.0700000000	0.9515689172
1.0750000000	0.9601835841
1.0800000000	0.9731754915
1.0850000000	0.9896921966
1.0900000000	1.0143126886
1.0950000000	1.0435919956
1.1000000000	1.0785583024
1.1050000000	1.1187613956
1.1100000000	1.1655147591
1.1150000000	1.2198544847
1.1200000000	1.2830521854
1.1250000000	1.3565574946
1.1300000000	1.4425635395
1.1350000000	1.5437180862
1.1400000000	1.6630864272
1.1450000000	1.8060387726
1.1500000000	1.9786015580
1.1550000000	2.1893993458
1.1600000000	2.4505977118
1.1650000000	2.7780292694
1.1700000000	3.2011135526
1.1750000000	3.7591148253
1.1800000000	4.5168504364
1.1850000000	5.5807997870
1.1900000000	7.1519423538
1.1950000000	9.6154816110
1.2000000000	13.7906364105
1.2050000000	21.6765059579
1.2100000000	39.0197638930
1.2150000000	85.9045110553
1.2200000000	210.6886212149
1.2250000000	189.4793778897
1.2300000000	75.8084750486
1.2350000000	35.7442776703
1.2400000000	20.5767410169
1.2450000000	13.6258438497
1.2500000000	9.9741512593
1.2550000000	7.8837951420
1.2600000000	6.6312670316
1.2650000000	5.8690746629
1.2700000000	5.4436882111
1.2750000000	5.2560596148
1.2800000000	5.2614202677
1.2850000000	5.4433829222
1.2900000000	5.8069262820
1.2950000000	6.3727725896
1.3000000000	7.2059306211
1.3050000000	8.3910332935
1.3100000000	10.0811319456
1.3150000000	12.5399133714
1.3200000000	16.2394653121
1.3250000000	22.0813284635
1.3300000000	32.0332037814
1.3350000000	50.6638222462
1.3400000000	90.4799709571
1.3450000000	189.3461921506
1.3500000000	402.2402276289
1.3550000000	375.3918114168
1.3600000000	173.1774188206
1.3650000000	85.1009915138
1.3700000000	48.8043089900
1.3750000000	31.3825805197
1.3800000000	21.8829523114
1.3850000000	16.1614294083
1.3900000000	12.4757882236
1.3950000000	9.9628281260
1.4000000000	8.1783506573
1.4050000000	6.8716731958
1.4100000000	5.8924786940
1.4150000000	5.1536582031
1.4200000000	4.5981560077
1.4250000000	4.2262894064
1.4300000000	4.0906382237
1.4350000000	4.1676342884
1.4400000000	3.2114379207
1.4450000000	0.2812384853
1.4500000000	-4.4742793607
1.4550000000	-1.2528774125
1.4600000000	5.4238725568
1.4650000000	2.9351715667
1.4700000000	-2.7778421776
1.4750000000	-12.1486052738
1.4800000000	-5.4072578149
1.4850000000	8.8849843499
1.4900000000	7.2022153023
1.4950000000	4.6616609597
1.5000000000	3.2752647072
1.5050000000	2.5287489282
1.5100000000	2.1032574632
1.5150000000	1.8448580701
1.5200000000	1.6779361553
1.5250000000	1.5742191261
1.5300000000	1.4949902655
1.5350000000	1.4403744280
1.5400000000	1.4043931801
1.5450000000	1.3838385880
1.5500000000	1.3766381802
1.5550000000	1.3828431971
1.5600000000	1.4061389438
1.5650000000	1.4446284700
1.5700000000	1.5069605828
1.5750000000	1.6036821881
1.5800000000	1.7545974691
1.5850000000	1.9982571229
1.5900000000	2.4158825993
1.5950000000	3.1872138131
1.6000000000	4.6919229638
1.6050000000	7.1799632009
1.6100000000	8.3324004311
1.6150000000	6.1725004912
1.6200000000	4.1461807709
1.6250000000	3.0765663887
1.6300000000	2.5395320927
1.6350000000	2.2630749970
1.6400000000	2.1229819588
1.6450000000	2.0615211076
1.6500000000	2.0497814595
1.6550000000	2.0742226512
1.6600000000	2.1267619501
1.6650000000	2.2037097760
1.6700000000	2.3036648326
1.6750000000	2.4266367393
1.6800000000	2.5737252800
1.6850000000	2.7466356047
1.6900000000	2.9468731588
1.6950000000	3.1715869935
1.7000000000	3.4169949626
1.7050000000	3.6684462420
1.7100000000	3.9553540522
1.7150000000	4.6688062792
1.7200000000	5.9207015132
1.7250000000	7.0674139706
1.7300000000	8.2978428653
1.7350000000	9.6499192457
1.7400000000	10.9768813155
1.7450000000	12.6813658275
1.7500000000	15.2588434255
1.7550000000	19.0950502999
1.7600000000	24.8346737114
1.7650000000	33.6823297093
1.7700000000	47.9343583594
1.7750000000	71.9453592554
1.7800000000	112.8597360542
1.7850000000	173.1991298211
1.7900000000	215.2408889748
1.7950000000	183.2825002201
1.8000000000	121.9801274655
1.8050000000	77.0335788154
1.8100000000	50.7903159910
1.8150000000	35.4080741898
1.8200000000	25.9416185517
1.8250000000	19.8044800312
1.8300000000	15.6375745758
1.8350000000	12.6964022569
1.8400000000	10.5536248572
1.8450000000	8.9500117521
1.8500000000	7.7221901049
1.8550000000	6.7679339814
1.8600000000	6.0159323592
1.8650000000	5.4177218872
1.8700000000	4.9388360618
1.8750000000	4.5539725565
1.8800000000	4.2430643234
1.8850000000	3.9883824654
1.8900000000	3.7695017862
1.8950000000	3.5559439787
1.9000000000	3.2950760642
1.9050000000	2.8011160908
1.9100000000	2.1213738292
1.9150000000	1.7621740487
1.9200000000	4.3050843720
1.9250000000	11.3306142224
1.9300000000	16.9023060281
1.9350000000	16.6419213331
1.9400000000	13.0890640390
1.9450000000	9.6445139499
1.9500000000	7.2260648066
1.9550000000	5.6414355911
1.9600000000	4.5942711147
1.9650000000	3.8933842460
1.9700000000	3.3874087944
1.9750000000	3.0165103074
1.9800000000	2.7333434942
1.9850000000	2.5035583040
1.9900000000	2.3008695641
1.9950000000	2.1023370556
2.0000000000	1.9046166960
2.0050000000	1.7782944664
2.0100000000	1.8506622996
2.0150000000	2.0500248431
2.0200000000	2.1729416167
2.0250000000	2.2055769493
2.0300000000	2.2129023224
2.0350000000	2.2262429696
2.0400000000	2.2572348366
2.0450000000	2.3088404268
2.0500000000	2.3829788521
2.0550000000	2.4813919286
2.0600000000	2.6040812224
2.0650000000	2.7436289215
2.0700000000	2.8816383244
2.0750000000	3.0043263582
2.0800000000	3.1238683467
2.0850000000	3.2654367565
2.0900000000	3.4459102555
2.0950000000	3.6724038045
2.1000000000	3.9525814678
2.1050000000	4.2839131920
2.1100000000	4.6896848065
2.1150000000	5.1869204710
2.1200000000	5.7994923481
2.1250000000	6.5608841472
2.1300000000	7.5182924691
2.1350000000	8.7391000588
2.1400000000	10.3206040056
2.1450000000	12.4050541684
2.1500000000	15.1997131243
2.1550000000	18.9979150707
2.1600000000	24.1750831823
2.1650000000	31.0491570648
2.1700000000	39.4929668733
2.1750000000	47.8879127809
2.1800000000	53.0749919239
2.1850000000	53.3446141199
2.1900000000	50.9863123609
2.1950000000	49.1511695026
2.2000000000	48.3374703151
2.2050000000	46.0770551009
2.2100000000	41.2778670121
2.2150000000	35.3772367857
2.2200000000	30.0801932928
2.2250000000	25.7022935898
2.2300000000	21.8471348106
2.2350000000	18.3613324751
2.2400000000	15.3670871563
2.2450000000	12.9712713714
2.2500000000	11.1346665605
2.2550000000	9.7549953621
2.2600000000	8.7219859255
2.2650000000	7.9251328853
2.2700000000	7.2449767847
2.2750000000	6.5638221287
2.2800000000	5.8304737033
2.2850000000	5.1326296472
2.2900000000	4.6503650832
2.2950000000	4.4856184197
2.3000000000	4.5444670441
2.3050000000	4.6343441432
2.3100000000	4.6418667443
2.3150000000	4.5679505782
2.3200000000	4.4616718996
2.3250000000	4.3737222750
2.3300000000	4.3300390093
2.3350000000	4.3350789473
2.3400000000	4.3743185514
2.3450000000	4.4148865826
2.3500000000	4.4153921535
2.3550000000	4.3494278371
2.3600000000	4.2244666706
2.3650000000	4.0731634059
2.3700000000	3.9291785131
2.3750000000	3.8126159097
2.3800000000	3.7300059102
2.3850000000	3.6795020987
2.3900000000	3.6568933399
2.3950000000	3.6572999866
2.4000000000	3.6820520041
2.4050000000	3.7392871334
2.4100000000	3.8317294903
2.4150000000	3.9631546035
2.4200000000	4.1358332961
2.4250000000	4.3537385491
2.4300000000	4.6226639010
2.4350000000	4.9503807768
2.4400000000	5.3469182499
2.4450000000	5.8250801471
2.4500000000	6.4010220267
2.4550000000	7.0950482367
2.4600000000	7.9321060985
2.4650000000	8.9421265213
2.4700000000	10.1594364838
2.4750000000	11.6184200069
2.4800000000	13.3545848450
2.4850000000	15.3819818178
2.4900000000	17.6807844934
2.4950000000	20.1687175153
2.5000000000	22.6717984526
2.5050000000	25.0132807427
2.5100000000	26.5950757670
2.5150000000	27.0722349082
2.5200000000	26.3625664337
2.5250000000	24.6851237154
2.5300000000	22.4215180955
2.5350000000	19.9397879619
2.5400000000	17.4999453826
2.5450000000	15.2488938646
2.5500000000	13.2519554436
2.5550000000	11.5239987913
2.5600000000	10.0412642811
2.5650000000	8.7946561067
2.5700000000	7.7548266573
2.5750000000	6.9034036801
2.5800000000	6.2266645951
2.5850000000	5.7096913305
2.5900000000	5.3279474724
2.5950000000	5.0469358626
2.6000000000	4.8307374360
2.6050000000	4.6770853088
2.6100000000	4.5440395251
2.6150000000	4.4294919067
2.6200000000	4.3357051679
2.6250000000	4.2651875527
2.6300000000	4.2196134493
2.6350000000	4.1998377707
2.6400000000	4.2063565959
2.6450000000	4.2396319633
2.6500000000	4.3005681293
2.6550000000	4.3894188494
2.6600000000	4.5075491941
2.6650000000	4.6563386457
2.6700000000	4.8374811630
2.6750000000	5.0530286513
2.6800000000	5.3052537833
2.6850000000	5.5964809764
2.6900000000	5.9286128224
2.6950000000	6.3027527374
2.7000000000	6.7185201329
2.7050000000	7.2232006943
2.7100000000	7.7739873093
2.7150000000	8.3601553587
2.7200000000	8.9661071711
2.7250000000	9.5722476149
2.7300000000	10.1564664825
2.7350000000	10.6954114620
2.7400000000	11.1647965908
2.7450000000	11.5430628137
2.7500000000	11.7967690321
2.7550000000	11.9056693194
2.7600000000	11.8544017235
2.7650000000	11.6411782429
2.7700000000	11.2802891055
2.7750000000	10.8003661972
2.7800000000	10.2387294108
2.7850000000	9.6349711249
2.7900000000	9.0246152803
2.7950000000	8.4361492155
2.8000000000	7.8897162838
2.8050000000	7.3368499158
2.8100000000	6.8636658781
2.8150000000	6.4688963904
2.8200000000	6.1461878719
2.8250000000	5.8871658732
2.8300000000	5.6833940431
2.8350000000	5.5276527297
2.8400000000	5.4123416268
2.8450000000	5.3377251567
2.8500000000	5.2982795274
2.8550000000	5.2918998586
2.8600000000	5.3170139175
2.8650000000	5.3722049319
2.8700000000	5.4558889413
2.8750000000	5.5660558906
2.8800000000	5.7000716845
2.8850000000	5.8545105086
2.8900000000	6.0252543533
2.8950000000	6.2076463059
2.9000000000	6.3967887617
2.9050000000	6.6240800697
2.9100000000	6.8421262134
2.9150000000	7.0440683540
2.9200000000	7.2227079485
2.9250000000	7.3698770548
2.9300000000	7.4780555359
2.9350000000	7.5355477287
2.9400000000	7.5373057765
2.9450000000	7.4811795149
2.9500000000	7.3704074423
2.9550000000	7.2134090224
2.9600000000	7.0223367697
2.9650000000	6.8109606786
2.9700000000	6.5925965066
2.9750000000	6.3786240374
2.9800000000	6.1777624836
2.9850000000	5.9959614143
2.9900000000	5.8367988903
2.9950000000	5.7019543202
3.0000000000	5.5917812708
