# energy (eV)    P(omega), $W$ = 300 nm, $h$ = 300 nm, $s$ = 20 nm, $d/W = 5$, $E_{\rm e}$ = 200 keV
0.2000000000	0.1034422314
0.2050000000	0.1049280376
0.2100000000	0.1063247447
0.2150000000	0.1076351373
0.2200000000	0.1088616154
0.2250000000	0.1100061631
0.2300000000	0.1110702369
0.2350000000	0.1120547460
0.2400000000	0.1129599484
0.2450000000	0.1137852276
0.2500000000	0.1145292173
0.2550000000	0.1151892953
0.2600000000	0.1157616298
0.2650000000	0.1162408813
0.2700000000	0.1166197308
0.2750000000	0.1168885975
0.2800000000	0.1170350634
0.2850000000	0.1170432512
0.2900000000	0.1168927631
0.2950000000	0.1165578777
0.3000000000	0.1160054744
0.3050000000	0.1151937098
0.3100000000	0.1140688647
0.3150000000	0.1202125551
0.3200000000	0.1275100956
0.3250000000	0.1367349728
0.3300000000	0.1490793143
0.3350000000	0.1644499094
0.3400000000	0.1845800500
0.3450000000	0.2090177361
0.3500000000	0.2409999631
0.3550000000	0.2833396945
0.3600000000	0.3386642327
0.3650000000	0.4158292414
0.3700000000	0.5176775322
0.3750000000	0.6594611491
0.3800000000	0.8646692432
0.3850000000	1.1846206044
0.3900000000	1.6904599539
0.3950000000	2.5503244634
0.4000000000	4.1906429229
0.4050000000	7.8706734707
0.4100000000	17.9193697150
0.4150000000	57.5560345734
0.4200000000	36.6357301702
0.4250000000	-69.1583368799
0.4300000000	19.2724975706
0.4350000000	12.0253620278
0.4400000000	7.3623321973
0.4450000000	4.8505040781
0.4500000000	3.4035515342
0.4550000000	2.5125640243
0.4600000000	1.9319352501
0.4650000000	1.5360647546
0.4700000000	1.2561415867
0.4750000000	1.0536291838
0.4800000000	0.9034509383
0.4850000000	0.7904445583
0.4900000000	0.7042038411
0.4950000000	0.6377400097
0.5000000000	0.5862774365
0.5050000000	0.5463080730
0.5100000000	0.5155776455
0.5150000000	0.4924274229
0.5200000000	0.4751132547
0.5250000000	0.4628583851
0.5300000000	0.4548221273
0.5350000000	0.4503913840
0.5400000000	0.4491149140
0.5450000000	0.4506159936
0.5500000000	0.4547824649
0.5550000000	0.4614042013
0.5600000000	0.4703788674
0.5650000000	0.4816632681
0.5700000000	0.4952208697
0.5750000000	0.5111487039
0.5800000000	0.5296044878
0.5850000000	0.5506918667
0.5900000000	0.5746079989
0.5950000000	0.6015973654
0.6000000000	0.6319709958
0.6050000000	0.6661746996
0.6100000000	0.7046379451
0.6150000000	0.7479435746
0.6200000000	0.7968695504
0.6250000000	0.8521607340
0.6300000000	0.9149180664
0.6350000000	0.9865137973
0.6400000000	1.0683763556
0.6450000000	1.1625665495
0.6500000000	1.2717948731
0.6550000000	1.3988834961
0.6600000000	1.5481682529
0.6650000000	1.7252169918
0.6700000000	1.9365754316
0.6750000000	2.1922213191
0.6800000000	2.5055887063
0.6850000000	2.8942632378
0.6900000000	3.3855042362
0.6950000000	4.0174236270
0.7000000000	4.8505978774
0.7050000000	5.9776298969
0.7100000000	7.5554732039
0.7150000000	9.8635583408
0.7200000000	13.4222127670
0.7250000000	19.3315472243
0.7300000000	30.1823235379
0.7350000000	53.4088114362
0.7400000000	117.1336770092
0.7450000000	388.8741078871
0.7500000000	1205.6307927368
0.7550000000	303.5317930602
0.7600000000	100.5997933002
0.7650000000	48.2391459751
0.7700000000	28.0762929822
0.7750000000	18.3392434745
0.7800000000	12.9165459896
0.7850000000	9.6009911566
0.7900000000	7.4237215317
0.7950000000	5.9215640764
0.8000000000	4.8413467686
0.8050000000	4.0365520376
0.8100000000	3.4226404092
0.8150000000	2.9357904026
0.8200000000	2.5514341527
0.8250000000	2.2418676236
0.8300000000	1.9881988821
0.8350000000	1.7795903934
0.8400000000	1.6046744193
0.8450000000	1.4578652103
0.8500000000	1.3337587687
0.8550000000	1.2266299996
0.8600000000	1.1351760563
0.8650000000	1.0570773536
0.8700000000	0.9880498076
0.8750000000	0.9293628561
0.8800000000	0.8796109170
0.8850000000	0.8350008416
0.8900000000	0.7993112970
0.8950000000	0.7668409315
0.9000000000	0.7412111043
0.9050000000	0.7237566927
0.9100000000	0.7077710700
0.9150000000	0.6983154639
0.9200000000	0.6977575475
0.9250000000	0.6974654141
0.9300000000	0.6877150435
0.9350000000	0.6571789872
0.9400000000	0.4847902002
0.9450000000	-0.3007726139
0.9500000000	-4.4506684083
0.9550000000	-25.5147437647
0.9600000000	6.0265768099
0.9650000000	10.5924105415
0.9700000000	4.7013178768
0.9750000000	2.4691980820
0.9800000000	1.5478526725
0.9850000000	1.1168169339
0.9900000000	0.8683367153
0.9950000000	0.7176136428
1.0000000000	0.6213585767
1.0050000000	0.5603615574
1.0100000000	0.5130204669
1.0150000000	0.4784144932
1.0200000000	0.4551159509
1.0250000000	0.4355090150
1.0300000000	0.4205807488
1.0350000000	0.4092469796
1.0400000000	0.4020075418
1.0450000000	0.3959205741
1.0500000000	0.3918240009
1.0550000000	0.3894832508
1.0600000000	0.3894395032
1.0650000000	0.3901869049
1.0700000000	0.3923334543
1.0750000000	0.3958862747
1.0800000000	0.4012438814
1.0850000000	0.4080550726
1.0900000000	0.4182078649
1.0950000000	0.4302817579
1.1000000000	0.4447006730
1.1050000000	0.4612791969
1.1100000000	0.4805589125
1.1150000000	0.5029670692
1.1200000000	0.5290279915
1.1250000000	0.5593397548
1.1300000000	0.5948066783
1.1350000000	0.6365207232
1.1400000000	0.6857459136
1.1450000000	0.7446971635
1.1500000000	0.8158597289
1.1550000000	0.9027903928
1.1600000000	1.0105063226
1.1650000000	1.1455368790
1.1700000000	1.3200150152
1.1750000000	1.5501336070
1.1800000000	1.8626235719
1.1850000000	2.3013977580
1.1900000000	2.9493406957
1.1950000000	3.9653128053
1.2000000000	5.6871631381
1.2050000000	8.9393272262
1.2100000000	16.0917486522
1.2150000000	35.4271378109
1.2200000000	86.8881783078
1.2250000000	78.1409304953
1.2300000000	31.2628398469
1.2350000000	14.7403515598
1.2400000000	8.4852558391
1.2450000000	5.6186900023
1.2500000000	4.1127041507
1.2550000000	3.2506018714
1.2600000000	2.7340078169
1.2650000000	2.4196156360
1.2700000000	2.2441061519
1.2750000000	2.1666292924
1.2800000000	2.1687175330
1.2850000000	2.2436063516
1.2900000000	2.3933388367
1.2950000000	2.6264486270
1.3000000000	2.9697214637
1.3050000000	3.4580284119
1.3100000000	4.1544354786
1.3150000000	5.1675982222
1.3200000000	6.6920484011
1.3250000000	9.0992803310
1.3300000000	13.2001228699
1.3350000000	20.8772005944
1.3400000000	37.2841571703
1.3450000000	78.0237298737
1.3500000000	165.7503529629
1.3550000000	154.6867244119
1.3600000000	71.3607107862
1.3650000000	35.0673128273
1.3700000000	20.1106557252
1.3750000000	12.9317440484
1.3800000000	9.0172661869
1.3850000000	6.6596183344
1.3900000000	5.1408881182
1.3950000000	4.1053801211
1.4000000000	3.3700540806
1.4050000000	2.8316120196
1.4100000000	2.4281123503
1.4150000000	2.1236580009
1.4200000000	1.8947347464
1.4250000000	1.7414638555
1.4300000000	1.6854875566
1.4350000000	1.7170684176
1.4400000000	1.3229126981
1.4450000000	0.1152293302
1.4500000000	-1.8449941282
1.4550000000	-0.5168718954
1.4600000000	2.2356948064
1.4650000000	1.2100708752
1.4700000000	-1.1442266080
1.4750000000	-5.0055735926
1.4800000000	-2.2278771694
1.4850000000	3.6611833013
1.4900000000	2.9677778327
1.4950000000	1.9209352954
1.5000000000	1.3496668697
1.5050000000	1.0420629510
1.5100000000	0.8667392184
1.5150000000	0.7602670811
1.5200000000	0.6914895144
1.5250000000	0.6487571557
1.5300000000	0.6161163130
1.5350000000	0.5936190280
1.5400000000	0.5788022717
1.5450000000	0.5703447680
1.5500000000	0.5673934528
1.5550000000	0.5699706541
1.5600000000	0.5795968631
1.5650000000	0.5954933108
1.5700000000	0.6212286873
1.5750000000	0.6611571857
1.5800000000	0.7234542240
1.5850000000	0.8240336766
1.5900000000	0.9964236888
1.5950000000	1.3148198364
1.6000000000	1.9359465175
1.6050000000	2.9629684668
1.6100000000	3.4386262955
1.6150000000	2.5469766405
1.6200000000	1.7104923989
1.6250000000	1.2689345712
1.6300000000	1.0472189378
1.6350000000	0.9330625526
1.6400000000	0.8751904060
1.6450000000	0.8497706868
1.6500000000	0.8448688739
1.6550000000	0.8548941441
1.6600000000	0.8765093690
1.6650000000	0.9081903019
1.6700000000	0.9493568880
1.6750000000	1.0000115547
1.6800000000	1.0606062414
1.6850000000	1.1318423774
1.6900000000	1.2143391944
1.6950000000	1.3069201014
1.7000000000	1.4080229270
1.7050000000	1.5116026733
1.7100000000	1.6297760669
1.7150000000	1.9237443859
1.7200000000	2.4396461667
1.7250000000	2.9121762268
1.7300000000	3.4191765768
1.7350000000	3.9762907586
1.7400000000	4.5230383017
1.7450000000	5.2253347565
1.7500000000	6.2873445638
1.7550000000	7.8680051366
1.7600000000	10.2329497580
1.7650000000	13.8785247814
1.7700000000	19.7509071728
1.7750000000	29.6443534251
1.7800000000	46.5026155859
1.7850000000	71.3646739782
1.7900000000	88.6873464873
1.7950000000	75.5191814720
1.8000000000	50.2602688343
1.8050000000	31.7406149141
1.8100000000	20.9274247811
1.8150000000	14.5893819628
1.8200000000	10.6888623456
1.8250000000	8.1601430493
1.8300000000	6.4432321006
1.8350000000	5.2313678408
1.8400000000	4.3484715007
1.8450000000	3.6877305395
1.8500000000	3.1818296129
1.8550000000	2.7886480679
1.8600000000	2.4788034502
1.8650000000	2.2323274598
1.8700000000	2.0350189650
1.8750000000	1.8764532230
1.8800000000	1.7483625902
1.8850000000	1.6434435118
1.8900000000	1.5532819640
1.8950000000	1.4653228391
1.9000000000	1.3578847352
1.9050000000	1.1544325289
1.9100000000	0.8744730391
1.9150000000	0.7266530568
1.9200000000	1.7746840019
1.9250000000	4.6697698577
1.9300000000	6.9657435387
1.9350000000	6.8583689663
1.9400000000	5.3941416487
1.9450000000	3.9745602050
1.9500000000	2.9778633362
1.9550000000	2.3248045280
1.9600000000	1.8932475861
1.9650000000	1.6043977649
1.9700000000	1.3958764742
1.9750000000	1.2430225705
1.9800000000	1.1263239987
1.9850000000	1.0316241335
1.9900000000	0.9480900463
1.9950000000	0.8662669964
2.0000000000	0.7847769525
2.0050000000	0.7327119983
2.0100000000	0.7625378164
2.0150000000	0.8447052400
2.0200000000	0.8953645660
2.0250000000	0.9088131199
2.0300000000	0.9118290300
2.0350000000	0.9173235911
2.0400000000	0.9300926305
2.0450000000	0.9513574657
2.0500000000	0.9819093074
2.0550000000	1.0224663294
2.0600000000	1.0730289948
2.0650000000	1.1305381319
2.0700000000	1.1874071070
2.0750000000	1.2379515207
2.0800000000	1.2871908718
2.0850000000	1.3455037354
2.0900000000	1.4198486083
2.0950000000	1.5131577508
2.1000000000	1.6285883308
2.1050000000	1.7650969051
2.1100000000	1.9322775129
2.1150000000	2.1371439493
2.1200000000	2.3895317416
2.1250000000	2.7032364181
2.1300000000	3.0977039238
2.1350000000	3.6006968815
2.1400000000	4.2523036644
2.1450000000	5.1111336714
2.1500000000	6.2625830225
2.1550000000	7.8275107528
2.1600000000	9.9605975434
2.1650000000	12.7928393745
2.1700000000	16.2718314926
2.1750000000	19.7306671879
2.1800000000	21.8677544298
2.1850000000	21.9786959997
2.1900000000	21.0068288429
2.1950000000	20.2504826260
2.2000000000	19.9150181758
2.2050000000	18.9836355100
2.2100000000	17.0064328291
2.2150000000	14.5755353957
2.2200000000	12.3933322564
2.2250000000	10.5897712089
2.2300000000	9.0014997325
2.2350000000	7.5653386318
2.2400000000	6.3316752908
2.2450000000	5.3445705495
2.2500000000	4.5878795994
2.2550000000	4.0194667033
2.2600000000	3.5938981640
2.2650000000	3.2656395947
2.2700000000	2.9854606910
2.2750000000	2.7048518469
2.2800000000	2.4027062626
2.2850000000	2.1151580710
2.2900000000	1.9164155561
2.2950000000	1.8484941951
2.3000000000	1.8727049698
2.3050000000	1.9097094649
2.3100000000	1.9127961740
2.3150000000	1.8823424719
2.3200000000	1.8385684552
2.3250000000	1.8023594180
2.3300000000	1.7844012486
2.3350000000	1.7865277994
2.3400000000	1.8027487954
2.3450000000	1.8195089865
2.3500000000	1.8197400043
2.3550000000	1.7925523234
2.3600000000	1.7410277181
2.3650000000	1.6786329108
2.3700000000	1.6192491333
2.3750000000	1.5711673386
2.3800000000	1.5370815908
2.3850000000	1.5162316462
2.3900000000	1.5068819616
2.3950000000	1.5070215583
2.4000000000	1.5171976478
2.4050000000	1.5407617349
2.4100000000	1.5788362848
2.4150000000	1.6329756092
2.4200000000	1.7041136893
2.4250000000	1.7938866656
2.4300000000	1.9046813262
2.4350000000	2.0396995086
2.4400000000	2.2030729386
2.4450000000	2.4000771470
2.4500000000	2.6373679253
2.4550000000	2.9233109615
2.4600000000	3.2681845295
2.4650000000	3.6843204132
2.4700000000	4.1858617997
2.4750000000	4.7869754410
2.4800000000	5.5022917510
2.4850000000	6.3376015032
2.4900000000	7.2847389784
2.4950000000	8.3098100338
2.5000000000	9.3411375154
2.5050000000	10.3059085470
2.5100000000	10.9577024480
2.5150000000	11.1543864149
2.5200000000	10.8620766005
2.5250000000	10.1710036858
2.5300000000	9.2383843266
2.5350000000	8.2158601960
2.5400000000	7.2105730930
2.5450000000	6.2830640124
2.5500000000	5.4602572178
2.5550000000	4.7482832047
2.5600000000	4.1373532257
2.5650000000	3.6237173794
2.5700000000	3.1952813746
2.5750000000	2.8444738462
2.5800000000	2.5656393810
2.5850000000	2.3526309113
2.5900000000	2.1953389762
2.5950000000	2.0795509946
2.6000000000	1.9904686868
2.6050000000	1.9271593301
2.6100000000	1.8723431041
2.6150000000	1.8251510178
2.6200000000	1.7865151410
2.6250000000	1.7574683357
2.6300000000	1.7387003576
2.6350000000	1.7305631592
2.6400000000	1.7332612438
2.6450000000	1.7469847747
2.6500000000	1.7721061126
2.6550000000	1.8087296124
2.6600000000	1.8574172135
2.6650000000	1.9187366669
2.6700000000	1.9933854186
2.6750000000	2.0822085405
2.6800000000	2.1861426874
2.6850000000	2.3061459032
2.6900000000	2.4430027765
2.6950000000	2.5971680956
2.7000000000	2.7684852035
2.7050000000	2.9764378996
2.7100000000	3.2033854870
2.7150000000	3.4449068567
2.7200000000	3.6945724647
2.7250000000	3.9443060919
2.7300000000	4.1849961914
2.7350000000	4.4070215091
2.7400000000	4.6003777646
2.7450000000	4.7561862492
2.7500000000	4.8606733704
2.7550000000	4.9055020737
2.7600000000	4.8843462261
2.7650000000	4.7964711754
2.7700000000	4.6477649549
2.7750000000	4.4500235593
2.7800000000	4.2186220492
2.7850000000	3.9698712128
2.7900000000	3.7184059227
2.7950000000	3.4759619977
2.8000000000	3.2508378293
2.8050000000	3.0230657918
2.8100000000	2.8281240537
2.8150000000	2.6654897932
2.8200000000	2.5325449959
2.8250000000	2.4258391994
2.8300000000	2.3418966181
2.8350000000	2.2777425429
2.8400000000	2.2302455982
2.8450000000	2.1995146933
2.8500000000	2.1832741089
2.8550000000	2.1806566884
2.8600000000	2.1910148760
2.8650000000	2.2137652500
2.8700000000	2.2482551184
2.8750000000	2.2936562970
2.8800000000	2.3488830575
2.8850000000	2.4125233728
2.8900000000	2.4828798544
2.8950000000	2.5580329126
2.9000000000	2.6359639544
2.9050000000	2.7296072173
2.9100000000	2.8194362062
2.9150000000	2.9026258367
2.9200000000	2.9762114962
2.9250000000	3.0368296138
2.9300000000	3.0813830543
2.9350000000	3.1050545853
2.9400000000	3.1057653647
2.9450000000	3.0826300231
2.9500000000	3.0369832499
2.9550000000	2.9722939203
2.9600000000	2.8935687717
2.9650000000	2.8064808054
2.9700000000	2.7165156702
2.9750000000	2.6283613855
2.9800000000	2.5456100460
2.9850000000	2.4707124051
2.9900000000	2.4051424706
2.9950000000	2.3495920965
3.0000000000	2.3042067961
