# energy (eV)    P(omega), $W$ = 400 nm, $h$ = 300 nm, $s$ = 20 nm, $d/W = 5$, $E_{\rm e}$ = 200 keV
0.2000000000	0.0452562167
0.2050000000	0.0456679146
0.2100000000	0.0459578270
0.2150000000	0.0461210713
0.2200000000	0.0461508207
0.2250000000	0.0460378013
0.2300000000	0.0457698113
0.2350000000	0.0453309640
0.2400000000	0.0447008298
0.2450000000	0.0438530783
0.2500000000	0.0427540473
0.2550000000	0.0413604232
0.2600000000	0.0396163910
0.2650000000	0.0414440239
0.2700000000	0.0460863830
0.2750000000	0.0527294934
0.2800000000	0.0619852959
0.2850000000	0.0756308528
0.2900000000	0.0925388534
0.2950000000	0.1167780527
0.3000000000	0.1493627345
0.3050000000	0.1993075354
0.3100000000	0.2688796523
0.3150000000	0.4034988686
0.3200000000	0.6137494666
0.3250000000	0.7576996950
0.3300000000	0.9568302913
0.3350000000	1.2391278851
0.3400000000	1.6822795910
0.3450000000	2.4425882231
0.3500000000	3.9587143397
0.3550000000	7.4683713462
0.3600000000	18.3545655768
0.3650000000	0.0828094326
0.3700000000	8.5068476885
0.3750000000	11.1862395166
0.3800000000	5.2124452123
0.3850000000	2.9362432375
0.3900000000	1.8833572418
0.3950000000	1.3271748911
0.4000000000	1.0051450496
0.4050000000	0.7952036204
0.4100000000	0.6585271235
0.4150000000	0.5683817283
0.4200000000	0.5114087162
0.4250000000	0.4666637874
0.4300000000	0.4137898962
0.4350000000	0.3719433247
0.4400000000	0.3388474119
0.4450000000	0.3125323476
0.4500000000	0.2917568831
0.4550000000	0.2752826837
0.4600000000	0.2624316614
0.4650000000	0.2524866012
0.4700000000	0.2449727004
0.4750000000	0.2395577623
0.4800000000	0.2359518950
0.4850000000	0.2339009070
0.4900000000	0.2332544851
0.4950000000	0.2338969825
0.5000000000	0.2357295984
0.5050000000	0.2387082979
0.5100000000	0.2427970109
0.5150000000	0.2479743124
0.5200000000	0.2542509442
0.5250000000	0.2616357254
0.5300000000	0.2702370654
0.5350000000	0.2801031752
0.5400000000	0.2913208474
0.5450000000	0.3040038928
0.5500000000	0.3183133423
0.5550000000	0.3344253266
0.5600000000	0.3525542360
0.5650000000	0.3729757378
0.5700000000	0.3960703891
0.5750000000	0.4221202475
0.5800000000	0.4516530603
0.5850000000	0.4853898952
0.5900000000	0.5238171506
0.5950000000	0.5679582757
0.6000000000	0.6191653851
0.6050000000	0.6784519025
0.6100000000	0.7481408473
0.6150000000	0.8301586678
0.6200000000	0.9278122983
0.6250000000	1.0458460501
0.6300000000	1.1890984263
0.6350000000	1.3666611746
0.6400000000	1.5885650884
0.6450000000	1.8730122577
0.6500000000	2.2432541390
0.6550000000	2.7386763173
0.6600000000	3.4257805248
0.6650000000	4.4096341192
0.6700000000	5.8994246537
0.6750000000	8.2947855249
0.6800000000	12.5290414966
0.6850000000	21.0253591661
0.6900000000	42.1382773056
0.6950000000	118.2887052509
0.7000000000	573.7115045912
0.7050000000	278.9246361100
0.7100000000	71.6500914039
0.7150000000	30.4697426663
0.7200000000	16.6399664683
0.7250000000	10.4529057524
0.7300000000	7.1692713646
0.7350000000	5.2281492861
0.7400000000	3.9851236667
0.7450000000	3.1414059268
0.7500000000	2.5437313902
0.7550000000	2.1046367895
0.7600000000	1.7736809508
0.7650000000	1.5170291390
0.7700000000	1.3144285926
0.7750000000	1.1517780976
0.7800000000	1.0196026866
0.7850000000	0.9107696398
0.7900000000	0.8195927278
0.7950000000	0.7434431977
0.8000000000	0.6786955118
0.8050000000	0.6232232860
0.8100000000	0.5759997623
0.8150000000	0.5346102855
0.8200000000	0.4985762972
0.8250000000	0.4683375045
0.8300000000	0.4418685436
0.8350000000	0.4188576293
0.8400000000	0.4005329312
0.8450000000	0.3845436708
0.8500000000	0.3709865127
0.8550000000	0.3624173405
0.8600000000	0.3555533672
0.8650000000	0.3506388370
0.8700000000	0.3523503666
0.8750000000	0.3529500763
0.8800000000	0.3510506530
0.8850000000	0.3357868604
0.8900000000	0.2605809859
0.8950000000	-0.1163158429
0.9000000000	-2.1373436503
0.9050000000	-14.0439144365
0.9100000000	2.6742393452
0.9150000000	6.3347873327
0.9200000000	2.6296926514
0.9250000000	1.3680396993
0.9300000000	0.8350805730
0.9350000000	0.5804492186
0.9400000000	0.4430855483
0.9450000000	0.3669447202
0.9500000000	0.3128714845
0.9550000000	0.2766741476
0.9600000000	0.2542858814
0.9650000000	0.2358113126
0.9700000000	0.2226257445
0.9750000000	0.2136353928
0.9800000000	0.2081553855
0.9850000000	0.2071357977
0.9900000000	0.2091036410
0.9950000000	0.2171125031
1.0000000000	0.2362850720
1.0050000000	0.2810685704
1.0100000000	0.3984470420
1.0150000000	0.8007630598
1.0200000000	1.5373181501
1.0250000000	0.6991908670
1.0300000000	0.3583766685
1.0350000000	0.2567983970
1.0400000000	0.2168548596
1.0450000000	0.1981183573
1.0500000000	0.1887294500
1.0550000000	0.1838062601
1.0600000000	0.1816002004
1.0650000000	0.1811932126
1.0700000000	0.1820763066
1.0750000000	0.1840706019
1.0800000000	0.1868200625
1.0850000000	0.1905598429
1.0900000000	0.1959621231
1.0950000000	0.2022594126
1.1000000000	0.2095134988
1.1050000000	0.2177375543
1.1100000000	0.2270617393
1.1150000000	0.2376101576
1.1200000000	0.2495300594
1.1250000000	0.2629432860
1.1300000000	0.2781973615
1.1350000000	0.2955264722
1.1400000000	0.3152814094
1.1450000000	0.3379081783
1.1500000000	0.3637538138
1.1550000000	0.3938990434
1.1600000000	0.4290271906
1.1650000000	0.4700332821
1.1700000000	0.5171032637
1.1750000000	0.5648425302
1.1800000000	0.6100300554
1.1850000000	0.8478546875
1.1900000000	1.0521707534
1.1950000000	1.4423283767
1.2000000000	1.9643202086
1.2050000000	1.7230907728
1.2100000000	1.6490694388
1.2150000000	1.8359095903
1.2200000000	2.1957784233
1.2250000000	2.7484157334
1.2300000000	3.5887373143
1.2350000000	4.9180374256
1.2400000000	7.1572445792
1.2450000000	11.3736596608
1.2500000000	20.5052340368
1.2550000000	44.3874756955
1.2600000000	107.2144417997
1.2650000000	108.6039684949
1.2700000000	45.1771179162
1.2750000000	20.8538392274
1.2800000000	11.5492521320
1.2850000000	7.2628720640
1.2900000000	4.9780469493
1.2950000000	3.6280835559
1.3000000000	2.7682162564
1.3050000000	2.1892703943
1.3100000000	1.7810205671
1.3150000000	1.4860403102
1.3200000000	1.2673718272
1.3250000000	1.1028168759
1.3300000000	0.9788925665
1.3350000000	0.8873258709
1.3400000000	0.8238220313
1.3450000000	0.7872042942
1.3500000000	0.7828176742
1.3550000000	0.8228299553
1.3600000000	0.9381999871
1.3650000000	1.2077084560
1.3700000000	1.8513170573
1.3750000000	3.4526545825
1.3800000000	5.6397323992
1.3850000000	3.9397656989
1.3900000000	2.0077021650
1.3950000000	1.1649162483
1.4000000000	0.7628923692
1.4050000000	0.5158171969
1.4100000000	0.2922077620
1.4150000000	-0.0413513150
1.4200000000	-0.7881146859
1.4250000000	-2.7668218762
1.4300000000	-3.7201942949
1.4350000000	1.7044076765
1.4400000000	2.1801939644
1.4450000000	1.3071272183
1.4500000000	0.8133518292
1.4550000000	0.5606811980
1.4600000000	0.4140294985
1.4650000000	0.2981244743
1.4700000000	0.1741401550
1.4750000000	0.2046572966
1.4800000000	0.3000614085
1.4850000000	0.2724649834
1.4900000000	0.2412592539
1.4950000000	0.2210752628
1.5000000000	0.2078160389
1.5050000000	0.1990488723
1.5100000000	0.1930844532
1.5150000000	0.1898295203
1.5200000000	0.1874296252
1.5250000000	0.1865625419
1.5300000000	0.1873076541
1.5350000000	0.1900065938
1.5400000000	0.1955119950
1.5450000000	0.2057175668
1.5500000000	0.2248797084
1.5550000000	0.2614825833
1.5600000000	0.3164250334
1.5650000000	0.3252316015
1.5700000000	0.2756571959
1.5750000000	0.2408725671
1.5800000000	0.2258710422
1.5850000000	0.2211561203
1.5900000000	0.2217765128
1.5950000000	0.2255820713
1.6000000000	0.2316361252
1.6050000000	0.2396163873
1.6100000000	0.2492821308
1.6150000000	0.2605976543
1.6200000000	0.2737432909
1.6250000000	0.2888746130
1.6300000000	0.3062472085
1.6350000000	0.3261905559
1.6400000000	0.3491259500
1.6450000000	0.3755914543
1.6500000000	0.4062624629
1.6550000000	0.4419948798
1.6600000000	0.4838976140
1.6650000000	0.5334020285
1.6700000000	0.5918998877
1.6750000000	0.6628064715
1.6800000000	0.7491406944
1.6850000000	0.8556518367
1.6900000000	0.9890829722
1.6950000000	1.1593294231
1.7000000000	1.3812874682
1.7050000000	1.6874856944
1.7100000000	2.1146887728
1.7150000000	2.7356413410
1.7200000000	3.6820008788
1.7250000000	5.1833724430
1.7300000000	7.4905663137
1.7350000000	10.4513504437
1.7400000000	14.1940537831
1.7450000000	20.7619129408
1.7500000000	29.2877040011
1.7550000000	29.7588217519
1.7600000000	20.8777377157
1.7650000000	13.0049069791
1.7700000000	8.3366727200
1.7750000000	5.6821387999
1.7800000000	4.1134205055
1.7850000000	3.1484631348
1.7900000000	2.5500422869
1.7950000000	2.2076325212
1.8000000000	2.0694261465
1.8050000000	2.0256687107
1.8100000000	1.8022614540
1.8150000000	1.3964931853
1.8200000000	1.0723142473
1.8250000000	0.9051730386
1.8300000000	0.7880504557
1.8350000000	0.6839588912
1.8400000000	0.5990794892
1.8450000000	0.5317223703
1.8500000000	0.4774397555
1.8550000000	0.4325964113
1.8600000000	0.3913470080
1.8650000000	0.3564750556
1.8700000000	0.3212323415
1.8750000000	0.2704268040
1.8800000000	0.1546118356
1.8850000000	-0.0992259616
1.8900000000	-0.4406562134
1.8950000000	-0.4992422961
1.9000000000	0.0534294780
1.9050000000	0.5687175745
1.9100000000	0.6288442438
1.9150000000	0.5312559894
1.9200000000	0.4356101871
1.9250000000	0.3677387763
1.9300000000	0.3266342145
1.9350000000	0.2952508857
1.9400000000	0.2743710242
1.9450000000	0.2605464032
1.9500000000	0.2508826780
1.9550000000	0.2428015498
1.9600000000	0.2358291482
1.9650000000	0.2308800746
1.9700000000	0.2282381820
1.9750000000	0.2277274915
1.9800000000	0.2292057087
1.9850000000	0.2327159480
1.9900000000	0.2384886712
1.9950000000	0.2468120422
2.0000000000	0.2574697028
2.0050000000	0.2695608834
2.0100000000	0.2782362346
2.0150000000	0.2840255219
2.0200000000	0.2910065628
2.0250000000	0.3017794412
2.0300000000	0.3171095518
2.0350000000	0.3373803696
2.0400000000	0.3632880808
2.0450000000	0.3960403906
2.0500000000	0.4373716225
2.0550000000	0.4892089737
2.0600000000	0.5524870163
2.0650000000	0.6262109205
2.0700000000	0.7114882329
2.0750000000	0.8178319806
2.0800000000	0.9609480108
2.0850000000	1.1561496478
2.0900000000	1.4123425791
2.0950000000	1.7111204425
2.1000000000	1.9774150125
2.1050000000	2.1064517665
2.1100000000	2.0451742727
2.1150000000	1.9041660860
2.1200000000	1.8045006763
2.1250000000	1.8002499420
2.1300000000	1.9074559523
2.1350000000	2.1388336654
2.1400000000	2.5198504836
2.1450000000	3.0955620281
2.1500000000	3.9290609578
2.1550000000	5.0677398140
2.1600000000	6.4197724782
2.1650000000	7.5561346945
2.1700000000	7.8246455012
2.1750000000	7.0043286999
2.1800000000	5.6547844314
2.1850000000	4.3629371454
2.1900000000	3.3529040404
2.1950000000	2.6231863870
2.2000000000	2.1112310360
2.2050000000	1.7580269660
2.2100000000	1.5128332967
2.2150000000	1.3247667863
2.2200000000	1.1562434035
2.2250000000	0.9959465836
2.2300000000	0.8508070406
2.2350000000	0.7261842070
2.2400000000	0.6206331967
2.2450000000	0.5294941805
2.2500000000	0.4481286909
2.2550000000	0.3739423725
2.2600000000	0.2997544023
2.2650000000	0.2457835592
2.2700000000	0.2164653863
2.2750000000	0.2238433226
2.2800000000	0.2664207868
2.2850000000	0.3206389062
2.2900000000	0.3603247068
2.2950000000	0.3779123604
2.3000000000	0.3799213247
2.3050000000	0.3738485432
2.3100000000	0.3658507570
2.3150000000	0.3587653475
2.3200000000	0.3537140397
2.3250000000	0.3513122671
2.3300000000	0.3520575761
2.3350000000	0.3563621644
2.3400000000	0.3645783786
2.3450000000	0.3770629356
2.3500000000	0.3941938592
2.3550000000	0.4165378975
2.3600000000	0.4437282478
2.3650000000	0.4759342044
2.3700000000	0.5130663249
2.3750000000	0.5555277830
2.3800000000	0.6048513165
2.3850000000	0.6628555800
2.3900000000	0.7299426491
2.3950000000	0.8031252280
2.4000000000	0.8747238104
2.4050000000	0.9364259151
2.4100000000	0.9706260323
2.4150000000	0.9738954291
2.4200000000	0.9545955048
2.4250000000	0.9269843952
2.4300000000	0.9037165597
2.4350000000	0.8924309542
2.4400000000	0.8961761212
2.4450000000	0.9154449959
2.4500000000	0.9502995825
2.4550000000	1.0015165867
2.4600000000	1.0723790932
2.4650000000	1.1662525317
2.4700000000	1.2868846343
2.4750000000	1.4366160833
2.4800000000	1.6142654619
2.4850000000	1.8122530523
2.4900000000	2.0132405080
2.4950000000	2.1884558094
2.5000000000	2.3018948259
2.5050000000	2.3164797889
2.5100000000	2.2174057387
2.5150000000	2.0317153669
2.5200000000	1.8026182329
2.5250000000	1.5680750862
2.5300000000	1.3512253953
2.5350000000	1.1617915956
2.5400000000	1.0012050353
2.5450000000	0.8670832252
2.5500000000	0.7559734378
2.5550000000	0.6647734639
2.5600000000	0.5885144414
2.5650000000	0.5314434094
2.5700000000	0.4904358096
2.5750000000	0.4640292642
2.5800000000	0.4492929252
2.5850000000	0.4422183447
2.5900000000	0.4390437091
2.5950000000	0.4374265710
2.6000000000	0.4366116510
2.6050000000	0.4400920829
2.6100000000	0.4456070923
2.6150000000	0.4540011663
2.6200000000	0.4657229649
2.6250000000	0.4808001172
2.6300000000	0.4988070500
2.6350000000	0.5188405425
2.6400000000	0.5395205451
2.6450000000	0.5590970234
2.6500000000	0.5757165880
2.6550000000	0.5878596247
2.6600000000	0.5948202414
2.6650000000	0.5970130141
2.6700000000	0.5958853252
2.6750000000	0.5935529267
2.6800000000	0.5920659729
2.6850000000	0.5933399600
2.6900000000	0.5987088571
2.6950000000	0.6089924914
2.7000000000	0.6245839637
2.7050000000	0.6479213933
2.7100000000	0.6779548483
2.7150000000	0.7141988429
2.7200000000	0.7556497978
2.7250000000	0.8006040558
2.7300000000	0.8464896454
2.7350000000	0.8898390172
2.7400000000	0.9265274670
2.7450000000	0.9523670899
2.7500000000	0.9639823371
2.7550000000	0.9596725769
2.7600000000	0.9398722652
2.7650000000	0.9069942427
2.7700000000	0.8647306542
2.7750000000	0.8171721918
2.7800000000	0.7680697590
2.7850000000	0.7204241079
2.7900000000	0.6759748794
2.7950000000	0.6366257366
2.8000000000	0.6027705439
2.8050000000	0.5714140262
2.8100000000	0.5466912970
2.8150000000	0.5276291710
2.8200000000	0.5131704166
2.8250000000	0.5023448845
2.8300000000	0.4943280145
2.8350000000	0.4884358548
2.8400000000	0.4840904696
2.8450000000	0.4808011789
2.8500000000	0.4781739613
2.8550000000	0.4759472406
2.8600000000	0.4740324400
2.8650000000	0.4725270654
2.8700000000	0.4716899237
2.8750000000	0.4718769879
2.8800000000	0.4734625487
2.8850000000	0.4767681409
2.8900000000	0.4820129992
2.8950000000	0.4892842305
2.9000000000	0.4985220807
2.9050000000	0.5123395653
2.9100000000	0.5274918200
2.9150000000	0.5429672347
2.9200000000	0.5574873553
2.9250000000	0.5696788114
2.9300000000	0.5782664677
2.9350000000	0.5822969291
2.9400000000	0.5813230359
2.9450000000	0.5754892581
2.9500000000	0.5654776843
2.9550000000	0.5523341826
2.9600000000	0.5372479793
2.9650000000	0.5213455379
2.9700000000	0.5055532503
2.9750000000	0.4905373764
2.9800000000	0.4767081041
2.9850000000	0.4642638504
2.9900000000	0.4532507649
2.9950000000	0.4436205563
3.0000000000	0.4352776987
