# energy (eV)    P(omega), $W$ = 300 nm, $h$ = 300 nm, $s$ = 20 nm, $d/W = 5$, $E_{\rm e}$ = 200 keV
0.2000000000	0.1350984266
0.2050000000	0.1370391724
0.2100000000	0.1388634231
0.2150000000	0.1405748217
0.2200000000	0.1421765087
0.2250000000	0.1436710809
0.2300000000	0.1450604460
0.2350000000	0.1463457958
0.2400000000	0.1475274712
0.2450000000	0.1486046705
0.2500000000	0.1495756126
0.2550000000	0.1504368742
0.2600000000	0.1511834534
0.2650000000	0.1518083766
0.2700000000	0.1523020855
0.2750000000	0.1526520663
0.2800000000	0.1528420988
0.2850000000	0.1528514439
0.2900000000	0.1526534563
0.2950000000	0.1522145383
0.3000000000	0.1514914240
0.3050000000	0.1504294546
0.3100000000	0.1489584585
0.3150000000	0.1569839495
0.3200000000	0.1665167121
0.3250000000	0.1785672402
0.3300000000	0.1946928991
0.3350000000	0.2147717643
0.3400000000	0.2410680902
0.3450000000	0.2729911570
0.3500000000	0.3147695265
0.3550000000	0.3700776327
0.3600000000	0.4423471598
0.3650000000	0.5431460469
0.3700000000	0.6761868392
0.3750000000	0.8613923173
0.3800000000	1.1294443571
0.3850000000	1.5473766220
0.3900000000	2.2081176137
0.3950000000	3.3312874730
0.4000000000	5.4738852253
0.4050000000	10.2807398640
0.4100000000	23.4062485018
0.4150000000	75.1788971113
0.4200000000	47.8533285773
0.4250000000	-90.3318555391
0.4300000000	25.1725057953
0.4350000000	15.7065682765
0.4400000000	9.6159580112
0.4450000000	6.3351601261
0.4500000000	4.4452506089
0.4550000000	3.2815111705
0.4600000000	2.5231427363
0.4650000000	2.0060926570
0.4700000000	1.6404840381
0.4750000000	1.3759827353
0.4800000000	1.1798354469
0.4850000000	1.0322382233
0.4900000000	0.9195992964
0.4950000000	0.8327905011
0.5000000000	0.7655743000
0.5050000000	0.7133688037
0.5100000000	0.6732296445
0.5150000000	0.6429902946
0.5200000000	0.6203727788
0.5250000000	0.6043624964
0.5300000000	0.5938614336
0.5350000000	0.5880687930
0.5400000000	0.5863951827
0.5450000000	0.5883485434
0.5500000000	0.5937822936
0.5550000000	0.6024219515
0.5600000000	0.6141337741
0.5650000000	0.6288612738
0.5700000000	0.6465566419
0.5750000000	0.6673464950
0.5800000000	0.6914366545
0.5850000000	0.7189623563
0.5900000000	0.7501809150
0.5950000000	0.7854114324
0.6000000000	0.8250598781
0.6050000000	0.8697081936
0.6100000000	0.9199169561
0.6150000000	0.9764469693
0.6200000000	1.0403137330
0.6250000000	1.1124895513
0.6300000000	1.1944115238
0.6350000000	1.2878709249
0.6400000000	1.3947323321
0.6450000000	1.5176858195
0.6500000000	1.6602695195
0.6550000000	1.8261673271
0.6600000000	2.0210390350
0.6650000000	2.2521525075
0.6700000000	2.5280521901
0.6750000000	2.8617623914
0.6800000000	3.2708190752
0.6850000000	3.7781773820
0.6900000000	4.4194198303
0.6950000000	5.2442950327
0.7000000000	6.3318752697
0.7050000000	7.8030376262
0.7100000000	9.8626573584
0.7150000000	12.8754819122
0.7200000000	17.5207060020
0.7250000000	25.2343251033
0.7300000000	39.3981062500
0.7350000000	69.7161167592
0.7400000000	152.8972427403
0.7450000000	507.6033663223
0.7500000000	1573.7197158699
0.7550000000	396.2003255025
0.7600000000	131.3122718211
0.7650000000	62.9659005647
0.7700000000	36.6473984630
0.7750000000	23.9376974377
0.7800000000	16.8595091038
0.7850000000	12.5317627322
0.7900000000	9.6898114944
0.7950000000	7.7290773010
0.8000000000	6.3190961956
0.8050000000	5.2686201321
0.8100000000	4.4673004443
0.8150000000	3.8318321877
0.8200000000	3.3301466316
0.8250000000	2.9260820847
0.8300000000	2.5949794681
0.8350000000	2.3226924248
0.8400000000	2.0943831523
0.8450000000	1.9027605512
0.8500000000	1.7407708709
0.8550000000	1.6009415308
0.8600000000	1.4815717593
0.8650000000	1.3796336958
0.8700000000	1.2895359321
0.8750000000	1.2129349171
0.8800000000	1.1479959647
0.8850000000	1.0897684937
0.8900000000	1.0431838047
0.8950000000	1.0008010557
0.9000000000	0.9673462237
0.9050000000	0.9445612076
0.9100000000	0.9236934479
0.9150000000	0.9113479750
0.9200000000	0.9106145094
0.9250000000	0.9102282343
0.9300000000	0.8974995353
0.9350000000	0.8576470064
0.9400000000	0.6326823950
0.9450000000	-0.3924470290
0.9500000000	-5.8078661216
0.9550000000	-33.2953659077
0.9600000000	7.8643290065
0.9650000000	13.8224099386
0.9700000000	6.1348954848
0.9750000000	3.2221284826
0.9800000000	2.0198382173
0.9850000000	1.4573680615
0.9900000000	1.1331204370
0.9950000000	0.9364387103
1.0000000000	0.8108335188
1.0050000000	0.7312370238
1.0100000000	0.6694608239
1.0150000000	0.6243029916
1.0200000000	0.5939002498
1.0250000000	0.5683150850
1.0300000000	0.5488353072
1.0350000000	0.5340461806
1.0400000000	0.5245997747
1.0450000000	0.5166575838
1.0500000000	0.5113128828
1.0550000000	0.5082595855
1.0600000000	0.5082037690
1.0650000000	0.5091807387
1.0700000000	0.5119837904
1.0750000000	0.5166222229
1.0800000000	0.5236160115
1.0850000000	0.5325072784
1.0900000000	0.5457600431
1.0950000000	0.5615203706
1.1000000000	0.5803414914
1.1050000000	0.6019818360
1.1100000000	0.6271482163
1.1150000000	0.6563983723
1.1200000000	0.6904166379
1.1250000000	0.7299841961
1.1300000000	0.7762814382
1.1350000000	0.8307339020
1.1400000000	0.8949916096
1.1450000000	0.9719465157
1.1500000000	1.0648429584
1.1550000000	1.1783243579
1.1600000000	1.3189406877
1.1650000000	1.4952159584
1.1700000000	1.7229902822
1.1750000000	2.0234036468
1.1800000000	2.4313537007
1.1850000000	3.0041696015
1.1900000000	3.8500578629
1.1950000000	5.1764143450
1.2000000000	7.4243056254
1.2050000000	11.6700428618
1.2100000000	21.0076129618
1.2150000000	46.2501449664
1.2200000000	113.4327360195
1.2250000000	102.0124790801
1.2300000000	40.8127400741
1.2350000000	19.2425545465
1.2400000000	11.0764849573
1.2450000000	7.3341307942
1.2500000000	5.3679983787
1.2550000000	4.2424383120
1.2600000000	3.5679194586
1.2650000000	3.1573530793
1.2700000000	2.9280692618
1.2750000000	2.8267326723
1.2800000000	2.8292246926
1.2850000000	2.9267013965
1.2900000000	3.1218115699
1.2950000000	3.4256719135
1.3000000000	3.8732070095
1.3050000000	4.5098811738
1.3100000000	5.4179285051
1.3150000000	6.7390313584
1.3200000000	8.7268551204
1.3250000000	11.8658177973
1.3300000000	17.2132294764
1.3350000000	27.2239965844
1.3400000000	48.6183696535
1.3450000000	101.7419851350
1.3500000000	216.1355661961
1.3550000000	201.7082777190
1.3600000000	93.0527523640
1.3650000000	45.7269617479
1.3700000000	26.2238337801
1.3750000000	16.8627085267
1.3800000000	11.7583266260
1.3850000000	8.6840107328
1.3900000000	6.7036198489
1.3950000000	5.3533373094
1.4000000000	4.3944808920
1.4050000000	3.6923518773
1.4100000000	3.1661766854
1.4150000000	2.7691397839
1.4200000000	2.4705667932
1.4250000000	2.2705853924
1.4300000000	2.1973390172
1.4350000000	2.2380548314
1.4400000000	1.7237495837
1.4450000000	0.1485179939
1.4500000000	-2.4089522343
1.4550000000	-0.6754869402
1.4600000000	2.9168313731
1.4650000000	1.5792039920
1.4700000000	-1.4910748203
1.4750000000	-6.5260512087
1.4800000000	-2.9045038021
1.4850000000	4.7738956650
1.4900000000	3.8697374038
1.4950000000	2.5047746362
1.5000000000	1.7599024013
1.5050000000	1.3588143231
1.5100000000	1.1302058346
1.5150000000	0.9913716085
1.5200000000	0.9016867693
1.5250000000	0.8459626491
1.5300000000	0.8033955756
1.5350000000	0.7740541366
1.5400000000	0.7547265426
1.5450000000	0.7436894861
1.5500000000	0.7398304237
1.5550000000	0.7431775222
1.5600000000	0.7557124011
1.5650000000	0.7764174850
1.5700000000	0.8099433244
1.5750000000	0.8619624152
1.5800000000	0.9431257025
1.5850000000	1.0741658571
1.5900000000	1.2987634417
1.5950000000	1.7135801469
1.6000000000	2.5227936607
1.6050000000	3.8607951007
1.6100000000	4.4804547152
1.6150000000	3.3188039353
1.6200000000	2.2290497405
1.6250000000	1.6538131926
1.6300000000	1.3649890014
1.6350000000	1.2162946093
1.6400000000	1.1409295126
1.6450000000	1.1078463298
1.6500000000	1.1014975858
1.6550000000	1.1146000326
1.6600000000	1.1428070138
1.6650000000	1.1841336973
1.6700000000	1.2378255291
1.6750000000	1.3038870978
1.6800000000	1.3829090680
1.6850000000	1.4758076686
1.6900000000	1.5833931101
1.6950000000	1.7041375658
1.7000000000	1.8360154479
1.7050000000	1.9711720037
1.7100000000	2.1253986470
1.7150000000	2.5086439839
1.7200000000	3.1810260862
1.7250000000	3.7971102586
1.7300000000	4.4583068595
1.7350000000	5.1848205253
1.7400000000	5.8976860897
1.7450000000	6.8133143434
1.7500000000	8.1979812744
1.7550000000	10.2589221163
1.7600000000	13.3424756018
1.7650000000	18.0958014226
1.7700000000	25.7525749650
1.7750000000	38.6522455964
1.7800000000	60.6330242854
1.7850000000	93.0495238298
1.7900000000	115.6355726798
1.7950000000	98.4659001848
1.8000000000	65.5317882470
1.8050000000	41.3848118238
1.8100000000	27.2859856550
1.8150000000	19.0221105592
1.8200000000	13.9364099495
1.8250000000	10.6393340514
1.8300000000	8.4007341485
1.8350000000	6.8206373991
1.8400000000	5.6694627890
1.8450000000	4.8079418904
1.8500000000	4.1483049074
1.8550000000	3.6356320576
1.8600000000	3.2316117951
1.8650000000	2.9102068380
1.8700000000	2.6528987914
1.8750000000	2.4460921034
1.8800000000	2.2790023263
1.8850000000	2.1420998294
1.8900000000	2.0244034416
1.8950000000	1.9095266357
1.9000000000	1.7691733658
1.9050000000	1.5034847434
1.9100000000	1.1378220818
1.9150000000	0.9440873358
1.9200000000	2.3090070132
1.9250000000	6.0816605135
1.9300000000	9.0736342038
1.9350000000	8.9340992977
1.9400000000	7.0269323990
1.9450000000	5.1778759036
1.9500000000	3.8796246726
1.9550000000	3.0289689395
1.9600000000	2.4668283445
1.9650000000	2.0905786811
1.9700000000	1.8189553711
1.9750000000	1.6198451889
1.9800000000	1.4678328297
1.9850000000	1.3444789352
1.9900000000	1.2356738836
1.9950000000	1.1291035538
2.0000000000	1.0229726292
2.0050000000	0.9551702201
2.0100000000	0.9940193825
2.0150000000	1.1010376086
2.0200000000	1.1670272948
2.0250000000	1.1845626490
2.0300000000	1.1885185871
2.0350000000	1.1957096338
2.0400000000	1.2123839464
2.0450000000	1.2401348089
2.0500000000	1.2799960996
2.0550000000	1.3329067474
2.0600000000	1.3988675029
2.0650000000	1.4738824969
2.0700000000	1.5480421163
2.0750000000	1.6139197952
2.0800000000	1.6780678802
2.0850000000	1.7540374741
2.0900000000	1.8509118852
2.0950000000	1.9725158525
2.1000000000	2.1229631356
2.1050000000	2.3008910334
2.1100000000	2.5188044925
2.1150000000	2.7858447604
2.1200000000	3.1148316605
2.1250000000	3.5237470998
2.1300000000	4.0379384904
2.1350000000	4.6935942208
2.1400000000	5.5429690925
2.1450000000	6.6624600484
2.1500000000	8.1633801813
2.1550000000	10.2032677796
2.1600000000	12.9837471072
2.1650000000	16.6755687511
2.1700000000	21.2104278634
2.1750000000	25.7190332330
2.1800000000	28.5048123203
2.1850000000	28.6496414694
2.1900000000	27.3831625745
2.1950000000	26.3976778773
2.2000000000	25.9607053719
2.2050000000	24.7465170080
2.2100000000	22.1685696137
2.2150000000	18.9989213397
2.2200000000	16.1534602401
2.2250000000	13.8018458877
2.2300000000	11.7312943356
2.2350000000	9.8593668047
2.2400000000	8.2515346403
2.2450000000	6.9650794782
2.2500000000	5.9788954476
2.2550000000	5.2380500873
2.2600000000	4.6833307595
2.2650000000	4.2554048770
2.2700000000	3.8901370652
2.2750000000	3.5243434808
2.2800000000	3.1305489549
2.2850000000	2.7558512113
2.2900000000	2.4969416016
2.2950000000	2.4085464717
2.3000000000	2.4402160207
2.3050000000	2.4885376687
2.3100000000	2.4926211211
2.3150000000	2.4529619801
2.3200000000	2.3959186210
2.3250000000	2.3487160000
2.3300000000	2.3252846510
2.3350000000	2.3280185028
2.3400000000	2.3491172410
2.3450000000	2.3709258792
2.3500000000	2.3712131622
2.3550000000	2.3357957450
2.3600000000	2.2686876174
2.3650000000	2.1874288593
2.3700000000	2.1100991934
2.3750000000	2.0474964380
2.3800000000	2.0031275145
2.3850000000	1.9759989576
2.3900000000	1.9638471948
2.3950000000	1.9640506310
2.4000000000	1.9773236624
2.4050000000	2.0080370947
2.4100000000	2.0576563296
2.4150000000	2.1282097013
2.4200000000	2.2209163978
2.4250000000	2.3379094356
2.4300000000	2.4822993595
2.4350000000	2.6582588014
2.4400000000	2.8711721717
2.4450000000	3.1279144659
2.4500000000	3.4371595783
2.4550000000	3.8098098309
2.4600000000	4.2592601373
2.4650000000	4.8015817831
2.4700000000	5.4552068662
2.4750000000	6.2385987566
2.4800000000	7.1708260995
2.4850000000	8.2594378518
2.4900000000	9.4937944226
2.4950000000	10.8297233137
2.5000000000	12.1738055993
2.5050000000	13.4311343400
2.5100000000	14.2805421836
2.5150000000	14.5367912338
2.5200000000	14.1557419443
2.5250000000	13.2550202749
2.5300000000	12.0395415658
2.5350000000	10.7069350055
2.5400000000	9.3968186718
2.5450000000	8.1880760044
2.5500000000	7.1157838929
2.5550000000	6.1879267800
2.5600000000	5.3917471360
2.5650000000	4.7223612054
2.5700000000	4.1640097795
2.5750000000	3.7068275337
2.5800000000	3.3434454122
2.5850000000	3.0658526581
2.5900000000	2.8608736473
2.5950000000	2.7099846148
2.6000000000	2.5938983348
2.6050000000	2.5113977058
2.6100000000	2.4399624621
2.6150000000	2.3784602841
2.6200000000	2.3281063296
2.6250000000	2.2902467541
2.6300000000	2.2657804471
2.6350000000	2.2551660674
2.6400000000	2.2586699585
2.6450000000	2.2765400183
2.6500000000	2.3092614016
2.6550000000	2.3569699861
2.6600000000	2.4203979690
2.6650000000	2.5002849787
2.6700000000	2.5975396029
2.6750000000	2.7132629370
2.6800000000	2.8486753544
2.6850000000	3.0050252871
2.6900000000	3.1833354084
2.6950000000	3.3841989461
2.7000000000	3.6074127222
2.7050000000	3.8783641220
2.7100000000	4.1740718548
2.7150000000	4.4887784377
2.7200000000	4.8141097158
2.7250000000	5.1395452749
2.7300000000	5.4532138084
2.7350000000	5.7425771490
2.7400000000	5.9945949415
2.7450000000	6.1976912469
2.7500000000	6.3339100486
2.7550000000	6.3923806976
2.7600000000	6.3648547041
2.7650000000	6.2503724259
2.7700000000	6.0566066427
2.7750000000	5.7989306390
2.7800000000	5.4973825363
2.7850000000	5.1732200795
2.7900000000	4.8455165957
2.7950000000	4.5295671454
2.8000000000	4.2361868191
2.8050000000	3.9393545172
2.8100000000	3.6853046068
2.8150000000	3.4733556375
2.8200000000	3.3000958235
2.8250000000	3.1610284178
2.8300000000	3.0516237083
2.8350000000	2.9680051260
2.8400000000	2.9060917544
2.8450000000	2.8660257046
2.8500000000	2.8448412121
2.8550000000	2.8414082514
2.8600000000	2.8548830205
2.8650000000	2.8845053938
2.8700000000	2.9294251102
2.8750000000	2.9885634730
2.8800000000	3.0605063125
2.8850000000	3.1434144928
2.8900000000	3.2350772758
2.8950000000	3.3329942920
2.9000000000	3.4345360799
2.9050000000	3.5565602363
2.9100000000	3.6736218048
2.9150000000	3.7820383960
2.9200000000	3.8779451971
2.9250000000	3.9569569425
2.9300000000	4.0150356891
2.9350000000	4.0459021797
2.9400000000	4.0468460815
2.9450000000	4.0167127789
2.9500000000	3.9572409508
2.9550000000	3.8729508096
2.9600000000	3.7703668794
2.9650000000	3.6568820121
2.9700000000	3.5396450880
2.9750000000	3.4247655929
2.9800000000	3.3169248454
2.9850000000	3.2193167966
2.9900000000	3.1338625188
2.9950000000	3.0614638392
3.0000000000	3.0023105354
