# energy (eV)    P(omega), $W$ = 300 nm, $h$ = 300 nm, $s$ = 20 nm, $d/W = 5$, $E_{\rm e}$ = 200 keV
0.2000000000	0.0507350469
0.2050000000	0.0515076386
0.2100000000	0.0522256004
0.2150000000	0.0528907565
0.2200000000	0.0535047491
0.2250000000	0.0540689343
0.2300000000	0.0545843949
0.2350000000	0.0550518847
0.2400000000	0.0554717876
0.2450000000	0.0558440501
0.2500000000	0.0561681286
0.2550000000	0.0564428538
0.2600000000	0.0566664061
0.2650000000	0.0568360808
0.2700000000	0.0569482021
0.2750000000	0.0569978471
0.2800000000	0.0569785965
0.2850000000	0.0568821649
0.2900000000	0.0566979551
0.2950000000	0.0564124642
0.3000000000	0.0560084588
0.3050000000	0.0554639767
0.3100000000	0.0547508880
0.3150000000	0.0579753572
0.3200000000	0.0618046400
0.3250000000	0.0666512859
0.3300000000	0.0731480309
0.3350000000	0.0812324161
0.3400000000	0.0918186659
0.3450000000	0.1046473464
0.3500000000	0.1214224357
0.3550000000	0.1436073719
0.3600000000	0.1725517119
0.3650000000	0.2128823906
0.3700000000	0.2660074562
0.3750000000	0.3398474718
0.3800000000	0.4465601532
0.3850000000	0.6127302403
0.3900000000	0.8750331874
0.3950000000	1.3202388939
0.4000000000	2.1683527813
0.4050000000	4.0684604425
0.4100000000	9.2491751873
0.4150000000	29.6540655311
0.4200000000	18.9065038086
0.4250000000	-35.4884487691
0.4300000000	9.8490692826
0.4350000000	6.1295078001
0.4400000000	3.7413938313
0.4450000000	2.4568672419
0.4500000000	1.7179114474
0.4550000000	1.2634557446
0.4600000000	0.9676487784
0.4650000000	0.7661837621
0.4700000000	0.6238583871
0.4750000000	0.5209604825
0.4800000000	0.4446855991
0.4850000000	0.3872904251
0.4900000000	0.3434675741
0.4950000000	0.3096557380
0.5000000000	0.2834202203
0.5050000000	0.2629765829
0.5100000000	0.2471738322
0.5150000000	0.2351637469
0.5200000000	0.2260653514
0.5250000000	0.2194768480
0.5300000000	0.2149710655
0.5350000000	0.2122342385
0.5400000000	0.2110347312
0.5450000000	0.2111791331
0.5500000000	0.2126023983
0.5550000000	0.2151942841
0.5600000000	0.2188960376
0.5650000000	0.2236795761
0.5700000000	0.2295178150
0.5750000000	0.2364506456
0.5800000000	0.2445426238
0.5850000000	0.2538350192
0.5900000000	0.2644106616
0.5950000000	0.2763756137
0.6000000000	0.2898644809
0.6050000000	0.3050758760
0.6100000000	0.3221967646
0.6150000000	0.3414846644
0.6200000000	0.3632833623
0.6250000000	0.3879220971
0.6300000000	0.4158885208
0.6350000000	0.4477902285
0.6400000000	0.4842586180
0.6450000000	0.5262066220
0.6500000000	0.5748336241
0.6550000000	0.6313874391
0.6600000000	0.6977876562
0.6650000000	0.7764946809
0.6700000000	0.8704005656
0.6750000000	0.9839177847
0.6800000000	1.1229772616
0.6850000000	1.2953454540
0.6900000000	1.5130505484
0.6950000000	1.7929111314
0.7000000000	2.1616389260
0.7050000000	2.6600585295
0.7100000000	3.3573291078
0.7150000000	4.3765446757
0.7200000000	5.9468043040
0.7250000000	8.5522982747
0.7300000000	13.3327922993
0.7350000000	23.5574389151
0.7400000000	51.5868501393
0.7450000000	171.0024694696
0.7500000000	529.3450487502
0.7550000000	133.0620667103
0.7600000000	44.0318274157
0.7650000000	21.0806382158
0.7700000000	12.2498924194
0.7750000000	7.9887226540
0.7800000000	5.6174627692
0.7850000000	4.1687167040
0.7900000000	3.2180592567
0.7950000000	2.5626618002
0.8000000000	2.0916959529
0.8050000000	1.7410617454
0.8100000000	1.4737812466
0.8150000000	1.2619958623
0.8200000000	1.0949036893
0.8250000000	0.9604066147
0.8300000000	0.8502708457
0.8350000000	0.7597414284
0.8400000000	0.6838735950
0.8450000000	0.6202252469
0.8500000000	0.5664307497
0.8550000000	0.5200221155
0.8600000000	0.4804064655
0.8650000000	0.4465632996
0.8700000000	0.4166685190
0.8750000000	0.3912268986
0.8800000000	0.3696223643
0.8850000000	0.3502545794
0.8900000000	0.3346803654
0.8950000000	0.3205136543
0.9000000000	0.3092437744
0.9050000000	0.3014034182
0.9100000000	0.2942131537
0.9150000000	0.2897531165
0.9200000000	0.2889807156
0.9250000000	0.2883547474
0.9300000000	0.2839295161
0.9350000000	0.2711776633
0.9400000000	0.2011113314
0.9450000000	-0.1164740349
0.9500000000	-1.7906545578
0.9550000000	-10.2757452040
0.9600000000	2.4235619718
0.9650000000	4.2537906953
0.9700000000	1.8858200795
0.9750000000	0.9898854307
0.9800000000	0.6204740055
0.9850000000	0.4477454991
0.9900000000	0.3482704591
0.9950000000	0.2879691926
1.0000000000	0.2494716913
1.0050000000	0.2250538418
1.0100000000	0.2061425136
1.0150000000	0.1923323264
1.0200000000	0.1830245215
1.0250000000	0.1752294658
1.0300000000	0.1693178481
1.0350000000	0.1648582790
1.0400000000	0.1620322239
1.0450000000	0.1597044986
1.0500000000	0.1581946242
1.0550000000	0.1574106110
1.0600000000	0.1575556108
1.0650000000	0.1580634367
1.0700000000	0.1591664826
1.0750000000	0.1608695902
1.0800000000	0.1633261791
1.0850000000	0.1664414669
1.0900000000	0.1710073133
1.0950000000	0.1764226494
1.1000000000	0.1828634685
1.1050000000	0.1902992676
1.1100000000	0.1989581024
1.1150000000	0.2090366837
1.1200000000	0.2207609064
1.1250000000	0.2344575511
1.1300000000	0.2505273890
1.1350000000	0.2694819026
1.1400000000	0.2918953846
1.1450000000	0.3188503050
1.1500000000	0.3514957338
1.1550000000	0.3915056271
1.1600000000	0.4412418127
1.1650000000	0.5037607054
1.1700000000	0.5848256805
1.1750000000	0.6920542919
1.1800000000	0.8380513207
1.1850000000	1.0435440236
1.1900000000	1.3475508582
1.1950000000	1.8250864970
1.2000000000	2.6353744248
1.2050000000	4.1669027140
1.2100000000	7.5359579299
1.2150000000	16.6400369249
1.2200000000	40.8437623325
1.2250000000	36.6605671444
1.2300000000	14.5903496104
1.2350000000	6.8168606462
1.2400000000	3.8719744155
1.2450000000	2.5183188917
1.2500000000	1.8023504513
1.2550000000	1.3869919497
1.2600000000	1.1317604376
1.2650000000	0.9690210118
1.2700000000	0.8682309045
1.2750000000	0.8095377838
1.2800000000	0.7831793538
1.2850000000	0.7844819806
1.2900000000	0.8122473351
1.2950000000	0.8676985708
1.3000000000	0.9582833919
1.3050000000	1.0934256291
1.3100000000	1.2912909422
1.3150000000	1.5834620908
1.3200000000	2.0269518120
1.3250000000	2.7302551793
1.3300000000	3.9317612724
1.3350000000	6.1834189688
1.3400000000	10.9962490703
1.3450000000	22.9414206981
1.3500000000	48.6354961541
1.3550000000	45.3289460683
1.3600000000	20.8956439839
1.3650000000	10.2657469054
1.3700000000	5.8877976941
1.3750000000	3.7872021578
1.3800000000	2.6419159918
1.3850000000	1.9519286976
1.3900000000	1.5070254486
1.3950000000	1.2033241020
1.4000000000	0.9869833838
1.4050000000	0.8276842205
1.4100000000	0.7069003539
1.4150000000	0.6132854273
1.4200000000	0.5383961497
1.4250000000	0.4784136702
1.4300000000	0.4298891112
1.4350000000	0.3805508828
1.4400000000	0.2243454769
1.4450000000	-0.1801788842
1.4500000000	-0.9202054894
1.4550000000	-0.3342014349
1.4600000000	0.8396118097
1.4650000000	0.5109255099
1.4700000000	-0.2180273749
1.4750000000	-1.3323771096
1.4800000000	-0.5807554830
1.4850000000	1.0459190229
1.4900000000	0.8461585660
1.4950000000	0.5513306307
1.5000000000	0.3899535934
1.5050000000	0.3022883095
1.5100000000	0.2520306154
1.5150000000	0.2210967300
1.5200000000	0.2007493124
1.5250000000	0.1877982039
1.5300000000	0.1775089929
1.5350000000	0.1699784740
1.5400000000	0.1644636630
1.5450000000	0.1605107188
1.5500000000	0.1578220377
1.5550000000	0.1562471909
1.5600000000	0.1560393534
1.5650000000	0.1566179776
1.5700000000	0.1585123392
1.5750000000	0.1620830635
1.5800000000	0.1680616809
1.5850000000	0.1778889145
1.5900000000	0.1946032670
1.5950000000	0.2248817484
1.6000000000	0.2826385596
1.6050000000	0.3761407519
1.6100000000	0.4176169295
1.6150000000	0.3372778867
1.6200000000	0.2646349644
1.6250000000	0.2286069863
1.6300000000	0.2128553847
1.6350000000	0.2072170902
1.6400000000	0.2071410910
1.6450000000	0.2105688267
1.6500000000	0.2165282744
1.6550000000	0.2246132267
1.6600000000	0.2346661733
1.6650000000	0.2467051745
1.6700000000	0.2608668352
1.6750000000	0.2773889839
1.6800000000	0.2966092808
1.6850000000	0.3189772431
1.6900000000	0.3450696248
1.6950000000	0.3754345074
1.7000000000	0.4112285580
1.7050000000	0.4545606147
1.7100000000	0.5079313128
1.7150000000	0.5837093533
1.7200000000	0.6887175607
1.7250000000	0.8160067018
1.7300000000	0.9758662335
1.7350000000	1.1466947475
1.7400000000	1.2975107179
1.7450000000	1.4850540807
1.7500000000	1.7760160537
1.7550000000	2.2152394198
1.7600000000	2.8757017677
1.7650000000	3.8952423797
1.7700000000	5.5375547316
1.7750000000	8.3027963039
1.7800000000	13.0101057638
1.7850000000	19.9411411573
1.7900000000	24.7469696916
1.7950000000	21.0390977887
1.8000000000	13.9764194505
1.8050000000	8.8075837713
1.8100000000	5.7926495772
1.8150000000	4.0266192638
1.8200000000	2.9401195261
1.8250000000	2.2356693827
1.8300000000	1.7570448341
1.8350000000	1.4186947833
1.8400000000	1.1715272457
1.8450000000	0.9857009859
1.8500000000	0.8423834117
1.8550000000	0.7297595018
1.8600000000	0.6394743826
1.8650000000	0.5657545094
1.8700000000	0.5043375398
1.8750000000	0.4518816316
1.8800000000	0.4054483185
1.8850000000	0.3620575206
1.8900000000	0.3179220494
1.8950000000	0.2672833043
1.9000000000	0.2004498980
1.9050000000	0.0866949171
1.9100000000	-0.0784851651
1.9150000000	-0.2563805271
1.9200000000	-0.1768219804
1.9250000000	0.3429366604
1.9300000000	0.7604268146
1.9350000000	0.7943072146
1.9400000000	0.6547629927
1.9450000000	0.5137670452
1.9500000000	0.4123873609
1.9550000000	0.3443687658
1.9600000000	0.2984775317
1.9650000000	0.2680950961
1.9700000000	0.2450873449
1.9750000000	0.2282015298
1.9800000000	0.2154830563
1.9850000000	0.2055511594
1.9900000000	0.1974219041
1.9950000000	0.1902982519
2.0000000000	0.1839879756
2.0050000000	0.1807725275
2.0100000000	0.1837220351
2.0150000000	0.1907742514
2.0200000000	0.1963252185
2.0250000000	0.2001095984
2.0300000000	0.2041499350
2.0350000000	0.2093187809
2.0400000000	0.2162819269
2.0450000000	0.2254727503
2.0500000000	0.2374122250
2.0550000000	0.2526287030
2.0600000000	0.2711473511
2.0650000000	0.2912088813
2.0700000000	0.3084488076
2.0750000000	0.3194007328
2.0800000000	0.3264311255
2.0850000000	0.3348253633
2.0900000000	0.3478554224
2.0950000000	0.3665213835
2.1000000000	0.3913611927
2.1050000000	0.4218066710
2.1100000000	0.4599819943
2.1150000000	0.5073617922
2.1200000000	0.5661346193
2.1250000000	0.6394465466
2.1300000000	0.7317833988
2.1350000000	0.8495791873
2.1400000000	1.0021340408
2.1450000000	1.2030418000
2.1500000000	1.4720912174
2.1550000000	1.8372519933
2.1600000000	2.3342850422
2.1650000000	2.9934322132
2.1700000000	3.8032381197
2.1750000000	4.6114318926
2.1800000000	5.1224267230
2.1850000000	5.1799516168
2.1900000000	5.0040417111
2.1950000000	4.8872550903
2.2000000000	4.8536218182
2.2050000000	4.6201944590
2.2100000000	4.0683508372
2.2150000000	3.3673881152
2.2200000000	2.7260293436
2.2250000000	2.2123386760
2.2300000000	1.8080207034
2.2350000000	1.4868823037
2.2400000000	1.2320942299
2.2450000000	1.0332271526
2.2500000000	0.8781345440
2.2550000000	0.7557683830
2.2600000000	0.6569066798
2.2650000000	0.5738765221
2.2700000000	0.5002308693
2.2750000000	0.4314447027
2.2800000000	0.3678379854
2.2850000000	0.3173960107
2.2900000000	0.2919471673
2.2950000000	0.2955684351
2.3000000000	0.3165917174
2.3050000000	0.3371374033
2.3100000000	0.3460055707
2.3150000000	0.3437647941
2.3200000000	0.3353187243
2.3250000000	0.3256733372
2.3300000000	0.3175338458
2.3350000000	0.3118378404
2.3400000000	0.3083910961
2.3450000000	0.3061899869
2.3500000000	0.3038945809
2.3550000000	0.3006480186
2.3600000000	0.2966879434
2.3650000000	0.2930536534
2.3700000000	0.2907754773
2.3750000000	0.2903569234
2.3800000000	0.2917126040
2.3850000000	0.2943259805
2.3900000000	0.2976216119
2.3950000000	0.3011073438
2.4000000000	0.3050769247
2.4050000000	0.3106246946
2.4100000000	0.3183069546
2.4150000000	0.3288291042
2.4200000000	0.3426709192
2.4250000000	0.3602688874
2.4300000000	0.3821126119
2.4350000000	0.4088157926
2.4400000000	0.4411680409
2.4450000000	0.4801880636
2.4500000000	0.5271723706
2.4550000000	0.5837612210
2.4600000000	0.6519800672
2.4650000000	0.7342796497
2.4700000000	0.8334987767
2.4750000000	0.9525271147
2.4800000000	1.0944902875
2.4850000000	1.2607937790
2.4900000000	1.4500611294
2.4950000000	1.6554465894
2.5000000000	1.8617417644
2.5050000000	2.0524080184
2.5100000000	2.1755836797
2.5150000000	2.2025509191
2.5200000000	2.1295963517
2.5250000000	1.9795459295
2.5300000000	1.7871265440
2.5350000000	1.5827986963
2.5400000000	1.3858559507
2.5450000000	1.2058340485
2.5500000000	1.0462962554
2.5550000000	0.9076953111
2.5600000000	0.7880203220
2.5650000000	0.6870089311
2.5700000000	0.6026456448
2.5750000000	0.5337374522
2.5800000000	0.4793526259
2.5850000000	0.4383369138
2.5900000000	0.4086066052
2.5950000000	0.3871451778
2.6000000000	0.3707975655
2.6050000000	0.3591382104
2.6100000000	0.3486692401
2.6150000000	0.3392619063
2.6200000000	0.3311512857
2.6250000000	0.3245684978
2.6300000000	0.3196530974
2.6350000000	0.3164655910
2.6400000000	0.3150377229
2.6450000000	0.3154053535
2.6500000000	0.3176454844
2.6550000000	0.3217710738
2.6600000000	0.3278903588
2.6650000000	0.3360989566
2.6700000000	0.3465095298
2.6750000000	0.3592557484
2.6800000000	0.3744863839
2.6850000000	0.3923639175
2.6900000000	0.4130453606
2.6950000000	0.4366730240
2.7000000000	0.4633454855
2.7050000000	0.4962744491
2.7100000000	0.5331811522
2.7150000000	0.5738121910
2.7200000000	0.6176199060
2.7250000000	0.6636920027
2.7300000000	0.7106867988
2.7350000000	0.7567764170
2.7400000000	0.7996171337
2.7450000000	0.8367347940
2.7500000000	0.8645378014
2.7550000000	0.8805591663
2.7600000000	0.8829460584
2.7650000000	0.8712218838
2.7700000000	0.8464544531
2.7750000000	0.8110396497
2.7800000000	0.7681550153
2.7850000000	0.7211809118
2.7900000000	0.6731371722
2.7950000000	0.6264415372
2.8000000000	0.5827993743
2.8050000000	0.5384219013
2.8100000000	0.5001135074
2.8150000000	0.4677868073
2.8200000000	0.4409336729
2.8250000000	0.4188787690
2.8300000000	0.4009446333
2.8350000000	0.3865538886
2.8400000000	0.3750927452
2.8450000000	0.3666025459
2.8500000000	0.3606334741
2.8550000000	0.3570179271
2.8600000000	0.3556373348
2.8650000000	0.3563980224
2.8700000000	0.3592165983
2.8750000000	0.3640077265
2.8800000000	0.3706726804
2.8850000000	0.3790887063
2.8900000000	0.3891046673
2.8950000000	0.4005359747
2.9000000000	0.4131636874
2.9050000000	0.4297515522
2.9100000000	0.4467819252
2.9150000000	0.4635980492
2.9200000000	0.4794101679
2.9250000000	0.4933025802
2.9300000000	0.5044146528
2.9350000000	0.5116006068
2.9400000000	0.5142865218
2.9450000000	0.5121785115
2.9500000000	0.5054495793
2.9550000000	0.4947136073
2.9600000000	0.4809055916
2.9650000000	0.4651102213
2.9700000000	0.4483918898
2.9750000000	0.4316741290
2.9800000000	0.4156731850
2.9850000000	0.4008887154
2.9900000000	0.3876282011
2.9950000000	0.3760482664
3.0000000000	0.3661994101
