# energy (eV)    P(omega), $W$ = 400 nm, $h$ = 300 nm, $s$ = 20 nm, $d/W = 5$, $E_{\rm e}$ = 200 keV
0.2000000000	0.0443512146
0.2050000000	0.0447546732
0.2100000000	0.0450387660
0.2150000000	0.0451987084
0.2200000000	0.0452278106
0.2250000000	0.0451169843
0.2300000000	0.0448542718
0.2350000000	0.0444241041
0.2400000000	0.0438064594
0.2450000000	0.0429755333
0.2500000000	0.0418983359
0.2550000000	0.0405324183
0.2600000000	0.0388230798
0.2650000000	0.0406142570
0.2700000000	0.0451640633
0.2750000000	0.0516747217
0.2800000000	0.0607459593
0.2850000000	0.0741193924
0.2900000000	0.0906901504
0.2950000000	0.1144458323
0.3000000000	0.1463804372
0.3050000000	0.1953287369
0.3100000000	0.2635125700
0.3150000000	0.3954454216
0.3200000000	0.6014999169
0.3250000000	0.7425760489
0.3300000000	0.9377305135
0.3350000000	1.2143908961
0.3400000000	1.6486928173
0.3450000000	2.3938172256
0.3500000000	3.8796630864
0.3550000000	7.3192205052
0.3600000000	17.9879674023
0.3650000000	0.0811954815
0.3700000000	8.3368894808
0.3750000000	10.9627298404
0.3800000000	5.1082827506
0.3850000000	2.8775588887
0.3900000000	1.8457106382
0.3950000000	1.3006419248
0.4000000000	0.9850470948
0.4050000000	0.7793010256
0.4100000000	0.6453557986
0.4150000000	0.5570117223
0.4200000000	0.5011769452
0.4250000000	0.4573259069
0.4300000000	0.4055087598
0.4350000000	0.3644985399
0.4400000000	0.3320640687
0.4450000000	0.3062748942
0.4500000000	0.2859145656
0.4550000000	0.2697694972
0.4600000000	0.2571751473
0.4650000000	0.2474286358
0.4700000000	0.2400646485
0.4750000000	0.2347576251
0.4800000000	0.2312234653
0.4850000000	0.2292130573
0.4900000000	0.2285790889
0.4950000000	0.2292082228
0.5000000000	0.2310036272
0.5050000000	0.2339221434
0.5100000000	0.2379284178
0.5150000000	0.2430014471
0.5200000000	0.2491517524
0.5250000000	0.2563879686
0.5300000000	0.2648163261
0.5350000000	0.2744840614
0.5400000000	0.2854762192
0.5450000000	0.2979043225
0.5500000000	0.3119261622
0.5550000000	0.3277143290
0.5600000000	0.3454789015
0.5650000000	0.3654900072
0.5700000000	0.3881205535
0.5750000000	0.4136469263
0.5800000000	0.4425862663
0.5850000000	0.4756451517
0.5900000000	0.5133001972
0.5950000000	0.5565542853
0.6000000000	0.6067323573
0.6050000000	0.6648274561
0.6100000000	0.7331159206
0.6150000000	0.8134854662
0.6200000000	0.9091765586
0.6250000000	1.0248381552
0.6300000000	1.1652114753
0.6350000000	1.3392055353
0.6400000000	1.5566494662
0.6450000000	1.8353794863
0.6500000000	2.1981796189
0.6550000000	2.6836436997
0.6600000000	3.3569366165
0.6650000000	4.3210134664
0.6700000000	5.7808564639
0.6750000000	8.1280647774
0.6800000000	12.2771995442
0.6850000000	20.6027108355
0.6900000000	41.2911710560
0.6950000000	115.9106079558
0.7000000000	562.1768452120
0.7050000000	273.3164436076
0.7100000000	70.2093788377
0.7150000000	29.8570342862
0.7200000000	16.3053389125
0.7250000000	10.2426875450
0.7300000000	7.0250823400
0.7350000000	5.1229945398
0.7400000000	3.9049657827
0.7450000000	3.0782154207
0.7500000000	2.4925605975
0.7550000000	2.0622967699
0.7600000000	1.7379970639
0.7650000000	1.4865071246
0.7700000000	1.2879814567
0.7750000000	1.1286024053
0.7800000000	0.9990855397
0.7850000000	0.8924415895
0.7900000000	0.8030986744
0.7950000000	0.7284808949
0.8000000000	0.6650356346
0.8050000000	0.6106792766
0.8100000000	0.5644056989
0.8150000000	0.5238488280
0.8200000000	0.4885397231
0.8250000000	0.4589092183
0.8300000000	0.4329727099
0.8350000000	0.4104246808
0.8400000000	0.3924685531
0.8450000000	0.3768008769
0.8500000000	0.3635163638
0.8550000000	0.3551194033
0.8600000000	0.3483933223
0.8650000000	0.3435774420
0.8700000000	0.3452541537
0.8750000000	0.3458414657
0.8800000000	0.3439800407
0.8850000000	0.3290236292
0.8900000000	0.2553333288
0.8950000000	-0.1139670510
0.9000000000	-2.0942580383
0.9050000000	-13.7608231808
0.9100000000	2.6203325828
0.9150000000	6.2070851551
0.9200000000	2.5766807257
0.9250000000	1.3404622523
0.9300000000	0.8182479623
0.9350000000	0.5687505245
0.9400000000	0.4341567169
0.9450000000	0.3595515322
0.9500000000	0.3065692172
0.9550000000	0.2711025836
0.9600000000	0.2491668257
0.9650000000	0.2310662294
0.9700000000	0.2181484724
0.9750000000	0.2093420485
0.9800000000	0.2039762525
0.9850000000	0.2029826123
0.9900000000	0.2049190507
0.9950000000	0.2127799339
1.0000000000	0.2315902187
1.0050000000	0.2755207442
1.0100000000	0.3906593927
1.0150000000	0.7852907843
1.0200000000	1.5077697091
1.0250000000	0.6856541612
1.0300000000	0.3513529775
1.0350000000	0.2517158689
1.0400000000	0.2125351252
1.0450000000	0.1941556423
1.0500000000	0.1849444375
1.0550000000	0.1801133764
1.0600000000	0.1779470601
1.0650000000	0.1775449542
1.0700000000	0.1784077854
1.0750000000	0.1803599706
1.0800000000	0.1830524686
1.0850000000	0.1867155554
1.0900000000	0.1920077514
1.0950000000	0.1981770275
1.1000000000	0.2052838856
1.1050000000	0.2133411922
1.1100000000	0.2224764621
1.1150000000	0.2328112712
1.1200000000	0.2444898836
1.1250000000	0.2576316745
1.1300000000	0.2725771236
1.1350000000	0.2895556928
1.1400000000	0.3089110671
1.1450000000	0.3310802385
1.1500000000	0.3564032423
1.1550000000	0.3859389459
1.1600000000	0.4203568774
1.1650000000	0.4605339972
1.1700000000	0.5066524165
1.1750000000	0.5534262099
1.1800000000	0.5976973250
1.1850000000	0.8307118426
1.1900000000	1.0309036686
1.1950000000	1.4131888840
1.2000000000	1.9246462850
1.2050000000	1.6882722598
1.2100000000	1.6157310876
1.2150000000	1.7987857399
1.2200000000	2.1513726981
1.2250000000	2.6928301954
1.2300000000	3.5161531630
1.2350000000	4.8185636081
1.2400000000	7.0124748777
1.2450000000	11.1435971245
1.2500000000	20.0904483623
1.2550000000	43.4895664750
1.2600000000	105.0455486131
1.2650000000	106.4069000173
1.2700000000	44.2631526403
1.2750000000	20.4319379586
1.2800000000	11.3155874845
1.2850000000	7.1159244533
1.2900000000	4.8773237867
1.2950000000	3.5546718440
1.3000000000	2.7122008145
1.3050000000	2.1449677666
1.3100000000	1.7449772329
1.3150000000	1.4559645202
1.3200000000	1.2417194746
1.3250000000	1.0804928983
1.3300000000	0.9590745681
1.3350000000	0.8693586753
1.3400000000	0.8071371203
1.3450000000	0.7712565107
1.3500000000	0.7669529368
1.3550000000	0.8061464626
1.3600000000	0.9191662059
1.3650000000	1.1831908075
1.3700000000	1.8137091935
1.3750000000	3.3824826301
1.3800000000	5.5250860596
1.3850000000	3.8596832045
1.3900000000	1.9669032378
1.3950000000	1.1412515572
1.4000000000	0.7473987034
1.4050000000	0.5053418384
1.4100000000	0.2862685510
1.4150000000	-0.0405320416
1.4200000000	-0.7721734924
1.4250000000	-2.7108183516
1.4300000000	-3.6448855879
1.4350000000	1.6698922770
1.4400000000	2.1360456021
1.4450000000	1.2806558894
1.4500000000	0.7968785696
1.4550000000	0.5493246228
1.4600000000	0.4056435848
1.4650000000	0.2920884556
1.4700000000	0.1706206544
1.4750000000	0.2005152247
1.4800000000	0.2939788651
1.4850000000	0.2669421244
1.4900000000	0.2363697580
1.4950000000	0.2165953737
1.5000000000	0.2036052088
1.5050000000	0.1950159976
1.5100000000	0.1891727235
1.5150000000	0.1859840720
1.5200000000	0.1836332086
1.5250000000	0.1827842414
1.5300000000	0.1835150448
1.5350000000	0.1861605037
1.5400000000	0.1915563130
1.5450000000	0.2015585185
1.5500000000	0.2203388498
1.5550000000	0.2562127152
1.5600000000	0.3100612061
1.5650000000	0.3186919750
1.5700000000	0.2701028176
1.5750000000	0.2360086184
1.5800000000	0.2213035872
1.5850000000	0.2166802114
1.5900000000	0.2172856955
1.5950000000	0.2210126393
1.6000000000	0.2269429658
1.6050000000	0.2347607296
1.6100000000	0.2442299644
1.6150000000	0.2553156287
1.6200000000	0.2681943663
1.6250000000	0.2830185653
1.6300000000	0.3000386138
1.6350000000	0.3195772954
1.6400000000	0.3420473504
1.6450000000	0.3679759210
1.6500000000	0.3980246932
1.6550000000	0.4330322027
1.6600000000	0.4740848567
1.6650000000	0.5225849740
1.6700000000	0.5798960661
1.6750000000	0.6493641294
1.6800000000	0.7339468046
1.6850000000	0.8382969868
1.6900000000	0.9690209062
1.6950000000	1.1358130344
1.7000000000	1.3532672848
1.7050000000	1.6532519853
1.7100000000	2.0717853298
1.7150000000	2.6801348647
1.7200000000	3.6072844881
1.7250000000	5.0781767917
1.7300000000	7.3385338341
1.7350000000	10.2392465546
1.7400000000	13.9060831146
1.7450000000	20.3407950062
1.7500000000	28.6937103514
1.7550000000	29.1552799288
1.7600000000	20.4543057036
1.7650000000	12.7411398612
1.7700000000	8.1675816283
1.7750000000	5.5668851759
1.7800000000	4.0299831076
1.7850000000	3.0845968737
1.7900000000	2.4983129891
1.7950000000	2.1628473531
1.8000000000	2.0274427757
1.8050000000	1.9845714865
1.8100000000	1.7656965722
1.8150000000	1.3681617750
1.8200000000	1.0505601935
1.8250000000	0.8868084543
1.8300000000	0.7720610550
1.8350000000	0.6700811186
1.8400000000	0.5869237433
1.8450000000	0.5209331205
1.8500000000	0.4677516692
1.8550000000	0.4238178905
1.8600000000	0.3834049974
1.8650000000	0.3492399599
1.8700000000	0.3147113606
1.8750000000	0.2649353672
1.8800000000	0.1514691974
1.8850000000	-0.0972180735
1.8900000000	-0.4317194472
1.8950000000	-0.4891153883
1.9000000000	0.0523435639
1.9050000000	0.5571767830
1.9100000000	0.6160837524
1.9150000000	0.5204759438
1.9200000000	0.4267712637
1.9250000000	0.3602775440
1.9300000000	0.3200077565
1.9350000000	0.2892622938
1.9400000000	0.2688076566
1.9450000000	0.2552655324
1.9500000000	0.2457994621
1.9550000000	0.2378820561
1.9600000000	0.2310493268
1.9650000000	0.2261987889
1.9700000000	0.2236091709
1.9750000000	0.2231080394
1.9800000000	0.2245558590
1.9850000000	0.2279947971
1.9900000000	0.2336506334
1.9950000000	0.2418057183
2.0000000000	0.2522480340
2.0050000000	0.2640946666
2.0100000000	0.2725938537
2.0150000000	0.2782645060
2.0200000000	0.2851024170
2.0250000000	0.2956553836
2.0300000000	0.3106733247
2.0350000000	0.3305318524
2.0400000000	0.3559129279
2.0450000000	0.3879996679
2.0500000000	0.4284911415
2.0550000000	0.4792754157
2.0600000000	0.5412681151
2.0650000000	0.6134945903
2.0700000000	0.6970398399
2.0750000000	0.8012236390
2.0800000000	0.9414328043
2.0850000000	1.1326695943
2.0900000000	1.3836588271
2.0950000000	1.6763680474
2.1000000000	1.9372539304
2.1050000000	2.0636702502
2.1100000000	2.0036383200
2.1150000000	1.8654954124
2.1200000000	1.7678556959
2.1250000000	1.7636927843
2.1300000000	1.8687230326
2.1350000000	2.0954032979
2.1400000000	2.4686839104
2.1450000000	3.0327056303
2.1500000000	3.8492799424
2.1550000000	4.9648369242
2.1600000000	6.2894148286
2.1650000000	7.4027008694
2.1700000000	7.6657574070
2.1750000000	6.8620960387
2.1800000000	5.5399542687
2.1850000000	4.2743384341
2.1900000000	3.2848144947
2.1950000000	2.5699139176
2.2000000000	2.0683535690
2.2050000000	1.7223206225
2.2100000000	1.4821047429
2.2150000000	1.2978564411
2.2200000000	1.1327553562
2.2250000000	0.9757146271
2.2300000000	0.8335237090
2.2350000000	0.7114328004
2.2400000000	0.6080262217
2.2450000000	0.5187387883
2.2500000000	0.4390262919
2.2550000000	0.3663471438
2.2600000000	0.2936664656
2.2650000000	0.2407924133
2.2700000000	0.2120703668
2.2750000000	0.2192990061
2.2800000000	0.2610120835
2.2850000000	0.3141293336
2.2900000000	0.3530095371
2.2950000000	0.3702406190
2.3000000000	0.3722095886
2.3050000000	0.3662610521
2.3100000000	0.3584264142
2.3150000000	0.3514851777
2.3200000000	0.3465362045
2.3250000000	0.3441825729
2.3300000000	0.3449119652
2.3350000000	0.3491283906
2.3400000000	0.3571771266
2.3450000000	0.3694076683
2.3500000000	0.3861903523
2.3550000000	0.4080803921
2.3600000000	0.4347184073
2.3650000000	0.4662702125
2.3700000000	0.5026481427
2.3750000000	0.5442471543
2.3800000000	0.5925688593
2.3850000000	0.6493950039
2.3900000000	0.7151195299
2.3950000000	0.7868158274
2.4000000000	0.8569603573
2.4050000000	0.9174094582
2.4100000000	0.9509151150
2.4150000000	0.9541182123
2.4200000000	0.9352102927
2.4250000000	0.9081599278
2.4300000000	0.8853645705
2.4350000000	0.8743079964
2.4400000000	0.8779767545
2.4450000000	0.8968536632
2.4500000000	0.9309993599
2.4550000000	0.9811747509
2.4600000000	1.0505962664
2.4650000000	1.1425610455
2.4700000000	1.2607407402
2.4750000000	1.4074285269
2.4800000000	1.5814670099
2.4850000000	1.7754304995
2.4900000000	1.9723329699
2.4950000000	2.1439870528
2.5000000000	2.2551202839
2.5050000000	2.2694083670
2.5100000000	2.1723472414
2.5150000000	1.9904300784
2.5200000000	1.7659883510
2.5250000000	1.5362113871
2.5300000000	1.3237684021
2.5350000000	1.1381842434
2.5400000000	0.9808611671
2.5450000000	0.8494650755
2.5500000000	0.7406134134
2.5550000000	0.6512670111
2.5600000000	0.5765579831
2.5650000000	0.5206470491
2.5700000000	0.4804731462
2.5750000000	0.4546036058
2.5800000000	0.4401671258
2.5850000000	0.4332367032
2.5900000000	0.4301269511
2.5950000000	0.4285430107
2.6000000000	0.4277449457
2.6050000000	0.4311549411
2.6100000000	0.4365581839
2.6150000000	0.4447820428
2.6200000000	0.4562660856
2.6250000000	0.4710373860
2.6300000000	0.4886790017
2.6350000000	0.5083060256
2.6400000000	0.5285663848
2.6450000000	0.5477455286
2.6500000000	0.5640276501
2.6550000000	0.5759239582
2.6600000000	0.5827428845
2.6650000000	0.5848906072
2.6700000000	0.5837851535
2.6750000000	0.5814993564
2.6800000000	0.5800417758
2.6850000000	0.5812890336
2.6900000000	0.5865480246
2.6950000000	0.5966219285
2.7000000000	0.6118958590
2.7050000000	0.6347583125
2.7100000000	0.6641807621
2.7150000000	0.6996875803
2.7200000000	0.7402955756
2.7250000000	0.7843357162
2.7300000000	0.8292883029
2.7350000000	0.8717562591
2.7400000000	0.9076987404
2.7450000000	0.9330129643
2.7500000000	0.9443920061
2.7550000000	0.9401697973
2.7600000000	0.9207719822
2.7650000000	0.8885623484
2.7700000000	0.8471579907
2.7750000000	0.8005664356
2.7800000000	0.7524623591
2.7850000000	0.7057854919
2.7900000000	0.6622401082
2.7950000000	0.6236911682
2.8000000000	0.5905245157
2.8050000000	0.5598058067
2.8100000000	0.5355860232
2.8150000000	0.5169117432
2.8200000000	0.5027472107
2.8250000000	0.4921419826
2.8300000000	0.4842882523
2.8350000000	0.4785159674
2.8400000000	0.4742589403
2.8450000000	0.4710364677
2.8500000000	0.4684625418
2.8550000000	0.4662809069
2.8600000000	0.4644047941
2.8650000000	0.4629297376
2.8700000000	0.4621092972
2.8750000000	0.4622922228
2.8800000000	0.4638452130
2.8850000000	0.4670832761
2.8900000000	0.4722212023
2.8950000000	0.4793443312
2.9000000000	0.4883941310
2.9050000000	0.5019304723
2.9100000000	0.5167744993
2.9150000000	0.5319351670
2.9200000000	0.5461600098
2.9250000000	0.5581035760
2.9300000000	0.5665166514
2.9350000000	0.5704652195
2.9400000000	0.5695112065
2.9450000000	0.5637961393
2.9500000000	0.5539882323
2.9550000000	0.5411120827
2.9600000000	0.5263327297
2.9650000000	0.5107537266
2.9700000000	0.4952826238
2.9750000000	0.4805721283
2.9800000000	0.4670240850
2.9850000000	0.4548328743
2.9900000000	0.4440437053
2.9950000000	0.4346092695
3.0000000000	0.4264359857
