# energy (eV)    P(omega), $W$ = 300 nm, $h$ = 300 nm, $s$ = 20 nm, $d/W = 5$, $E_{\rm e}$ = 200 keV
0.2000000000	0.4598757950
0.2050000000	0.4664885743
0.2100000000	0.4727048377
0.2150000000	0.4785369556
0.2200000000	0.4839955886
0.2250000000	0.4890895567
0.2300000000	0.4938253344
0.2350000000	0.4982069752
0.2400000000	0.5022356031
0.2450000000	0.5059084970
0.2500000000	0.5092195571
0.2550000000	0.5121571074
0.2600000000	0.5147041118
0.2650000000	0.5168367894
0.2700000000	0.5185225446
0.2750000000	0.5197187741
0.2800000000	0.5203702293
0.2850000000	0.5204062170
0.2900000000	0.5197359538
0.2950000000	0.5182450112
0.3000000000	0.5157859897
0.3050000000	0.5121726844
0.3100000000	0.5071660177
0.3150000000	0.5345061984
0.3200000000	0.5669810358
0.3250000000	0.6080327182
0.3300000000	0.6629661297
0.3350000000	0.7313664210
0.3400000000	0.8209468257
0.3450000000	0.9296957138
0.3500000000	1.0720175829
0.3550000000	1.2604303082
0.3600000000	1.5066243333
0.3650000000	1.8500078861
0.3700000000	2.3032288275
0.3750000000	2.9341580580
0.3800000000	3.8473187490
0.3850000000	5.2710740835
0.3900000000	7.5220047230
0.3950000000	11.3482961564
0.4000000000	18.6474846919
0.4050000000	35.0230551495
0.4100000000	79.7380688154
0.4150000000	256.1139537008
0.4200000000	163.0251258033
0.4250000000	-307.7403225317
0.4300000000	85.7569394878
0.4350000000	53.5088898345
0.4400000000	32.7595709082
0.4450000000	21.5825973679
0.4500000000	15.1440635111
0.4550000000	11.1794293082
0.4600000000	8.5958091336
0.4650000000	6.8343123085
0.4700000000	5.5887471651
0.4750000000	4.6876334185
0.4800000000	4.0193914759
0.4850000000	3.5165516689
0.4900000000	3.1328093443
0.4950000000	2.8370665828
0.5000000000	2.6080735017
0.5050000000	2.4302197097
0.5100000000	2.2934748840
0.5150000000	2.1904577540
0.5200000000	2.1134077279
0.5250000000	2.0588682077
0.5300000000	2.0230985471
0.5350000000	2.0033703950
0.5400000000	1.9976760274
0.5450000000	2.0043386030
0.5500000000	2.0228594455
0.5550000000	2.0523033560
0.5600000000	2.0922142641
0.5650000000	2.1424000142
0.5700000000	2.2026982911
0.5750000000	2.2735397434
0.5800000000	2.3556264593
0.5850000000	2.4494186404
0.5900000000	2.5557937753
0.5950000000	2.6758387944
0.6000000000	2.8109369380
0.6050000000	2.9630710711
0.6100000000	3.1341515460
0.6150000000	3.3267706218
0.6200000000	3.5443881507
0.6250000000	3.7903176559
0.6300000000	4.0694552593
0.6350000000	4.3879048430
0.6400000000	4.7520195382
0.6450000000	5.1709660397
0.6500000000	5.6567980365
0.6550000000	6.2220686954
0.6600000000	6.8860648286
0.6650000000	7.6735460787
0.6700000000	8.6136302229
0.6750000000	9.7506940959
0.6800000000	11.1444870669
0.6850000000	12.8732249636
0.6900000000	15.0581518393
0.6950000000	17.8687744600
0.7000000000	21.5745173340
0.7050000000	26.5872502067
0.7100000000	33.6050442312
0.7150000000	43.8707110135
0.7200000000	59.6984956011
0.7250000000	85.9812579958
0.7300000000	134.2417660870
0.7350000000	237.5448078832
0.7400000000	520.9691319964
0.7450000000	1729.5635344834
0.7500000000	5362.1496895064
0.7550000000	1349.9754919822
0.7600000000	447.4203105558
0.7650000000	214.5432930784
0.7700000000	124.8681429937
0.7750000000	81.5623546199
0.7800000000	57.4448289845
0.7850000000	42.6989050316
0.7900000000	33.0155291852
0.7950000000	26.3347303734
0.8000000000	21.5305080339
0.8050000000	17.9512286055
0.8100000000	15.2208992586
0.8150000000	13.0556748047
0.8200000000	11.3462883857
0.8250000000	9.9695241753
0.8300000000	8.8413631694
0.8350000000	7.9136015177
0.8400000000	7.1356860905
0.8450000000	6.4827750315
0.8500000000	5.9308273312
0.8550000000	5.4543895051
0.8600000000	5.0476625475
0.8650000000	4.7003278054
0.8700000000	4.3933380675
0.8750000000	4.1323346747
0.8800000000	3.9110660393
0.8850000000	3.7126655541
0.8900000000	3.5539333877
0.8950000000	3.4095192365
0.9000000000	3.2955230976
0.9050000000	3.2178788308
0.9100000000	3.1467682115
0.9150000000	3.1046930490
0.9200000000	3.1021789333
0.9250000000	3.1008496864
0.9300000000	3.0574766312
0.9350000000	2.9217069311
0.9400000000	2.1553343125
0.9450000000	-1.3368841912
0.9500000000	-19.7850690091
0.9550000000	-113.4238494115
0.9600000000	26.7900696303
0.9650000000	47.0866406991
0.9700000000	20.8985970890
0.9750000000	10.9760980302
0.9800000000	6.8804463184
0.9850000000	4.9643721620
0.9900000000	3.8598155898
0.9950000000	3.1898174265
1.0000000000	2.7619432300
1.0050000000	2.4907976158
1.0100000000	2.2803590752
1.0150000000	2.1265317636
1.0200000000	2.0229671496
1.0250000000	1.9358155955
1.0300000000	1.8694629844
1.0350000000	1.8190898643
1.0400000000	1.7869170422
1.0450000000	1.7598705575
1.0500000000	1.7416740963
1.0550000000	1.7312847291
1.0600000000	1.7311072448
1.0650000000	1.7344510146
1.0700000000	1.7440180102
1.0750000000	1.7598398253
1.0800000000	1.7836874760
1.0850000000	1.8140039321
1.0900000000	1.8591849320
1.0950000000	1.9129138536
1.1000000000	1.9770757621
1.1050000000	2.0508509180
1.1100000000	2.1366476398
1.1150000000	2.2363683406
1.1200000000	2.3523455841
1.1250000000	2.4872460049
1.1300000000	2.6450944798
1.1350000000	2.8307520819
1.1400000000	3.0498456327
1.1450000000	3.3122408815
1.1500000000	3.6290008046
1.1550000000	4.0159631037
1.1600000000	4.4954668385
1.1650000000	5.0965836651
1.1700000000	5.8733412959
1.1750000000	6.8978391571
1.1800000000	8.2891048657
1.1850000000	10.2426710905
1.1900000000	13.1275972512
1.1950000000	17.6512588682
1.2000000000	25.3180137428
1.2050000000	39.7988710081
1.2100000000	71.6466140797
1.2150000000	157.7418480148
1.2200000000	386.8832546388
1.2250000000	347.9310597491
1.2300000000	139.1947282542
1.2350000000	65.6241727921
1.2400000000	37.7713917949
1.2450000000	25.0066206064
1.2500000000	18.2999624011
1.2550000000	14.4601476047
1.2600000000	12.1585705914
1.2650000000	10.7570927078
1.2700000000	9.9736938774
1.2750000000	9.6264091348
1.2800000000	9.6329002742
1.2850000000	9.9628856957
1.2900000000	10.6252542998
1.2950000000	11.6577068796
1.3000000000	13.1790024961
1.3050000000	15.3436989144
1.3100000000	18.4314482837
1.3150000000	22.9240840651
1.3200000000	29.6843118396
1.3250000000	40.3595746592
1.3300000000	58.5457596444
1.3350000000	92.5919343181
1.3400000000	165.3532574840
1.3450000000	346.0238979741
1.3500000000	735.0683994591
1.3550000000	685.9970418473
1.3600000000	316.4649914907
1.3650000000	155.5133523442
1.3700000000	89.1848182371
1.3750000000	57.3484342213
1.3800000000	39.9888729924
1.3850000000	29.5333596489
1.3900000000	22.7981528021
1.3950000000	18.2058647682
1.4000000000	14.9447334672
1.4050000000	12.5566458269
1.4100000000	10.7668488014
1.4150000000	9.4160398707
1.4200000000	8.3997072677
1.4250000000	7.7178440504
1.4300000000	7.4650418068
1.4350000000	7.5968321630
1.4400000000	5.8438263616
1.4450000000	0.4832283829
1.4500000000	-8.2289599266
1.4550000000	-2.3151687561
1.4600000000	9.9360928855
1.4650000000	5.3845685270
1.4700000000	-5.0605502383
1.4750000000	-22.1820329914
1.4800000000	-9.8718311558
1.4850000000	16.2316369809
1.4900000000	13.1570569225
1.4950000000	8.5161445550
1.5000000000	5.9834727748
1.5050000000	4.6195814873
1.5100000000	3.8421236739
1.5150000000	3.3698700315
1.5200000000	3.0646969496
1.5250000000	2.8749681620
1.5300000000	2.7299169390
1.5350000000	2.6297768522
1.5400000000	2.5636101096
1.5450000000	2.5255298365
1.5500000000	2.5117225781
1.5550000000	2.5222284499
1.5600000000	2.5637093501
1.5650000000	2.6325758894
1.5700000000	2.7444426932
1.5750000000	2.9182527005
1.5800000000	3.1895961122
1.5850000000	3.6277620066
1.5900000000	4.3787409094
1.5950000000	5.7656118528
1.6000000000	8.4708178964
1.6050000000	12.9436795814
1.6100000000	15.0159288833
1.6150000000	11.1345030135
1.6200000000	7.4933397970
1.6250000000	5.5719818473
1.6300000000	4.6080889702
1.6350000000	4.1127620017
1.6400000000	3.8627521184
1.6450000000	3.7543137984
1.6500000000	3.7355062384
1.6550000000	3.7820365482
1.6600000000	3.8794156496
1.6650000000	4.0210652602
1.6700000000	4.2045340454
1.6750000000	4.4299134516
1.6800000000	4.6992784859
1.6850000000	5.0158146595
1.6900000000	5.3823719315
1.6950000000	5.7939534257
1.7000000000	6.2440364330
1.7050000000	6.7067695933
1.7100000000	7.2357577206
1.7150000000	8.5378402631
1.7200000000	10.8156214042
1.7250000000	12.9087154989
1.7300000000	15.1597612984
1.7350000000	17.6326091152
1.7400000000	20.0565233286
1.7450000000	23.1688433082
1.7500000000	27.8763893948
1.7550000000	34.8839194895
1.7600000000	45.3689401976
1.7650000000	61.5319088397
1.7700000000	87.5676436138
1.7750000000	131.4309659934
1.7800000000	206.1728134508
1.7850000000	316.3985437907
1.7900000000	393.1957745717
1.7950000000	334.8103019850
1.8000000000	222.8225316049
1.8050000000	140.7149836720
1.8100000000	92.7746322384
1.8150000000	64.6749597697
1.8200000000	47.3819903098
1.8250000000	36.1708423645
1.8300000000	28.5587546280
1.8350000000	23.1856958601
1.8400000000	19.2710132099
1.8450000000	16.3411408525
1.8500000000	14.0976184319
1.8550000000	12.3536820739
1.8600000000	10.9790271474
1.8650000000	9.8850730734
1.8700000000	9.0087911523
1.8750000000	8.3038581744
1.8800000000	7.7334755243
1.8850000000	7.2650425851
1.8900000000	6.8609241445
1.8950000000	6.4649334599
1.9000000000	5.9800910592
1.9050000000	5.0648840177
1.9100000000	3.8034914341
1.9150000000	3.1165351749
1.9200000000	7.7144334044
1.9250000000	20.4850833726
1.9300000000	30.6143208897
1.9350000000	30.1530356333
1.9400000000	23.7225589152
1.9450000000	17.4867958179
1.9500000000	13.1080627405
1.9550000000	10.2386467102
1.9600000000	8.3422465811
1.9650000000	7.0730302489
1.9700000000	6.1565281003
1.9750000000	5.4846990861
1.9800000000	4.9718273265
1.9850000000	4.5557353818
1.9900000000	4.1888606373
1.9950000000	3.8297129408
2.0000000000	3.4722253342
2.0050000000	3.2440203565
2.0100000000	3.3749986982
2.0150000000	3.7355785897
2.0200000000	3.9581511956
2.0250000000	4.0177421321
2.0300000000	4.0318071708
2.0350000000	4.0569454137
2.0400000000	4.1142500176
2.0450000000	4.2091414219
2.0500000000	4.3451737349
2.0550000000	4.5255847895
2.0600000000	4.7503859430
2.0650000000	5.0059009317
2.0700000000	5.2582042767
2.0750000000	5.4818436335
2.0800000000	5.6991979733
2.0850000000	5.9566008480
2.0900000000	6.2850724528
2.0950000000	6.6976355424
2.1000000000	7.2082342555
2.1050000000	7.8122115878
2.1100000000	8.5520047623
2.1150000000	9.4586324414
2.1200000000	10.5756067076
2.1250000000	11.9639726475
2.1300000000	13.7097732649
2.1350000000	15.9358716616
2.1400000000	18.8196569863
2.1450000000	22.6204898929
2.1500000000	27.7162551612
2.1550000000	34.6417585326
2.1600000000	44.0814796774
2.1650000000	56.6150770041
2.1700000000	72.0109980908
2.1750000000	87.3189139503
2.1800000000	96.7808980784
2.1850000000	97.2817003555
2.1900000000	92.9957696612
2.1950000000	89.6660909601
2.2000000000	88.1953368662
2.2050000000	84.0715479580
2.2100000000	75.2999373462
2.2150000000	64.5090340426
2.2200000000	54.8189142371
2.2250000000	46.8137459493
2.2300000000	39.7752727463
2.2350000000	33.4211543040
2.2400000000	27.9677717419
2.2450000000	23.6053239151
2.2500000000	20.2603558796
2.2550000000	17.7460543253
2.2600000000	15.8616200801
2.2650000000	14.4062323839
2.2700000000	13.1632934340
2.2750000000	11.9198826801
2.2800000000	10.5839638311
2.2850000000	9.3153353784
2.2900000000	8.4409686596
2.2950000000	8.1452993507
2.3000000000	8.2563761253
2.3050000000	8.4231586315
2.3100000000	8.4387627968
2.3150000000	8.3049542117
2.3200000000	8.1112595993
2.3250000000	7.9501454475
2.3300000000	7.8689604926
2.3350000000	7.8759810712
2.3400000000	7.9450845712
2.3450000000	8.0169861809
2.3500000000	8.0170145629
2.3550000000	7.8975290832
2.3600000000	7.6720095430
2.3650000000	7.3993442217
2.3700000000	7.1402335179
2.3750000000	6.9309029508
2.3800000000	6.7830528803
2.3850000000	6.6932379304
2.3900000000	6.6537570169
2.3950000000	6.6557164362
2.4000000000	6.7015876278
2.4050000000	6.8062972167
2.4100000000	6.9748704854
2.4150000000	7.2142815890
2.4200000000	7.5287553808
2.4250000000	7.9255628344
2.4300000000	8.4152561258
2.4350000000	9.0119830374
2.4400000000	9.7340053031
2.4450000000	10.6046222810
2.4500000000	11.6532527567
2.4550000000	12.9168580454
2.4600000000	14.4408617143
2.4650000000	16.2797597877
2.4700000000	18.4960512517
2.4750000000	21.1523522246
2.4800000000	24.3133363600
2.4850000000	28.0046048362
2.4900000000	32.1900525734
2.4950000000	36.7197785013
2.5000000000	41.2767245807
2.5050000000	45.5385128714
2.5100000000	48.4156804437
2.5150000000	49.2803074600
2.5200000000	47.9837187840
2.5250000000	44.9261375949
2.5300000000	40.8032520731
2.5350000000	36.2851068339
2.5400000000	31.8444070575
2.5450000000	27.7478417977
2.5500000000	24.1137720141
2.5550000000	20.9690312033
2.5600000000	18.2703380010
2.5650000000	16.0012736274
2.5700000000	14.1085370152
2.5750000000	12.5587732404
2.5800000000	11.3270689237
2.5850000000	10.3862878430
2.5900000000	9.6917467724
2.5950000000	9.1805874887
2.6000000000	8.7873559178
2.6050000000	8.5078542167
2.6100000000	8.2657132524
2.6150000000	8.0571081000
2.6200000000	7.8861760109
2.6250000000	7.7574979608
2.6300000000	7.6741245493
2.6350000000	7.6376183909
2.6400000000	7.6488756994
2.6450000000	7.7087440777
2.6500000000	7.8188708782
2.6550000000	7.9797197140
2.6600000000	8.1937830982
2.6650000000	8.4635790930
2.6700000000	8.7921931751
2.6750000000	9.1833631826
2.6800000000	9.6412117971
2.6850000000	10.1699590726
2.6900000000	10.7730572563
2.6950000000	11.4525257092
2.7000000000	12.2076942028
2.7050000000	13.1244926631
2.7100000000	14.1253033446
2.7150000000	15.1907704778
2.7200000000	16.2927038338
2.7250000000	17.3956211400
2.7300000000	18.4593967680
2.7350000000	19.4415277282
2.7400000000	20.2976920945
2.7450000000	20.9884203195
2.7500000000	21.4525705365
2.7550000000	21.6530332327
2.7600000000	21.5616586838
2.7650000000	21.1750864623
2.7700000000	20.5193069399
2.7750000000	19.6464712748
2.7800000000	18.6245726910
2.7850000000	17.5257579715
2.7900000000	16.4147513799
2.7950000000	15.3434608303
2.8000000000	14.3485892691
2.8050000000	13.3419087895
2.8100000000	12.4802068219
2.8150000000	11.7611828597
2.8200000000	11.1732789667
2.8250000000	10.7012511177
2.8300000000	10.3297394058
2.8350000000	10.0456079513
2.8400000000	9.8350184343
2.8450000000	9.6984580384
2.8500000000	9.6258677717
2.8550000000	9.6134157386
2.8600000000	9.6582371482
2.8650000000	9.7577518345
2.8700000000	9.9090868428
2.8750000000	10.1085998452
2.8800000000	10.3515266223
2.8850000000	10.6316710617
2.8900000000	10.9415893574
2.8950000000	11.2728579154
2.9000000000	11.6166097701
2.9050000000	12.0300944992
2.9100000000	12.4270877750
2.9150000000	12.7950660012
2.9200000000	13.1208621459
2.9250000000	13.3895192965
2.9300000000	13.5872734385
2.9350000000	13.6927628285
2.9400000000	13.6967457339
2.9450000000	13.5952755081
2.9500000000	13.3942190111
2.9550000000	13.1088912111
2.9600000000	12.7614112420
2.9650000000	12.3768467098
2.9700000000	11.9794487753
2.9750000000	11.5899458811
2.9800000000	11.2242193030
2.9850000000	10.8931140343
2.9900000000	10.6031512792
2.9950000000	10.3573958602
3.0000000000	10.1564983676
