# energy (eV)    P(omega), $W$ = 300 nm, $h$ = 300 nm, $s$ = 20 nm, $d/W = 5$, $E_{\rm e}$ = 200 keV
0.2000000000	0.3045395354
0.2050000000	0.3091039294
0.2100000000	0.3133707151
0.2150000000	0.3173495993
0.2200000000	0.3210488812
0.2250000000	0.3244756032
0.2300000000	0.3276351658
0.2350000000	0.3305311333
0.2400000000	0.3331648920
0.2450000000	0.3355354390
0.2500000000	0.3376389017
0.2550000000	0.3394678050
0.2600000000	0.3410109407
0.2650000000	0.3422520422
0.2700000000	0.3431690187
0.2750000000	0.3437326410
0.2800000000	0.3439049174
0.2850000000	0.3436370299
0.2900000000	0.3428664147
0.2950000000	0.3415136928
0.3000000000	0.3394774867
0.3050000000	0.3366285704
0.3100000000	0.3328015444
0.3150000000	0.3517388618
0.3200000000	0.3742293720
0.3250000000	0.4026761033
0.3300000000	0.4407737242
0.3350000000	0.4881950430
0.3400000000	0.5502940824
0.3450000000	0.6256116563
0.3500000000	0.7241374898
0.3550000000	0.8545006535
0.3600000000	1.0247074704
0.3650000000	1.2619855938
0.3700000000	1.5748358584
0.3750000000	2.0100016760
0.3800000000	2.6393469497
0.3850000000	3.6199491100
0.3900000000	5.1690156294
0.3950000000	7.8001788796
0.4000000000	12.8159227027
0.4050000000	24.0606985780
0.4100000000	54.7423186838
0.4150000000	175.6734554462
0.4200000000	111.9317810733
0.4250000000	-210.6628636117
0.4300000000	58.5750454441
0.4350000000	36.4993682871
0.4400000000	22.3105763193
0.4450000000	14.6731840769
0.4500000000	10.2766716588
0.4550000000	7.5711702748
0.4600000000	5.8091412160
0.4650000000	4.6084517622
0.4700000000	3.7598415065
0.4750000000	3.1461163934
0.4800000000	2.6910928662
0.4850000000	2.3486979725
0.4900000000	2.0873343660
0.4950000000	1.8857911425
0.5000000000	1.7295698850
0.5050000000	1.6080333918
0.5100000000	1.5143319437
0.5150000000	1.4434222349
0.5200000000	1.3900347469
0.5250000000	1.3517934199
0.5300000000	1.3261497553
0.5350000000	1.3112392035
0.5400000000	1.3056869938
0.5450000000	1.3083451315
0.5500000000	1.3188489315
0.5550000000	1.3365510918
0.5600000000	1.3611198229
0.5650000000	1.3924058653
0.5700000000	1.4302728480
0.5750000000	1.4749849463
0.5800000000	1.5269719629
0.5850000000	1.5865139612
0.5900000000	1.6541545186
0.5950000000	1.7305780728
0.6000000000	1.8166562791
0.6050000000	1.9136534184
0.6100000000	2.0227748674
0.6150000000	2.1456684356
0.6200000000	2.2845319205
0.6250000000	2.4414722969
0.6300000000	2.6196045405
0.6350000000	2.8228107463
0.6400000000	3.0551298173
0.6450000000	3.3223926561
0.6500000000	3.6322652658
0.6550000000	3.9927274969
0.6600000000	4.4160446069
0.6650000000	4.9179540335
0.6700000000	5.5169563866
0.6750000000	6.2412647419
0.6800000000	7.1288198274
0.6850000000	8.2293238041
0.6900000000	9.6197537613
0.6950000000	11.4077675167
0.7000000000	13.7643803012
0.7050000000	16.9510290670
0.7100000000	21.4106806546
0.7150000000	27.9318624424
0.7200000000	37.9825656358
0.7250000000	54.6658679918
0.7300000000	85.2879150413
0.7350000000	150.8094148064
0.7400000000	330.5018049420
0.7450000000	1096.4088003568
0.7500000000	3396.6035208093
0.7550000000	854.4700519760
0.7600000000	282.9743500589
0.7650000000	135.5821524290
0.7700000000	78.8479640690
0.7750000000	51.4606904827
0.7800000000	36.2142436748
0.7850000000	26.8957335486
0.7900000000	20.7786827359
0.7950000000	16.5599350667
0.8000000000	13.5272630732
0.8050000000	11.2686213586
0.8100000000	9.5462998239
0.8150000000	8.1810047229
0.8200000000	7.1034856778
0.8250000000	6.2358884181
0.8300000000	5.5251967325
0.8350000000	4.9408816413
0.8400000000	4.4510590631
0.8450000000	4.0400368450
0.8500000000	3.6926059586
0.8550000000	3.3927904578
0.8600000000	3.1368484532
0.8650000000	2.9182303111
0.8700000000	2.7250646622
0.8750000000	2.5607481773
0.8800000000	2.4213198244
0.8850000000	2.2963148406
0.8900000000	2.1960345066
0.8950000000	2.1048103175
0.9000000000	2.0325061368
0.9050000000	1.9827012345
0.9100000000	1.9370591018
0.9150000000	1.9093627509
0.9200000000	1.9060038499
0.9250000000	1.9035073061
0.9300000000	1.8755645181
0.9350000000	1.7917726746
0.9400000000	1.3250806371
0.9450000000	-0.7960665373
0.9500000000	-11.9899952152
0.9550000000	-68.7664991585
0.9600000000	16.2263108306
0.9650000000	28.5033703705
0.9700000000	12.6421951834
0.9750000000	6.6368301792
0.9800000000	4.1594052319
0.9850000000	3.0007137621
0.9900000000	2.3331070048
0.9950000000	1.9282886864
1.0000000000	1.6698117405
1.0050000000	1.5059421390
1.0100000000	1.3789048711
1.0150000000	1.2860966737
1.0200000000	1.2235844501
1.0250000000	1.1711167247
1.0300000000	1.1312587443
1.0350000000	1.1011080447
1.0400000000	1.0819403494
1.0450000000	1.0660048941
1.0500000000	1.0554957968
1.0550000000	1.0497906552
1.0600000000	1.0502958370
1.0650000000	1.0530967772
1.0700000000	1.0597897816
1.0750000000	1.0704024365
1.0800000000	1.0859822776
1.0850000000	1.1057535354
1.0900000000	1.1349155725
1.0950000000	1.1695463549
1.1000000000	1.2108071975
1.1050000000	1.2583630160
1.1100000000	1.3137151668
1.1150000000	1.3781084064
1.1200000000	1.4530176780
1.1250000000	1.5403742209
1.1300000000	1.6427609975
1.1350000000	1.7633948181
1.1400000000	1.9059381281
1.1450000000	2.0770813151
1.1500000000	2.2840953005
1.1550000000	2.5374939165
1.1600000000	2.8521101050
1.1650000000	3.2471889860
1.1700000000	3.7587876753
1.1750000000	4.4347676899
1.1800000000	5.3542556788
1.1850000000	6.6473132706
1.1900000000	8.5590575412
1.1950000000	11.5601466056
1.2000000000	16.6504560598
1.2050000000	26.2698227721
1.2100000000	47.4305031942
1.2150000000	104.6273036053
1.2200000000	256.7771298239
1.2250000000	230.6944986361
1.2300000000	92.0189628767
1.2350000000	43.1553864881
1.2400000000	24.6470159935
1.2450000000	16.1487340869
1.2500000000	11.6653330676
1.2550000000	9.0776264446
1.2600000000	7.5027134512
1.2650000000	6.5159019424
1.2700000000	5.9270748434
1.2750000000	5.6129614577
1.2800000000	5.5148488743
1.2850000000	5.6070515341
1.2900000000	5.8874109804
1.2950000000	6.3704849357
1.3000000000	7.1159808916
1.3050000000	8.2004570040
1.3100000000	9.7667070259
1.3150000000	12.0618208690
1.3200000000	15.5300191022
1.3250000000	21.0179669193
1.3300000000	30.3800372081
1.3350000000	47.9155092087
1.3400000000	85.3939545761
1.3450000000	178.4345672609
1.3500000000	378.6755454065
1.3550000000	353.1662678766
1.3600000000	162.8611444830
1.3650000000	80.0195583873
1.3700000000	45.8903746413
1.3750000000	29.5117964030
1.3800000000	20.5813148562
1.3850000000	15.2016798509
1.3900000000	11.7344164946
1.3950000000	9.3687951982
1.4000000000	7.6860496166
1.4050000000	6.4500761760
1.4100000000	5.5178580507
1.4150000000	4.8039328468
1.4200000000	4.2479618480
1.4250000000	3.8337580264
1.4300000000	3.5690550526
1.4350000000	3.3920976514
1.4400000000	2.3275704503
1.4450000000	-0.6179679024
1.4500000000	-5.7476452476
1.4550000000	-1.9236702794
1.4600000000	5.8346041291
1.4650000000	3.3829317850
1.4700000000	-2.1455559892
1.4750000000	-10.8866845690
1.4800000000	-4.8021207902
1.4850000000	8.2343032323
1.4900000000	6.6658500019
1.4950000000	4.3250979177
1.5000000000	3.0453444599
1.5050000000	2.3525097606
1.5100000000	1.9559017718
1.5150000000	1.7127180691
1.5200000000	1.5534253305
1.5250000000	1.4523149975
1.5300000000	1.3726268991
1.5350000000	1.3147323967
1.5400000000	1.2727864890
1.5450000000	1.2433025601
1.5500000000	1.2238723958
1.5550000000	1.2134891909
1.5600000000	1.2142279343
1.5650000000	1.2218913181
1.5700000000	1.2409487186
1.5750000000	1.2749051512
1.5800000000	1.3307434688
1.5850000000	1.4222137444
1.5900000000	1.5784035754
1.5950000000	1.8636121388
1.6000000000	2.4133256133
1.6050000000	3.3153594869
1.6100000000	3.7356836983
1.6150000000	2.9751991993
1.6200000000	2.2703211640
1.6250000000	1.9121819536
1.6300000000	1.7479590181
1.6350000000	1.6804368426
1.6400000000	1.6655885966
1.6450000000	1.6832797597
1.6500000000	1.7237141509
1.6550000000	1.7828685140
1.6600000000	1.8586997572
1.6650000000	1.9509388095
1.6700000000	2.0603566389
1.6750000000	2.1885354692
1.6800000000	2.3377877843
1.6850000000	2.5111995637
1.6900000000	2.7123642646
1.6950000000	2.9433939400
1.7000000000	3.2094429241
1.7050000000	3.5175037353
1.7100000000	3.8909920169
1.7150000000	4.5170114661
1.7200000000	5.4613606962
1.7250000000	6.4838812948
1.7300000000	7.7007796848
1.7350000000	9.0171263762
1.7400000000	10.2314938530
1.7450000000	11.7616420932
1.7500000000	14.1077322948
1.7550000000	17.6269695145
1.7600000000	22.9071532424
1.7650000000	31.0532228891
1.7700000000	44.1756358896
1.7750000000	66.2775070250
1.7800000000	103.9205428591
1.7850000000	159.3910587329
1.7900000000	197.9469451003
1.7950000000	168.4193883341
1.8000000000	111.9784231673
1.8050000000	70.6337345785
1.8100000000	46.5050764809
1.8150000000	32.3662633724
1.8200000000	23.6657235841
1.8250000000	18.0241446435
1.8300000000	14.1916093634
1.8350000000	11.4835110948
1.8400000000	9.5069069611
1.8450000000	8.0231307648
1.8500000000	6.8816125256
1.8550000000	5.9879462846
1.8600000000	5.2757241089
1.8650000000	4.6992980834
1.8700000000	4.2253990245
1.8750000000	3.8285004708
1.8800000000	3.4868642848
1.8850000000	3.1792842153
1.8900000000	2.8795020901
1.8950000000	2.5477412977
1.9000000000	2.1166088822
1.9050000000	1.3662865631
1.9100000000	0.2885943937
1.9150000000	-0.7510327419
1.9200000000	0.4898766133
1.9250000000	5.4759365975
1.9300000000	9.4592535913
1.9350000000	9.5512757143
1.9400000000	7.6693266845
1.9450000000	5.8146700437
1.9500000000	4.4999676078
1.9550000000	3.6302335109
1.9600000000	3.0505826546
1.9650000000	2.6643643680
1.9700000000	2.3799782439
1.9750000000	2.1714407518
1.9800000000	2.0131754187
1.9850000000	1.8868426340
1.9900000000	1.7787965718
1.9950000000	1.6774743473
2.0000000000	1.5807919645
2.0050000000	1.5233708351
2.0100000000	1.5620718235
2.0150000000	1.6629140579
2.0200000000	1.7311468708
2.0250000000	1.7609776394
2.0300000000	1.7838700088
2.0350000000	1.8143734877
2.0400000000	1.8595945708
2.0450000000	1.9225674030
2.0500000000	2.0063865805
2.0550000000	2.1141304898
2.0600000000	2.2459745263
2.0650000000	2.3913633231
2.0700000000	2.5240242694
2.0750000000	2.6234335696
2.0800000000	2.7048254740
2.0850000000	2.8013232096
2.0900000000	2.9339849295
2.0950000000	3.1100939363
2.1000000000	3.3352000252
2.1050000000	3.6058886980
2.1100000000	3.9410174921
2.1150000000	4.3540988766
2.1200000000	4.8645764837
2.1250000000	5.5000398895
2.1300000000	6.2995896435
2.1350000000	7.3191674168
2.1400000000	8.6395715117
2.1450000000	10.3789055778
2.1500000000	12.7091530916
2.1550000000	15.8735668417
2.1600000000	20.1833675100
2.1650000000	25.9022937883
2.1700000000	32.9298198608
2.1750000000	39.9374624325
2.1800000000	44.3387513870
2.1850000000	44.7523901056
2.1900000000	43.0835160968
2.1950000000	41.9005608121
2.2000000000	41.4881796378
2.2050000000	39.5381181393
2.2100000000	35.0629851336
2.2150000000	29.4313867672
2.2200000000	24.3086450867
2.2250000000	20.1584359691
2.2300000000	16.7534720090
2.2350000000	13.9059619580
2.2400000000	11.5690530860
2.2450000000	9.7240691861
2.2500000000	8.2941795633
2.2550000000	7.1872331064
2.2600000000	6.3180512543
2.2650000000	5.6099405859
2.2700000000	4.9904081544
2.2750000000	4.3983068943
2.2800000000	3.8196122509
2.2850000000	3.3250052642
2.2900000000	3.0346518136
2.2950000000	3.0022589844
2.3000000000	3.1347402622
2.3050000000	3.2741479198
2.3100000000	3.3236194627
2.3150000000	3.2862299323
2.3200000000	3.2038662524
2.3250000000	3.1195765196
2.3300000000	3.0562175471
2.3350000000	3.0204839400
2.3400000000	3.0074073980
2.3450000000	3.0024765304
2.3500000000	2.9869932307
2.3550000000	2.9490128967
2.3600000000	2.8918401658
2.3650000000	2.8300444936
2.3700000000	2.7784303969
2.3750000000	2.7452175085
2.3800000000	2.7317031105
2.3850000000	2.7345435874
2.3900000000	2.7494788169
2.3950000000	2.7724340039
2.4000000000	2.8054451221
2.4050000000	2.8571345232
2.4100000000	2.9311786812
2.4150000000	3.0326460968
2.4200000000	3.1650301562
2.4250000000	3.3320681591
2.4300000000	3.5383389447
2.4350000000	3.7897090949
2.4400000000	4.0937320104
2.4450000000	4.4600929419
2.4500000000	4.9010670797
2.4550000000	5.4321433363
2.4600000000	6.0723688168
2.4650000000	6.8447051473
2.4700000000	7.7755808607
2.4750000000	8.8916425187
2.4800000000	10.2210260719
2.4850000000	11.7754297475
2.4900000000	13.5403143363
2.4950000000	15.4513095280
2.5000000000	17.3693831870
2.5050000000	19.1470412850
2.5100000000	20.3123932194
2.5150000000	20.6007816828
2.5200000000	19.9681117280
2.5250000000	18.6106255031
2.5300000000	16.8399442831
2.5350000000	14.9386306270
2.5400000000	13.0930521114
2.5450000000	11.4003930360
2.5500000000	9.8997486432
2.5550000000	8.5978134250
2.5600000000	7.4760118779
2.5650000000	6.5302817700
2.5700000000	5.7405627712
2.5750000000	5.0947335496
2.5800000000	4.5835271391
2.5850000000	4.1960008890
2.5900000000	3.9130126846
2.5950000000	3.7070828175
2.6000000000	3.5494880504
2.6050000000	3.4370375132
2.6100000000	3.3373210610
2.6150000000	3.2490028729
2.6200000000	3.1741595793
2.6250000000	3.1149168778
2.6300000000	3.0726370712
2.6350000000	3.0479712603
2.6400000000	3.0412643536
2.6450000000	3.0528650805
2.6500000000	3.0834911767
2.6550000000	3.1333027505
2.6600000000	3.2033949994
2.6650000000	3.2948082095
2.6700000000	3.4087698987
2.6750000000	3.5467151206
2.6800000000	3.7101769289
2.6850000000	3.9007285342
2.6900000000	4.1197613004
2.6950000000	4.3683444841
2.7000000000	4.6468774904
2.7050000000	4.9879633564
2.7100000000	5.3656995203
2.7150000000	5.7755038570
2.7200000000	6.2096569082
2.7250000000	6.6571683984
2.7300000000	7.1037854519
2.7350000000	7.5320392602
2.7400000000	7.9211264180
2.7450000000	8.2502708352
2.7500000000	8.4886305852
2.7550000000	8.6157781766
2.7600000000	8.6162873115
2.7650000000	8.4867526820
2.7700000000	8.2375093940
2.7750000000	7.8908861892
2.7800000000	7.4763557004
2.7850000000	7.0252651687
2.7900000000	6.5656982714
2.7950000000	6.1201623839
2.8000000000	5.7045835235
2.8050000000	5.2824567452
2.8100000000	4.9190636983
2.8150000000	4.6135875506
2.8200000000	4.3612577006
2.8250000000	4.1557297038
2.8300000000	3.9906033385
2.8350000000	3.8604319628
2.8400000000	3.7594231656
2.8450000000	3.6879257675
2.8500000000	3.6416866307
2.8550000000	3.6190944240
2.8600000000	3.6189654056
2.8650000000	3.6402935627
2.8700000000	3.6821003442
2.8750000000	3.7432660874
2.8800000000	3.8224312805
2.8850000000	3.9178682886
2.8900000000	4.0275111120
2.8950000000	4.1489201609
2.9000000000	4.2793989989
2.9050000000	4.4444807684
2.9100000000	4.6095271297
2.9150000000	4.7686394916
2.9200000000	4.9150392888
2.9250000000	5.0409045859
2.9300000000	5.1389480296
2.9350000000	5.1989576683
2.9400000000	5.2160629190
2.9450000000	5.1878811721
2.9500000000	5.1163509054
2.9550000000	5.0075598417
2.9600000000	4.8705670340
2.9650000000	4.7158054174
2.9700000000	4.5534765267
2.9750000000	4.3923798562
2.9800000000	4.2393200048
2.9850000000	4.0990003540
2.9900000000	3.9743177137
2.9950000000	3.8666791201
3.0000000000	3.7764921337
