# energy (eV)    P(omega), $W$ = 300 nm, $h$ = 300 nm, $s$ = 20 nm, $d/W = 5$, $E_{\rm e}$ = 200 keV
0.2000000000	0.1294300373
0.2050000000	0.1313692781
0.2100000000	0.1331821992
0.2150000000	0.1348729203
0.2200000000	0.1364449617
0.2250000000	0.1379013116
0.2300000000	0.1392442557
0.2350000000	0.1404753094
0.2400000000	0.1415950521
0.2450000000	0.1426030615
0.2500000000	0.1434976817
0.2550000000	0.1442757405
0.2600000000	0.1449324743
0.2650000000	0.1454609625
0.2700000000	0.1458518281
0.2750000000	0.1460926429
0.2800000000	0.1461672713
0.2850000000	0.1460549653
0.2900000000	0.1457291498
0.2950000000	0.1451561017
0.3000000000	0.1442927441
0.3050000000	0.1430841840
0.3100000000	0.1414601449
0.3150000000	0.1495055064
0.3200000000	0.1590604264
0.3250000000	0.1711457084
0.3300000000	0.1873309011
0.3350000000	0.2074772101
0.3400000000	0.2338591386
0.3450000000	0.2658571764
0.3500000000	0.3077152420
0.3550000000	0.3630995407
0.3600000000	0.4354119113
0.3650000000	0.5362201886
0.3700000000	0.6691370859
0.3750000000	0.8540224335
0.3800000000	1.1214096137
0.3850000000	1.5380370590
0.3900000000	2.1961936405
0.3950000000	3.3141141357
0.4000000000	5.4452057979
0.4050000000	10.2229313209
0.4100000000	23.2591773274
0.4150000000	74.6418138735
0.4200000000	47.5581531110
0.4250000000	-89.5106557274
0.4300000000	24.8891497839
0.4350000000	15.5092079916
0.4400000000	9.4803189225
0.4450000000	6.2351234386
0.4500000000	4.3669911418
0.4550000000	3.2173811940
0.4600000000	2.4686626690
0.4650000000	1.9584639372
0.4700000000	1.5978694462
0.4750000000	1.3370820106
0.4800000000	1.1437304658
0.4850000000	0.9982378350
0.4900000000	0.8871778997
0.4950000000	0.8015377401
0.5000000000	0.7351567095
0.5050000000	0.6835149138
0.5100000000	0.6437017502
0.5150000000	0.6135742947
0.5200000000	0.5908932819
0.5250000000	0.5746492637
0.5300000000	0.5637592035
0.5350000000	0.5574308900
0.5400000000	0.5550802488
0.5450000000	0.5562193884
0.5500000000	0.5606935827
0.5550000000	0.5682277151
0.5600000000	0.5786809999
0.5650000000	0.5919900665
0.5700000000	0.6080970801
0.5750000000	0.6271144902
0.5800000000	0.6492251480
0.5850000000	0.6745482329
0.5900000000	0.7033150373
0.5950000000	0.7358166314
0.6000000000	0.7724237807
0.6050000000	0.8136741264
0.6100000000	0.8600804266
0.6150000000	0.9123433907
0.6200000000	0.9713977513
0.6250000000	1.0381396527
0.6300000000	1.1138937605
0.6350000000	1.2003110802
0.6400000000	1.2991094035
0.6450000000	1.4127684275
0.6500000000	1.5445484311
0.6550000000	1.6978431769
0.6600000000	1.8778689579
0.6650000000	2.0913185530
0.6700000000	2.3460604405
0.6750000000	2.6540932492
0.6800000000	3.0315530143
0.6850000000	3.4995771639
0.6900000000	4.0909039826
0.6950000000	4.8513200778
0.7000000000	5.8535577513
0.7050000000	7.2088047917
0.7100000000	9.1054547662
0.7150000000	11.8788686849
0.7200000000	16.1533827510
0.7250000000	23.2487447058
0.7300000000	36.2722707312
0.7350000000	64.1386514225
0.7400000000	140.5624413121
0.7450000000	466.3071701047
0.7500000000	1444.6031906708
0.7550000000	363.4165502936
0.7600000000	120.3536173495
0.7650000000	57.6658658472
0.7700000000	33.5359815128
0.7750000000	21.8877139788
0.7800000000	15.4031134352
0.7850000000	11.4397574426
0.7900000000	8.8380361796
0.7950000000	7.0436982318
0.8000000000	5.7538220174
0.8050000000	4.7931576039
0.8100000000	4.0606018189
0.8150000000	3.4798973434
0.8200000000	3.0215914895
0.8250000000	2.6525711631
0.8300000000	2.3502872373
0.8350000000	2.1017551107
0.8400000000	1.8934138175
0.8450000000	1.7185891115
0.8500000000	1.5708122555
0.8550000000	1.4432876548
0.8600000000	1.3344243321
0.8650000000	1.2414366709
0.8700000000	1.1592747814
0.8750000000	1.0893841044
0.8800000000	1.0300799921
0.8850000000	0.9769106474
0.8900000000	0.9342589285
0.8950000000	0.8954590080
0.9000000000	0.8647077034
0.9050000000	0.8435281945
0.9100000000	0.8241190805
0.9150000000	0.8123447973
0.9200000000	0.8109250966
0.9250000000	0.8098716645
0.9300000000	0.7979898076
0.9350000000	0.7623414944
0.9400000000	0.5637589544
0.9450000000	-0.3388420396
0.9500000000	-5.1022008387
0.9550000000	-29.2625603136
0.9600000000	6.9049175094
0.9650000000	12.1293891538
0.9700000000	5.3798228552
0.9750000000	2.8242765952
0.9800000000	1.7700165063
0.9850000000	1.2769374340
0.9900000000	0.9928368728
0.9950000000	0.8205654291
1.0000000000	0.7105696680
1.0050000000	0.6408347970
1.0100000000	0.5867732252
1.0150000000	0.5472778125
1.0200000000	0.5206753372
1.0250000000	0.4983466166
1.0300000000	0.4813838900
1.0350000000	0.4685517836
1.0400000000	0.4603936515
1.0450000000	0.4536103037
1.0500000000	0.4491358382
1.0550000000	0.4467052801
1.0600000000	0.4469173403
1.0650000000	0.4481055893
1.0700000000	0.4509494377
1.0750000000	0.4554606794
1.0800000000	0.4620851578
1.0850000000	0.4704919520
1.0900000000	0.4828929836
1.0950000000	0.4976198535
1.1000000000	0.5151666319
1.1050000000	0.5353899455
1.1100000000	0.5589285019
1.1150000000	0.5863115897
1.1200000000	0.6181665846
1.1250000000	0.6553138068
1.1300000000	0.6988517626
1.1350000000	0.7501480891
1.1400000000	0.8107601172
1.1450000000	0.8835314972
1.1500000000	0.9715538186
1.1550000000	1.0792968256
1.1600000000	1.2130664867
1.1650000000	1.3810449939
1.1700000000	1.5985606602
1.1750000000	1.8859613803
1.1800000000	2.2768860386
1.1850000000	2.8266279982
1.1900000000	3.6393960585
1.1950000000	4.9152800749
1.2000000000	7.0793610777
1.2050000000	11.1688987740
1.2100000000	20.1650514010
1.2150000000	44.4815087016
1.2200000000	109.1664278151
1.2250000000	98.0788290064
1.2300000000	39.1227194259
1.2350000000	18.3489124055
1.2400000000	10.4803080658
1.2450000000	6.8674325081
1.2500000000	4.9614783038
1.2550000000	3.8614946558
1.2600000000	3.1921276633
1.2650000000	2.7728270858
1.2700000000	2.5227789239
1.2750000000	2.3895856900
1.2800000000	2.3483028176
1.2850000000	2.3880340288
1.2900000000	2.5078957108
1.2950000000	2.7141203619
1.3000000000	3.0321733952
1.3050000000	3.4947118025
1.3100000000	4.1626243861
1.3150000000	5.1412642719
1.3200000000	6.6200303386
1.3250000000	8.9599130655
1.3300000000	12.9515269193
1.3350000000	20.4279026995
1.3400000000	36.4071032507
1.3450000000	76.0757378561
1.3500000000	161.4506895970
1.3550000000	150.5758798089
1.3600000000	69.4377401233
1.3650000000	34.1173124886
1.3700000000	19.5659054928
1.3750000000	12.5826764668
1.3800000000	8.7750419361
1.3850000000	6.4813636011
1.3900000000	5.0030592313
1.3950000000	3.9944580022
1.4000000000	3.2770199338
1.4050000000	2.7500802139
1.4100000000	2.3526702427
1.4150000000	2.0483680584
1.4200000000	1.8114791420
1.4250000000	1.6351773548
1.4300000000	1.5229553980
1.4350000000	1.4486694193
1.4400000000	0.9956137781
1.4450000000	-0.2592109068
1.4500000000	-2.4429584653
1.4550000000	-0.8165223065
1.4600000000	2.4839141724
1.4650000000	1.4391904181
1.4700000000	-0.9171400647
1.4750000000	-4.6443321190
1.4800000000	-2.0488871474
1.4850000000	3.5112742189
1.4900000000	2.8424823852
1.4950000000	1.8442447803
1.5000000000	1.2984897591
1.5050000000	1.0030424944
1.5100000000	0.8339206395
1.5150000000	0.7302289105
1.5200000000	0.6623133537
1.5250000000	0.6192083894
1.5300000000	0.5852419166
1.5350000000	0.5605704312
1.5400000000	0.5427020317
1.5450000000	0.5301510346
1.5500000000	0.5218909824
1.5550000000	0.5174947719
1.5600000000	0.5178494629
1.5650000000	0.5211703451
1.5700000000	0.5293695288
1.5750000000	0.5439534206
1.5800000000	0.5679209585
1.5850000000	0.6071768941
1.5900000000	0.6742122425
1.5950000000	0.7966399650
1.6000000000	1.0326495992
1.6050000000	1.4199823880
1.6100000000	1.6005158881
1.6150000000	1.2739176913
1.6200000000	0.9711172773
1.6250000000	0.8171885951
1.6300000000	0.7465194810
1.6350000000	0.7173625922
1.6400000000	0.7108086075
1.6450000000	0.7182078964
1.6500000000	0.7353501927
1.6550000000	0.7605041914
1.6600000000	0.7927877180
1.6650000000	0.8320798441
1.6700000000	0.8787051485
1.6750000000	0.9333349425
1.6800000000	0.9969520276
1.6850000000	1.0708684894
1.6900000000	1.1566098662
1.6950000000	1.2550616747
1.7000000000	1.3683943715
1.7050000000	1.4995237539
1.7100000000	1.6584548050
1.7150000000	1.9255621411
1.7200000000	2.3290021945
1.7250000000	2.7651550493
1.7300000000	3.2837907302
1.7350000000	3.8449028177
1.7400000000	4.3628566841
1.7450000000	5.0156167607
1.7500000000	6.0163046383
1.7550000000	7.5172550709
1.7600000000	9.7691809644
1.7650000000	13.2433389611
1.7700000000	18.8398202599
1.7750000000	28.2659228545
1.7800000000	44.3201828094
1.7850000000	67.9778574765
1.7900000000	84.4220800451
1.7950000000	71.8296011891
1.8000000000	47.7584701185
1.8050000000	30.1254545186
1.8100000000	19.8348066548
1.8150000000	13.8047056616
1.8200000000	10.0939829613
1.8250000000	7.6878858449
1.8300000000	6.0533395157
1.8350000000	4.8983651717
1.8400000000	4.0553767941
1.8450000000	3.4225862114
1.8500000000	2.9357776111
1.8550000000	2.5546889568
1.8600000000	2.2510012313
1.8650000000	2.0052492006
1.8700000000	1.8032495300
1.8750000000	1.6341230876
1.8800000000	1.4886100727
1.8850000000	1.3576829112
1.8900000000	1.2301691062
1.8950000000	1.0891442529
1.9000000000	0.9059310787
1.9050000000	0.5869467129
1.9100000000	0.1288802535
1.9150000000	-0.3120632744
1.9200000000	0.2209949579
1.9250000000	2.3526894691
1.9300000000	4.0555587447
1.9350000000	4.0936608058
1.9400000000	3.2861925759
1.9450000000	2.4906136512
1.9500000000	1.9267288242
1.9550000000	1.5537422341
1.9600000000	1.3051869959
1.9650000000	1.1395658938
1.9700000000	1.0176455338
1.9750000000	0.9282432927
1.9800000000	0.8603881839
1.9850000000	0.8062126040
1.9900000000	0.7598601887
1.9950000000	0.7163667199
2.0000000000	0.6748397914
2.0050000000	0.6501487246
2.0100000000	0.6667489679
2.0150000000	0.7100378975
2.0200000000	0.7392894676
2.0250000000	0.7520098573
2.0300000000	0.7617145398
2.0350000000	0.7746569546
2.0400000000	0.7938794649
2.0450000000	0.8206740135
2.0500000000	0.8563542944
2.0550000000	0.9022266721
2.0600000000	0.9583656243
2.0650000000	1.0202884748
2.0700000000	1.0768372183
2.0750000000	1.1192978649
2.0800000000	1.1541475873
2.0850000000	1.1954632266
2.0900000000	1.2521979370
2.0950000000	1.3274540230
2.1000000000	1.4236055601
2.1050000000	1.5392014843
2.1100000000	1.6822958558
2.1150000000	1.8586609830
2.1200000000	2.0765995953
2.1250000000	2.3478927650
2.1300000000	2.6892336874
2.1350000000	3.1245066483
2.1400000000	3.6882074498
2.1450000000	4.4307584153
2.1500000000	5.4255863960
2.1550000000	6.7765457415
2.1600000000	8.6165109708
2.1650000000	11.0580856545
2.1700000000	14.0583414979
2.1750000000	17.0500559926
2.1800000000	18.9288613602
2.1850000000	19.1048806215
2.1900000000	18.3914642341
2.1950000000	17.8853309679
2.2000000000	17.7084753973
2.2050000000	16.8763238542
2.2100000000	14.9675918873
2.2150000000	12.5659728131
2.2200000000	10.3815574257
2.2250000000	8.6115523318
2.2300000000	7.1585224478
2.2350000000	5.9425253451
2.2400000000	4.9441345271
2.2450000000	4.1557944249
2.2500000000	3.5448714683
2.2550000000	3.0720466616
2.2600000000	2.7009266344
2.2650000000	2.3987095701
2.2700000000	2.1343481860
2.2750000000	1.8816076090
2.2800000000	1.6343996623
2.2850000000	1.4229082858
2.2900000000	1.2985394194
2.2950000000	1.2843312568
2.3000000000	1.3405923402
2.3050000000	1.3998758486
2.3100000000	1.4208332425
2.3150000000	1.4047666970
2.3200000000	1.3695549384
2.3250000000	1.3335730714
2.3300000000	1.3065761437
2.3350000000	1.2914126424
2.3400000000	1.2859410669
2.3450000000	1.2839297767
2.3500000000	1.2773517513
2.3550000000	1.2610791252
2.3600000000	1.2365305707
2.3650000000	1.2099608900
2.3700000000	1.1877272927
2.3750000000	1.1733628733
2.3800000000	1.1674340936
2.3850000000	1.1685201666
2.3900000000	1.1748065144
2.3950000000	1.1845545301
2.4000000000	1.1986303024
2.4050000000	1.2207095115
2.4100000000	1.2523554333
2.4150000000	1.2957255440
2.4200000000	1.3523071159
2.4250000000	1.4236947008
2.4300000000	1.5118447414
2.4350000000	1.6192653909
2.4400000000	1.7491847206
2.4450000000	1.9057420430
2.4500000000	2.0941836350
2.4550000000	2.3211285845
2.4600000000	2.5947166315
2.4650000000	2.9247598318
2.4700000000	3.3225501825
2.4750000000	3.7994731265
2.4800000000	4.3675450803
2.4850000000	5.0317579654
2.4900000000	5.7858909820
2.4950000000	6.6024364652
2.5000000000	7.4220033495
2.5050000000	8.1816058818
2.5100000000	8.6796670442
2.5150000000	8.8031140482
2.5200000000	8.5330489441
2.5250000000	7.9532312338
2.5300000000	7.1967473043
2.5350000000	6.3843297302
2.5400000000	5.5956527080
2.5450000000	4.8722909049
2.5500000000	4.2309845328
2.5550000000	3.6746081698
2.5600000000	3.1952252324
2.5650000000	2.7910909473
2.5700000000	2.4536250233
2.5750000000	2.1776429648
2.5800000000	1.9591811789
2.5850000000	1.7935625798
2.5900000000	1.6726088795
2.5950000000	1.5845820405
2.6000000000	1.5172123754
2.6050000000	1.4691412633
2.6100000000	1.4265213217
2.6150000000	1.3887808056
2.6200000000	1.3568056771
2.6250000000	1.3315040411
2.6300000000	1.3134581884
2.6350000000	1.3029469798
2.6400000000	1.3001175472
2.6450000000	1.3051192006
2.6500000000	1.3182587530
2.6550000000	1.3396048857
2.6600000000	1.3696262114
2.6650000000	1.4087684203
2.6700000000	1.4575567039
2.6750000000	1.5166049633
2.6800000000	1.5865694644
2.6850000000	1.6681224071
2.6900000000	1.7618583552
2.6950000000	1.8682324758
2.7000000000	1.9874125363
2.7050000000	2.1333439758
2.7100000000	2.2949329185
2.7150000000	2.4702081010
2.7200000000	2.6558567662
2.7250000000	2.8471675015
2.7300000000	3.0380408999
2.7350000000	3.2210104928
2.7400000000	3.3871936302
2.7450000000	3.5277260359
2.7500000000	3.6294451973
2.7550000000	3.6836382148
2.7600000000	3.6837251471
2.7650000000	3.6282568251
2.7700000000	3.5216517868
2.7750000000	3.3734507733
2.7800000000	3.1962457571
2.7850000000	3.0034296749
2.7900000000	2.8070009743
2.7950000000	2.6165767286
2.8000000000	2.4389616628
2.8050000000	2.2585513342
2.8100000000	2.1032484041
2.8150000000	1.9727050629
2.8200000000	1.8648818004
2.8250000000	1.7770672518
2.8300000000	1.7065267209
2.8350000000	1.6509322203
2.8400000000	1.6078076507
2.8450000000	1.5773033081
2.8500000000	1.5576003872
2.8550000000	1.5480109514
2.8600000000	1.5480278805
2.8650000000	1.5572211099
2.8700000000	1.5751710931
2.8750000000	1.6013987095
2.8800000000	1.6353192186
2.8850000000	1.6761912102
2.8900000000	1.7231294226
2.8950000000	1.7750855535
2.9000000000	1.8309055178
2.9050000000	1.9014952684
2.9100000000	1.9720457382
2.9150000000	2.0400377693
2.9200000000	2.1025787305
2.9250000000	2.1563309485
2.9300000000	2.1981849603
2.9350000000	2.2237806294
2.9400000000	2.2310397004
2.9450000000	2.2189468960
2.9500000000	2.1883317677
2.9550000000	2.1417978790
2.9600000000	2.0832178878
2.9650000000	2.0170506109
2.9700000000	1.9476568349
2.9750000000	1.8787970125
2.9800000000	1.8133789586
2.9850000000	1.7534122333
2.9900000000	1.7001348958
2.9950000000	1.6541475848
3.0000000000	1.6156243273
