# energy (eV)    P(omega), $W$ = 300 nm, $h$ = 300 nm, $s$ = 20 nm, $d/W = 5$, $E_{\rm e}$ = 200 keV
0.2000000000	0.1629002683
0.2050000000	0.1653824268
0.2100000000	0.1676896542
0.2150000000	0.1698277708
0.2200000000	0.1718020257
0.2250000000	0.1736167439
0.2300000000	0.1752753743
0.2350000000	0.1767803158
0.2400000000	0.1781327806
0.2450000000	0.1793325743
0.2500000000	0.1803779362
0.2550000000	0.1812650907
0.2600000000	0.1819881839
0.2650000000	0.1825385181
0.2700000000	0.1829042745
0.2750000000	0.1830696412
0.2800000000	0.1830139900
0.2850000000	0.1827107116
0.2900000000	0.1821257689
0.2950000000	0.1812157980
0.3000000000	0.1799254575
0.3050000000	0.1781842166
0.3100000000	0.1759017393
0.3150000000	0.1862562637
0.3200000000	0.1985529150
0.3250000000	0.2141160600
0.3300000000	0.2349770845
0.3350000000	0.2609361720
0.3400000000	0.2949287046
0.3450000000	0.3361228123
0.3500000000	0.3899898229
0.3550000000	0.4612295314
0.3600000000	0.5541770305
0.3650000000	0.6836908554
0.3700000000	0.8542963860
0.3750000000	1.0914314570
0.3800000000	1.4341439671
0.3850000000	1.9678170393
0.3900000000	2.8102515206
0.3950000000	4.2401460714
0.4000000000	6.9641452184
0.4050000000	13.0671040647
0.4100000000	29.7074435296
0.4150000000	95.2490625568
0.4200000000	60.7279311206
0.4250000000	-113.9970255896
0.4300000000	31.6390472436
0.4350000000	19.6911296130
0.4400000000	12.0197840983
0.4450000000	7.8933985865
0.4500000000	5.5195422569
0.4550000000	4.0595984514
0.4600000000	3.1092978519
0.4650000000	2.4620668000
0.4700000000	2.0048222919
0.4750000000	1.6742417331
0.4800000000	1.4291913458
0.4850000000	1.2447961291
0.4900000000	1.1040059833
0.4950000000	0.9953800001
0.5000000000	0.9110965924
0.5050000000	0.8454229917
0.5100000000	0.7946616301
0.5150000000	0.7560876810
0.5200000000	0.7268705603
0.5250000000	0.7057196991
0.5300000000	0.6912627399
0.5350000000	0.6824917067
0.5400000000	0.6786625236
0.5450000000	0.6791539196
0.5500000000	0.6837572199
0.5550000000	0.6921184405
0.5600000000	0.7040490278
0.5650000000	0.7194591147
0.5700000000	0.7382619541
0.5750000000	0.7605862058
0.5800000000	0.7866398409
0.5850000000	0.8165560234
0.5900000000	0.8506014927
0.5950000000	0.8891178807
0.6000000000	0.9325385544
0.6050000000	0.9815028689
0.6100000000	1.0366127697
0.6150000000	1.0986972676
0.6200000000	1.1688630255
0.6250000000	1.2481698689
0.6300000000	1.3381876278
0.6350000000	1.4408720816
0.6400000000	1.5582557810
0.6450000000	1.6932774301
0.6500000000	1.8497978249
0.6550000000	2.0318338125
0.6600000000	2.2455645256
0.6650000000	2.4989100883
0.6700000000	2.8011803479
0.6750000000	3.1665793716
0.6800000000	3.6141989776
0.6850000000	4.1690403444
0.6900000000	4.8698236643
0.6950000000	5.7706901657
0.7000000000	6.9576286005
0.7050000000	8.5620600662
0.7100000000	10.8066200127
0.7150000000	14.0875710505
0.7200000000	19.1424312799
0.7250000000	27.5299158516
0.7300000000	42.9192052427
0.7350000000	75.8345378102
0.7400000000	166.0681297547
0.7450000000	550.5007258198
0.7500000000	1704.1292301240
0.7550000000	428.3768666567
0.7600000000	141.7576229482
0.7650000000	67.8689848687
0.7700000000	39.4391623618
0.7750000000	25.7205650397
0.7800000000	18.0863536449
0.7850000000	13.4221097184
0.7900000000	10.3614358197
0.7950000000	8.2513427749
0.8000000000	6.7350256210
0.8050000000	5.6061169706
0.8100000000	4.7455683288
0.8150000000	4.0636872349
0.8200000000	3.5256997588
0.8250000000	3.0926554357
0.8300000000	2.7380453517
0.8350000000	2.4465607880
0.8400000000	2.2022816882
0.8450000000	1.9973456738
0.8500000000	1.8241365135
0.8550000000	1.6747075824
0.8600000000	1.5471507886
0.8650000000	1.4381806452
0.8700000000	1.3419231492
0.8750000000	1.2600048937
0.8800000000	1.1904423302
0.8850000000	1.1280815161
0.8900000000	1.0779374985
0.8950000000	1.0323251437
0.9000000000	0.9960421409
0.9050000000	0.9708049252
0.9100000000	0.9476606517
0.9150000000	0.9333103335
0.9200000000	0.9308385835
0.9250000000	0.9288378491
0.9300000000	0.9145962468
0.9350000000	0.8735262596
0.9400000000	0.6477983254
0.9450000000	-0.3754063899
0.9500000000	-5.7694520732
0.9550000000	-33.1080240393
0.9600000000	7.8086306138
0.9650000000	13.7058361604
0.9700000000	6.0762107568
0.9750000000	3.1894643179
0.9800000000	1.9991917878
0.9850000000	1.4426449124
0.9900000000	1.1221252924
0.9950000000	0.9278274998
1.0000000000	0.8037841857
1.0050000000	0.7251081994
1.0100000000	0.6641740536
1.0150000000	0.6196765008
1.0200000000	0.5896868529
1.0250000000	0.5645708189
1.0300000000	0.5455233637
1.0350000000	0.5311544790
1.0400000000	0.5220492870
1.0450000000	0.5145491620
1.0500000000	0.5096840401
1.0550000000	0.5071575143
1.0600000000	0.5076244821
1.0650000000	0.5092598599
1.0700000000	0.5128127417
1.0750000000	0.5182988017
1.0800000000	0.5262124915
1.0850000000	0.5362476036
1.0900000000	0.5509552445
1.0950000000	0.5683992890
1.1000000000	0.5891468346
1.1050000000	0.6130989920
1.1100000000	0.6409905637
1.1150000000	0.6734551879
1.1200000000	0.7112206782
1.1250000000	0.7553389263
1.1300000000	0.8071009802
1.1350000000	0.8681543156
1.1400000000	0.9403488462
1.1450000000	1.0271703127
1.1500000000	1.1323199692
1.1550000000	1.2611892492
1.1600000000	1.4213851024
1.1650000000	1.6227520162
1.1700000000	1.8838516960
1.1750000000	2.2292192119
1.1800000000	2.6994520587
1.1850000000	3.3613086721
1.1900000000	4.3404620302
1.1950000000	5.8785200244
1.2000000000	8.4883189115
1.2050000000	13.4211280031
1.2100000000	24.2723799864
1.2150000000	53.5955895019
1.2200000000	131.5541487311
1.2250000000	118.0826301941
1.2300000000	46.9964826811
1.2350000000	21.9584912211
1.2400000000	12.4731232598
1.2450000000	8.1130660109
1.2500000000	5.8070051161
1.2550000000	4.4692291074
1.2600000000	3.6472481971
1.2650000000	3.1232140933
1.2700000000	2.7987579956
1.2750000000	2.6099417155
1.2800000000	2.5253329941
1.2850000000	2.5298942741
1.2900000000	2.6197898038
1.2950000000	2.7989884151
1.3000000000	3.0915381907
1.3050000000	3.5278688772
1.3100000000	4.1666190266
1.3150000000	5.1097325819
1.3200000000	6.5412284860
1.3250000000	8.8112973892
1.3300000000	12.6893714735
1.3350000000	19.9569573882
1.3400000000	35.4911260374
1.3450000000	74.0461436429
1.3500000000	156.9785029606
1.3550000000	146.3071004841
1.3600000000	67.4445857394
1.3650000000	33.1346331056
1.3700000000	19.0039512991
1.3750000000	12.2238551943
1.3800000000	8.5272082834
1.3850000000	6.3001317368
1.3900000000	4.8641174086
1.3950000000	3.8838619596
1.4000000000	3.1855844977
1.4050000000	2.6714240325
1.4100000000	2.2815860407
1.4150000000	1.9794535444
1.4200000000	1.7377830093
1.4250000000	1.5442709043
1.4300000000	1.3878462393
1.4350000000	1.2289733744
1.4400000000	0.7252604583
1.4450000000	-0.5794344712
1.4500000000	-2.9657440425
1.4550000000	-1.0766612149
1.4600000000	2.7075803283
1.4650000000	1.6470813178
1.4700000000	-0.7052378614
1.4750000000	-4.3021736700
1.4800000000	-1.8754806090
1.4850000000	3.3760328580
1.4900000000	2.7312338482
1.4950000000	1.7794853977
1.5000000000	1.2585366113
1.5050000000	0.9755410518
1.5100000000	0.8132987547
1.5150000000	0.7134338323
1.5200000000	0.6477401272
1.5250000000	0.6059179195
1.5300000000	0.5726850489
1.5350000000	0.5483519919
1.5400000000	0.5305189691
1.5450000000	0.5177190967
1.5500000000	0.5089887026
1.5550000000	0.5038382449
1.5600000000	0.5030786302
1.5650000000	0.5048264048
1.5700000000	0.5107740593
1.5750000000	0.5220586957
1.5800000000	0.5409929300
1.5850000000	0.5721335898
1.5900000000	0.6250929912
1.5950000000	0.7209942158
1.6000000000	0.9038548007
1.6050000000	1.1998287066
1.6100000000	1.3312166316
1.6150000000	1.0772741359
1.6200000000	0.8477369345
1.6250000000	0.7340800522
1.6300000000	0.6846132039
1.6350000000	0.6671882688
1.6400000000	0.6674133019
1.6450000000	0.6787825398
1.6500000000	0.6982278646
1.6550000000	0.7244750445
1.6600000000	0.7570368712
1.6650000000	0.7959843864
1.6700000000	0.8417666566
1.6750000000	0.8951569646
1.6800000000	0.9572489916
1.6850000000	1.0294975913
1.6900000000	1.1137677067
1.6950000000	1.2118338532
1.7000000000	1.3274395852
1.7050000000	1.4674138853
1.7100000000	1.6398391041
1.7150000000	1.8845201348
1.7200000000	2.2234045059
1.7250000000	2.6342869264
1.7300000000	3.1503785003
1.7350000000	3.7019099281
1.7400000000	4.1888765880
1.7450000000	4.7944386486
1.7500000000	5.7338916783
1.7550000000	7.1520223407
1.7600000000	9.2844606076
1.7650000000	12.5762563352
1.7700000000	17.8788093440
1.7750000000	26.8070055759
1.7800000000	42.0056678214
1.7850000000	64.3843057445
1.7900000000	79.9014740676
1.7950000000	67.9301290614
1.8000000000	45.1267113806
1.8050000000	28.4378500717
1.8100000000	18.7033466443
1.8150000000	13.0012323867
1.8200000000	9.4931562357
1.8250000000	7.2186286456
1.8300000000	5.6732404348
1.8350000000	4.5807678938
1.8400000000	3.7827037001
1.8450000000	3.1826976941
1.8500000000	2.7199427102
1.8550000000	2.3562909316
1.8600000000	2.0647654005
1.8650000000	1.8267243479
1.8700000000	1.6284048839
1.8750000000	1.4590159730
1.8800000000	1.3090685790
1.8850000000	1.1689386283
1.8900000000	1.0263949089
1.8950000000	0.8628389883
1.9000000000	0.6469705954
1.9050000000	0.2795550037
1.9100000000	-0.2539702731
1.9150000000	-0.8286472927
1.9200000000	-0.5721310708
1.9250000000	1.1057020671
1.9300000000	2.4534444767
1.9350000000	2.5629884852
1.9400000000	2.1128742340
1.9450000000	1.6580355639
1.9500000000	1.3309792820
1.9550000000	1.1115384177
1.9600000000	0.9634795796
1.9650000000	0.8654582858
1.9700000000	0.7912243944
1.9750000000	0.7367427650
1.9800000000	0.6957077636
1.9850000000	0.6636651528
1.9900000000	0.6374410775
1.9950000000	0.6144648871
2.0000000000	0.5941164601
2.0050000000	0.5837546906
2.0100000000	0.5932755566
2.0150000000	0.6160277000
2.0200000000	0.6339406184
2.0250000000	0.6461599520
2.0300000000	0.6592091382
2.0350000000	0.6759013322
2.0400000000	0.6983846732
2.0450000000	0.7280574020
2.0500000000	0.7666004036
2.0550000000	0.8157185494
2.0600000000	0.8754935854
2.0650000000	0.9402513413
2.0700000000	0.9959138571
2.0750000000	1.0313002878
2.0800000000	1.0540453310
2.0850000000	1.0811997395
2.0900000000	1.1233200683
2.0950000000	1.1836344677
2.1000000000	1.2638818851
2.1050000000	1.3622301965
2.1100000000	1.4855404646
2.1150000000	1.6385766607
2.1200000000	1.8284083257
2.1250000000	2.0651972361
2.1300000000	2.3634321468
2.1350000000	2.7438944380
2.1400000000	3.2366216434
2.1450000000	3.8855201513
2.1500000000	4.7545046273
2.1550000000	5.9339130581
2.1600000000	7.5392497506
2.1650000000	9.6681956205
2.1700000000	12.2837647855
2.1750000000	14.8941699936
2.1800000000	16.5447395896
2.1850000000	16.7307479551
2.1900000000	16.1628549770
2.1950000000	15.7859485462
2.2000000000	15.6775829197
2.2050000000	14.9237439192
2.2100000000	13.1412407549
2.2150000000	10.8769662636
2.2200000000	8.8051887206
2.2250000000	7.1458215419
2.2300000000	5.8397987889
2.2350000000	4.8025041059
2.2400000000	3.9795467310
2.2450000000	3.3372157565
2.2500000000	2.8362679155
2.2550000000	2.4410151800
2.2600000000	2.1216715378
2.2650000000	1.8534563268
2.2700000000	1.6155525080
2.2750000000	1.3933540398
2.2800000000	1.1879023017
2.2850000000	1.0249895034
2.2900000000	0.9428144183
2.2950000000	0.9545389377
2.3000000000	1.0224709746
2.3050000000	1.0888569351
2.3100000000	1.1175169849
2.3150000000	1.1102868464
2.3200000000	1.0830059130
2.3250000000	1.0518446491
2.3300000000	1.0255419554
2.3350000000	1.0071274630
2.3400000000	0.9959761919
2.3450000000	0.9888505890
2.3500000000	0.9814276795
2.3550000000	0.9709432176
2.3600000000	0.9581641557
2.3650000000	0.9464440959
2.3700000000	0.9391075204
2.3750000000	0.9377786037
2.3800000000	0.9421801730
2.3850000000	0.9506429462
2.3900000000	0.9613077673
2.3950000000	0.9725847274
2.4000000000	0.9854226534
2.4050000000	1.0033571892
2.4100000000	1.0281848785
2.4150000000	1.0621847827
2.4200000000	1.1069074413
2.4250000000	1.1637632782
2.4300000000	1.2343341830
2.4350000000	1.3206028764
2.4400000000	1.4251203603
2.4450000000	1.5511777204
2.4500000000	1.7029634866
2.4550000000	1.8857766995
2.4600000000	2.1061607510
2.4650000000	2.3720333585
2.4700000000	2.6925649588
2.4750000000	3.0770918181
2.4800000000	3.5357118934
2.4850000000	4.0729658911
2.4900000000	4.6844077331
2.4950000000	5.3479224751
2.5000000000	6.0143765828
2.5050000000	6.6303376968
2.5100000000	7.0282605458
2.5150000000	7.1153698128
2.5200000000	6.8796741068
2.5250000000	6.3949214705
2.5300000000	5.7733040774
2.5350000000	5.1132255488
2.5400000000	4.4770099019
2.5450000000	3.8954570677
2.5500000000	3.3800753683
2.5550000000	2.9323262431
2.5600000000	2.5457141146
2.5650000000	2.2193926970
2.5700000000	1.9468523922
2.5750000000	1.7242403646
2.5800000000	1.5485473344
2.5850000000	1.4160448467
2.5900000000	1.3200013742
2.5950000000	1.2506713153
2.6000000000	1.1978613098
2.6050000000	1.1601959311
2.6100000000	1.1263748547
2.6150000000	1.0959824782
2.6200000000	1.0697787292
2.6250000000	1.0485108027
2.6300000000	1.0326300570
2.6350000000	1.0223322270
2.6400000000	1.0177199487
2.6450000000	1.0189088500
2.6500000000	1.0261473516
2.6550000000	1.0394767895
2.6600000000	1.0592465254
2.6650000000	1.0857651159
2.6700000000	1.1193963252
2.6750000000	1.1605718882
2.6800000000	1.2097724043
2.6850000000	1.2675229225
2.6900000000	1.3343309669
2.6950000000	1.4106566196
2.7000000000	1.4968189442
2.7050000000	1.6031932230
2.7100000000	1.7224201385
2.7150000000	1.8536826638
2.7200000000	1.9952132664
2.7250000000	2.1440664193
2.7300000000	2.2959080284
2.7350000000	2.4448329882
2.7400000000	2.5832681719
2.7450000000	2.7032174174
2.7500000000	2.7930746392
2.7550000000	2.8448663114
2.7600000000	2.8526039453
2.7650000000	2.8147462781
2.7700000000	2.7347429391
2.7750000000	2.6203343780
2.7800000000	2.4817875020
2.7850000000	2.3300246054
2.7900000000	2.1748030730
2.7950000000	2.0239352618
2.8000000000	1.8829313377
2.8050000000	1.7395499525
2.8100000000	1.6157762095
2.8150000000	1.5113280450
2.8200000000	1.4245637986
2.8250000000	1.3533016150
2.8300000000	1.2953527663
2.8350000000	1.2488518821
2.8400000000	1.2118159025
2.8450000000	1.1843785915
2.8500000000	1.1650866249
2.8550000000	1.1533985435
2.8600000000	1.1489312794
2.8650000000	1.1513822396
2.8700000000	1.1604820819
2.8750000000	1.1759552842
2.8800000000	1.1974832292
2.8850000000	1.2246696120
2.8900000000	1.2570266188
2.8950000000	1.2939583546
2.9000000000	1.3347578562
2.9050000000	1.3883562252
2.9100000000	1.4433879267
2.9150000000	1.4977305983
2.9200000000	1.5488317747
2.9250000000	1.5937318338
2.9300000000	1.6296490857
2.9350000000	1.6528805907
2.9400000000	1.6615711930
2.9450000000	1.6547707083
2.9500000000	1.6330378482
2.9550000000	1.5983557762
2.9600000000	1.5537456199
2.9650000000	1.5027122082
2.9700000000	1.4486949185
2.9750000000	1.3946780203
2.9800000000	1.3429760871
2.9850000000	1.2952038431
2.9900000000	1.2523549416
2.9950000000	1.2149357110
3.0000000000	1.1831094280
