# energy (eV)    P(omega), $W$ = 400 nm, $h$ = 300 nm, $s$ = 20 nm, $d/W = 5$, $E_{\rm e}$ = 200 keV
0.2000000000	0.0998901358
0.2050000000	0.1007990183
0.2100000000	0.1014395215
0.2150000000	0.1018008566
0.2200000000	0.1018679468
0.2250000000	0.1016203142
0.2300000000	0.1010310277
0.2350000000	0.1000650241
0.2400000000	0.0986772260
0.2450000000	0.0968095291
0.2500000000	0.0943876641
0.2550000000	0.0913160630
0.2600000000	0.0874715858
0.2650000000	0.0915030488
0.2700000000	0.1017420366
0.2750000000	0.1163940967
0.2800000000	0.1368092742
0.2850000000	0.1669074541
0.2900000000	0.2042032379
0.2950000000	0.2576715547
0.3000000000	0.3295511929
0.3050000000	0.4397283705
0.3100000000	0.5932078286
0.3150000000	0.8901868559
0.3200000000	1.3540272162
0.3250000000	1.6716327826
0.3300000000	2.1109943746
0.3350000000	2.7338677311
0.3400000000	3.7116692720
0.3450000000	5.3892898531
0.3500000000	8.7346622486
0.3550000000	16.4789303443
0.3600000000	40.5003408213
0.3650000000	0.1816318534
0.3700000000	18.7721780085
0.3750000000	24.6853725950
0.3800000000	11.5030043540
0.3850000000	6.4800262355
0.3900000000	4.1565495895
0.3950000000	2.9291685913
0.4000000000	2.2185086800
0.4050000000	1.7552023180
0.4100000000	1.4535797191
0.4150000000	1.2546463113
0.4200000000	1.1289239472
0.4250000000	1.0301865474
0.4300000000	0.9134987104
0.4350000000	0.8211471374
0.4400000000	0.7481079611
0.4450000000	0.6900342879
0.4500000000	0.6441870639
0.4550000000	0.6078334074
0.4600000000	0.5794770079
0.4650000000	0.5575350218
0.4700000000	0.5409596282
0.4750000000	0.5290177857
0.4800000000	0.5210697830
0.4850000000	0.5165546607
0.4900000000	0.5151407787
0.4950000000	0.5165729669
0.5000000000	0.5206333307
0.5050000000	0.5272247971
0.5100000000	0.5362678862
0.5150000000	0.5477154872
0.5200000000	0.5615914723
0.5250000000	0.5779155217
0.5300000000	0.5969272185
0.5350000000	0.6187332668
0.5400000000	0.6435255576
0.5450000000	0.6715556341
0.5500000000	0.7031794581
0.5550000000	0.7387862763
0.5600000000	0.7788499641
0.5650000000	0.8239797167
0.5700000000	0.8750165875
0.5750000000	0.9325839891
0.5800000000	0.9978482228
0.5850000000	1.0724027503
0.5900000000	1.1573227126
0.5950000000	1.2548698250
0.6000000000	1.3680321577
0.6050000000	1.4990497032
0.6100000000	1.6530560331
0.6150000000	1.8343089314
0.6200000000	2.0501167556
0.6250000000	2.3109643201
0.6300000000	2.6275456024
0.6350000000	3.0199531605
0.6400000000	3.5103563807
0.6450000000	4.1389824218
0.6500000000	4.9572195120
0.6550000000	6.0521130925
0.6600000000	7.5706373523
0.6650000000	9.7450038408
0.6700000000	13.0375384818
0.6750000000	18.3314807071
0.6800000000	27.6895960543
0.6850000000	46.4674162301
0.6900000000	93.1296937391
0.6950000000	261.4333196552
0.7000000000	1267.9945644862
0.7050000000	616.4769863863
0.7100000000	158.3626781356
0.7150000000	67.3458658937
0.7200000000	36.7790590309
0.7250000000	23.1042124393
0.7300000000	15.8465631089
0.7350000000	11.5561702901
0.7400000000	8.8087361269
0.7450000000	6.9438710887
0.7500000000	5.6228251813
0.7550000000	4.6522838117
0.7600000000	3.9207594309
0.7650000000	3.3534685140
0.7700000000	2.9056470927
0.7750000000	2.5461278633
0.7800000000	2.2539685522
0.7850000000	2.0134035165
0.7900000000	1.8118645735
0.7950000000	1.6435417169
0.8000000000	1.5004211445
0.8050000000	1.3778027847
0.8100000000	1.2734175335
0.8150000000	1.1819276769
0.8200000000	1.1022756416
0.8250000000	1.0354341351
0.8300000000	0.9769256962
0.8350000000	0.9260612481
0.8400000000	0.8855567302
0.8450000000	0.8502147651
0.8500000000	0.8202492548
0.8550000000	0.8013120350
0.8600000000	0.7861445572
0.8650000000	0.7752869766
0.8700000000	0.7790808405
0.8750000000	0.7804155793
0.8800000000	0.7762227421
0.8850000000	0.7424737374
0.8900000000	0.5761602229
0.8950000000	-0.2573556099
0.9000000000	-4.7269724908
0.9050000000	-31.0593250619
0.9100000000	5.9143263432
0.9150000000	14.0101517625
0.9200000000	5.8158925293
0.9250000000	3.0255671293
0.9300000000	1.8468365236
0.9350000000	1.2836655638
0.9400000000	0.9798482303
0.9450000000	0.8114336243
0.9500000000	0.6918204955
0.9550000000	0.6117382521
0.9600000000	0.5621915310
0.9650000000	0.5212906055
0.9700000000	0.4920744342
0.9750000000	0.4721177394
0.9800000000	0.4598960083
0.9850000000	0.4574939390
0.9900000000	0.4616206337
0.9950000000	0.4789657684
1.0000000000	0.5207077772
1.0050000000	0.6183932261
1.0100000000	0.8745423695
1.0150000000	1.7527039557
1.0200000000	3.3606289741
1.0250000000	1.5311201576
1.0300000000	0.7871171336
1.0350000000	0.5653704761
1.0400000000	0.4781876257
1.0450000000	0.4373138461
1.0500000000	0.4168646507
1.0550000000	0.4061705448
1.0600000000	0.4014205496
1.0650000000	0.4006110746
1.0700000000	0.4026312611
1.0750000000	0.4070939139
1.0800000000	0.4132165930
1.0850000000	0.4215231420
1.0900000000	0.4335031384
1.0950000000	0.4474594702
1.1000000000	0.4635298777
1.1050000000	0.4817446015
1.1100000000	0.5023920885
1.1150000000	0.5257475218
1.1200000000	0.5521370551
1.1250000000	0.5818304150
1.1300000000	0.6155972510
1.1350000000	0.6539555963
1.1400000000	0.6976822084
1.1450000000	0.7477640930
1.1500000000	0.8049688636
1.1550000000	0.8716886880
1.1600000000	0.9494353804
1.1650000000	1.0401890359
1.1700000000	1.1443632332
1.1750000000	1.2500289709
1.1800000000	1.3501158890
1.1850000000	1.8765267725
1.1900000000	2.3285454834
1.1950000000	3.1916245528
1.2000000000	4.3463908993
1.2050000000	3.8130876300
1.2100000000	3.6497087307
1.2150000000	4.0634472636
1.2200000000	4.8600865277
1.2250000000	6.0833825621
1.2300000000	7.9434569358
1.2350000000	10.8858889355
1.2400000000	15.8424240695
1.2450000000	25.1755784907
1.2500000000	45.3886523157
1.2550000000	98.2530946307
1.2600000000	237.3243467223
1.2650000000	240.4019289546
1.2700000000	100.0032434155
1.2750000000	46.1620393228
1.2800000000	25.5656244248
1.2850000000	16.0773577286
1.2900000000	11.0196885175
1.2950000000	8.0314142981
1.3000000000	6.1280129679
1.3050000000	4.8464600680
1.3100000000	3.9427627568
1.3150000000	3.2898030523
1.3200000000	2.8057729333
1.3250000000	2.4415359355
1.3300000000	2.1672493561
1.3350000000	1.9646042630
1.3400000000	1.8241000875
1.3450000000	1.7431441596
1.3500000000	1.7335897149
1.3550000000	1.8224136735
1.3600000000	2.0782392096
1.3650000000	2.6756793814
1.3700000000	4.1022599604
1.3750000000	7.6515384169
1.3800000000	12.4990498239
1.3850000000	8.7313268859
1.3900000000	4.4491764782
1.3950000000	2.5813039075
1.4000000000	1.6903585847
1.4050000000	1.1428965465
1.4100000000	0.6475808918
1.4150000000	-0.0910619479
1.4200000000	-1.7444758514
1.4250000000	-6.1253704006
1.4300000000	-8.2362234149
1.4350000000	3.7737742868
1.4400000000	4.8271698483
1.4450000000	2.8941757759
1.4500000000	1.8009277544
1.4550000000	1.2414847910
1.4600000000	0.9167556937
1.4650000000	0.6600523806
1.4700000000	0.3853781257
1.4750000000	0.4530721296
1.4800000000	0.6645406084
1.4850000000	0.6034157179
1.4900000000	0.5342832936
1.4950000000	0.4895696738
1.5000000000	0.4601970213
1.5050000000	0.4407740797
1.5100000000	0.4275582286
1.5150000000	0.4203413794
1.5200000000	0.4150159084
1.5250000000	0.4130808715
1.5300000000	0.4147093479
1.5350000000	0.4206530888
1.5400000000	0.4327909946
1.5450000000	0.4552972709
1.5500000000	0.4975544995
1.5550000000	0.5782643204
1.5600000000	0.6994045637
1.5650000000	0.7188341164
1.5700000000	0.6095795265
1.5750000000	0.5329435376
1.5800000000	0.4999274051
1.5850000000	0.4895953392
1.5900000000	0.4910329631
1.5950000000	0.4995012409
1.6000000000	0.5129364903
1.6050000000	0.5306301613
1.6100000000	0.5520523825
1.6150000000	0.5771258245
1.6200000000	0.6062507888
1.6250000000	0.6397726565
1.6300000000	0.6782579899
1.6350000000	0.7224369144
1.6400000000	0.7732428553
1.6450000000	0.8318678417
1.6500000000	0.8998081256
1.6550000000	0.9789597608
1.6600000000	1.0717792572
1.6650000000	1.1814374242
1.6700000000	1.3110176774
1.6750000000	1.4680852065
1.6800000000	1.6593280591
1.6850000000	1.8952674447
1.6900000000	2.1908413602
1.6950000000	2.5679719536
1.7000000000	3.0596607500
1.7050000000	3.7379720148
1.7100000000	4.6843611379
1.7150000000	6.0600021787
1.7200000000	8.1566043543
1.7250000000	11.4828921066
1.7300000000	16.5944407827
1.7350000000	23.1530912413
1.7400000000	31.4419424406
1.7450000000	45.9879335859
1.7500000000	64.8711906649
1.7550000000	65.9145151035
1.7600000000	46.2435237769
1.7650000000	28.8056728217
1.7700000000	18.4657594087
1.7750000000	12.5860646926
1.7800000000	9.1113968809
1.7850000000	6.9740378023
1.7900000000	5.6485526551
1.7950000000	4.8901389250
1.8000000000	4.5840507813
1.8050000000	4.4871663753
1.8100000000	3.9922906478
1.8150000000	3.0934199390
1.8200000000	2.3753043114
1.8250000000	2.0051026109
1.8300000000	1.7456861570
1.8350000000	1.5151129963
1.8400000000	1.3270928345
1.8450000000	1.1778881637
1.8500000000	1.0576475502
1.8550000000	0.9583188829
1.8600000000	0.8669551829
1.8650000000	0.7897241908
1.8700000000	0.7116807008
1.8750000000	0.5991717376
1.8800000000	0.3426480806
1.8850000000	-0.2196576811
1.8900000000	-0.9760282731
1.8950000000	-1.1058471861
1.9000000000	0.1184070129
1.9050000000	1.2598644681
1.9100000000	1.3930496921
1.9150000000	1.1768618308
1.9200000000	0.9649744692
1.9250000000	0.8146098975
1.9300000000	0.7235342677
1.9350000000	0.6539839549
1.9400000000	0.6076880042
1.9450000000	0.5770092707
1.9500000000	0.5555591393
1.9550000000	0.5376644812
1.9600000000	0.5222682663
1.9650000000	0.5113563970
1.9700000000	0.5055403440
1.9750000000	0.5044309649
1.9800000000	0.5077165469
1.9850000000	0.5154945614
1.9900000000	0.5282756894
1.9950000000	0.5466973654
2.0000000000	0.5702816578
2.0050000000	0.5970446870
2.0100000000	0.6162661937
2.0150000000	0.6291226098
2.0200000000	0.6446275822
2.0250000000	0.6685280144
2.0300000000	0.7025179330
2.0350000000	0.7474490594
2.0400000000	0.8048662987
2.0450000000	0.8774472667
2.0500000000	0.9690356096
2.0550000000	1.0839012117
2.0600000000	1.2241139375
2.0650000000	1.3874701673
2.0700000000	1.5764254303
2.0750000000	1.8120593497
2.0800000000	2.1291733548
2.0850000000	2.5616993413
2.0900000000	3.1293699315
2.0950000000	3.7913992330
2.1000000000	4.3814476619
2.1050000000	4.6673522591
2.1100000000	4.5315486677
2.1150000000	4.2190712862
2.1200000000	3.9981966777
2.1250000000	3.9887368686
2.1300000000	4.2262342690
2.1350000000	4.7388581480
2.1400000000	5.5830330958
2.1450000000	6.8585849433
2.1500000000	8.7053045003
2.1550000000	11.2281994846
2.1600000000	14.2238233787
2.1650000000	16.7416222857
2.1700000000	17.3365962943
2.1750000000	15.5191245229
2.1800000000	12.5290612248
2.1850000000	9.6668185183
2.1900000000	7.4289673263
2.1950000000	5.8121934753
2.2000000000	4.6779070401
2.2050000000	3.8953632990
2.2100000000	3.3521334124
2.2150000000	2.9354645168
2.2200000000	2.5620707534
2.2250000000	2.2068811667
2.2300000000	1.8852659588
2.2350000000	1.6091107085
2.2400000000	1.3752177068
2.2450000000	1.1732618561
2.2500000000	0.9929640844
2.2550000000	0.8285739014
2.2600000000	0.6641776581
2.2650000000	0.5445744722
2.2700000000	0.4795944877
2.2750000000	0.4959271733
2.2800000000	0.5902581741
2.2850000000	0.7103835702
2.2900000000	0.7983057448
2.2950000000	0.8372582608
2.3000000000	0.8416876181
2.3050000000	0.8282071704
2.3100000000	0.8104666851
2.3150000000	0.7947599219
2.3200000000	0.7835745483
2.3250000000	0.7782702775
2.3300000000	0.7799429739
2.3350000000	0.7895009669
2.3400000000	0.8077225954
2.3450000000	0.8353976288
2.3500000000	0.8733639312
2.3550000000	0.9228779237
2.3600000000	0.9831276168
2.3650000000	1.0544892490
2.3700000000	1.1367657149
2.3750000000	1.2308511190
2.3800000000	1.3401415218
2.3850000000	1.4686658247
2.3900000000	1.6173140463
2.3950000000	1.7794667018
2.4000000000	1.9381080369
2.4050000000	2.0748198508
2.4100000000	2.1505947441
2.4150000000	2.1578360643
2.4200000000	2.1150715644
2.4250000000	2.0538931923
2.4300000000	2.0023399025
2.4350000000	1.9773386005
2.4400000000	1.9856462097
2.4450000000	2.0283578173
2.4500000000	2.1056137324
2.4550000000	2.2191356045
2.4600000000	2.3761972305
2.4650000000	2.5842538812
2.4700000000	2.8516085890
2.4750000000	3.1834468137
2.4800000000	3.5771501044
2.4850000000	4.0159214493
2.4900000000	4.4613385886
2.4950000000	4.8496420635
2.5000000000	5.1010443314
2.5050000000	5.1333789141
2.5100000000	4.9138360320
2.5150000000	4.5023431566
2.5200000000	3.9946553586
2.5250000000	3.4748959968
2.5300000000	2.9943441937
2.5350000000	2.5745458215
2.5400000000	2.2186729706
2.5450000000	1.9214465621
2.5500000000	1.6752149342
2.5550000000	1.4731034617
2.5600000000	1.3041007964
2.5650000000	1.1776189969
2.5700000000	1.0867338573
2.5750000000	1.0282049020
2.5800000000	0.9955375494
2.5850000000	0.9798491884
2.5900000000	0.9728039380
2.5950000000	0.9692111538
2.6000000000	0.9673972352
2.6050000000	0.9751021798
2.6100000000	0.9873154491
2.6150000000	1.0059073117
2.6200000000	1.0318713369
2.6250000000	1.0652685891
2.6300000000	1.1051564419
2.6350000000	1.1495344207
2.6400000000	1.1953461079
2.6450000000	1.2387154826
2.6500000000	1.2755375322
2.6550000000	1.3024462656
2.6600000000	1.3178779652
2.6650000000	1.3227506098
2.6700000000	1.3202701221
2.6750000000	1.3151230620
2.6800000000	1.3118508455
2.6850000000	1.3146969334
2.6900000000	1.3266165620
2.6950000000	1.3494261681
2.7000000000	1.3839968599
2.7050000000	1.4357337386
2.7100000000	1.5023082213
2.7150000000	1.5826446431
2.7200000000	1.6745191950
2.7250000000	1.7741563359
2.7300000000	1.8758562642
2.7350000000	1.9719344832
2.7400000000	2.0532493304
2.7450000000	2.1105196552
2.7500000000	2.1362642810
2.7550000000	2.1267143964
2.7600000000	2.0828323200
2.7650000000	2.0099656087
2.7700000000	1.9162968229
2.7750000000	1.8108921860
2.7800000000	1.7020640224
2.7850000000	1.5964633134
2.7900000000	1.4979456067
2.7950000000	1.4107300213
2.8000000000	1.3356898267
2.8050000000	1.2661856177
2.8100000000	1.2113837718
2.8150000000	1.1691280139
2.8200000000	1.1370756958
2.8250000000	1.1130771458
2.8300000000	1.0953051616
2.8350000000	1.0822440506
2.8400000000	1.0726129692
2.8450000000	1.0653243982
2.8500000000	1.0595049863
2.8550000000	1.0545749244
2.8600000000	1.0503377077
2.8650000000	1.0470091547
2.8700000000	1.0451624579
2.8750000000	1.0455861875
2.8800000000	1.0491094069
2.8850000000	1.0564444558
2.8900000000	1.0680768774
2.8950000000	1.0841996290
2.9000000000	1.1046800770
2.9050000000	1.1353100342
2.9100000000	1.1688968299
2.9150000000	1.2031984672
2.9200000000	1.2353815830
2.9250000000	1.2624024443
2.9300000000	1.2814350357
2.9350000000	1.2903664699
2.9400000000	1.2882058347
2.9450000000	1.2752734861
2.9500000000	1.2530813308
2.9550000000	1.2239475466
2.9600000000	1.1905080834
2.9650000000	1.1552597652
2.9700000000	1.1202559643
2.9750000000	1.0869735172
2.9800000000	1.0563216322
2.9850000000	1.0287401318
2.9900000000	1.0043313569
2.9950000000	0.9829882553
3.0000000000	0.9644990398
