# energy (eV)    P(omega), $W$ = 300 nm, $h$ = 300 nm, $s$ = 20 nm, $d/W = 5$, $E_{\rm e}$ = 200 keV
0.2000000000	0.1072923280
0.2050000000	0.1089262492
0.2100000000	0.1104446737
0.2150000000	0.1118514574
0.2200000000	0.1131500718
0.2250000000	0.1143433824
0.2300000000	0.1154336775
0.2350000000	0.1164225496
0.2400000000	0.1173108095
0.2450000000	0.1180983423
0.2500000000	0.1187839977
0.2550000000	0.1193653015
0.2600000000	0.1198384051
0.2650000000	0.1201975873
0.2700000000	0.1204350747
0.2750000000	0.1205404556
0.2800000000	0.1205001541
0.2850000000	0.1202966481
0.2900000000	0.1199075268
0.2950000000	0.1193042344
0.3000000000	0.1184503268
0.3050000000	0.1172993580
0.3100000000	0.1157918402
0.3150000000	0.1226108268
0.3200000000	0.1307088468
0.3250000000	0.1409583157
0.3300000000	0.1546972889
0.3350000000	0.1717937311
0.3400000000	0.1941809823
0.3450000000	0.2213104878
0.3500000000	0.2567857178
0.3550000000	0.3037015278
0.3600000000	0.3649119995
0.3650000000	0.4502020294
0.3700000000	0.5625495746
0.3750000000	0.7187049591
0.3800000000	0.9443793301
0.3850000000	1.2957940478
0.3900000000	1.8505108966
0.3950000000	2.7920318315
0.4000000000	4.5856269951
0.4050000000	8.6039924641
0.4100000000	19.5602435518
0.4150000000	62.7129097255
0.4200000000	39.9837808845
0.4250000000	-75.0520956499
0.4300000000	20.8292352040
0.4350000000	12.9629990956
0.4400000000	7.9125274964
0.4450000000	5.1959566191
0.4500000000	3.6331783543
0.4550000000	2.6720721879
0.4600000000	2.0464833058
0.4650000000	1.6204132463
0.4700000000	1.3194147119
0.4750000000	1.1017996001
0.4800000000	0.9404884503
0.4850000000	0.8191053453
0.4900000000	0.7264259497
0.4950000000	0.6549186083
0.5000000000	0.5994343072
0.5050000000	0.5561991959
0.5100000000	0.5227791030
0.5150000000	0.4973801706
0.5200000000	0.4781392380
0.5250000000	0.4642065760
0.5300000000	0.4546787806
0.5350000000	0.4488922792
0.5400000000	0.4463572036
0.5450000000	0.4466645256
0.5500000000	0.4496767000
0.5550000000	0.4551605927
0.5600000000	0.4629919664
0.5650000000	0.4731114526
0.5700000000	0.4854617901
0.5750000000	0.5001273810
0.5800000000	0.5172447893
0.5850000000	0.5369013380
0.5900000000	0.5592722445
0.5950000000	0.5845818808
0.6000000000	0.6131149809
0.6050000000	0.6452916771
0.6100000000	0.6815074659
0.6150000000	0.7223070782
0.6200000000	0.7684177351
0.6250000000	0.8205358757
0.6300000000	0.8796930403
0.6350000000	0.9471744759
0.6400000000	1.0243157901
0.6450000000	1.1130481141
0.6500000000	1.2159085165
0.6550000000	1.3355365205
0.6600000000	1.4759926432
0.6650000000	1.6424814191
0.6700000000	1.8411204380
0.6750000000	2.0812434963
0.6800000000	2.3753963358
0.6850000000	2.7400074598
0.6900000000	3.2005203496
0.6950000000	3.7925116476
0.7000000000	4.5724851774
0.7050000000	5.6267980974
0.7100000000	7.1017442996
0.7150000000	9.2577073768
0.7200000000	12.5793061852
0.7250000000	18.0907605867
0.7300000000	28.2030480443
0.7350000000	49.8314977066
0.7400000000	109.1228755759
0.7450000000	361.7263034146
0.7500000000	1119.7407243483
0.7550000000	281.4710839601
0.7600000000	93.1423360169
0.7650000000	44.5928323294
0.7700000000	25.9128067265
0.7750000000	16.8989764009
0.7800000000	11.8829460574
0.7850000000	8.8183466220
0.7900000000	6.8073749705
0.7950000000	5.4209796470
0.8000000000	4.4247208867
0.8050000000	3.6830051986
0.8100000000	3.1176116178
0.8150000000	2.6696094949
0.8200000000	2.3161492434
0.8250000000	2.0316391226
0.8300000000	1.7986618312
0.8350000000	1.6071589549
0.8400000000	1.4466705935
0.8450000000	1.3120308457
0.8500000000	1.1982355765
0.8550000000	1.1000640699
0.8600000000	1.0162622300
0.8650000000	0.9446713488
0.8700000000	0.8814327283
0.8750000000	0.8276142519
0.8800000000	0.7819127054
0.8850000000	0.7409426967
0.8900000000	0.7079976602
0.8950000000	0.6780299926
0.9000000000	0.6541903483
0.9050000000	0.6376056751
0.9100000000	0.6223961646
0.9150000000	0.6129623318
0.9200000000	0.6113295970
0.9250000000	0.6100065822
0.9300000000	0.6006460998
0.9350000000	0.5736703104
0.9400000000	0.4254442054
0.9450000000	-0.2464158183
0.9500000000	-3.7881975205
0.9550000000	-21.7387081653
0.9600000000	5.1271341215
0.9650000000	8.9990705929
0.9700000000	3.9895340480
0.9750000000	2.0941456221
0.9800000000	1.3126389786
0.9850000000	0.9472238028
0.9900000000	0.7367795618
0.9950000000	0.6092092829
1.0000000000	0.5277659392
1.0050000000	0.4761088646
1.0100000000	0.4361010334
1.0150000000	0.4068849205
1.0200000000	0.3871938710
1.0250000000	0.3707030576
1.0300000000	0.3581967403
1.0350000000	0.3487622902
1.0400000000	0.3427836447
1.0450000000	0.3378591800
1.0500000000	0.3346648971
1.0550000000	0.3330061876
1.0600000000	0.3333128496
1.0650000000	0.3343870290
1.0700000000	0.3367203846
1.0750000000	0.3403231653
1.0800000000	0.3455199495
1.0850000000	0.3521101448
1.0900000000	0.3617689315
1.0950000000	0.3732247718
1.1000000000	0.3868499899
1.1050000000	0.4025799941
1.1100000000	0.4208972431
1.1150000000	0.4422178667
1.1200000000	0.4670197437
1.1250000000	0.4959940944
1.1300000000	0.5299887328
1.1350000000	0.5700856582
1.1400000000	0.6174997521
1.1450000000	0.6745208166
1.1500000000	0.7435796210
1.1550000000	0.8282172547
1.1600000000	0.9334299294
1.1650000000	1.0656832223
1.1700000000	1.2371689047
1.1750000000	1.4640011936
1.1800000000	1.7728442422
1.1850000000	2.2075445518
1.1900000000	2.8506419668
1.1950000000	3.8608225700
1.2000000000	5.5749085995
1.2050000000	8.8147100004
1.2100000000	15.9416274209
1.2150000000	35.2004627781
1.2200000000	86.4012830973
1.2250000000	77.5522805155
1.2300000000	30.8647482582
1.2350000000	14.4206196232
1.2400000000	8.1909707034
1.2450000000	5.3274333521
1.2500000000	3.8128701326
1.2550000000	2.9342237806
1.2600000000	2.3943150051
1.2650000000	2.0500682085
1.2700000000	1.8368736346
1.2750000000	1.7127359518
1.2800000000	1.6570050441
1.2850000000	1.6597957245
1.2900000000	1.7185753345
1.2950000000	1.8359342073
1.3000000000	2.0276328762
1.3050000000	2.3136138753
1.3100000000	2.7323172788
1.3150000000	3.3505742407
1.3200000000	4.2890267176
1.3250000000	5.7772563198
1.3300000000	8.3197055459
1.3350000000	13.0843262647
1.3400000000	23.2685150743
1.3450000000	48.5451039442
1.3500000000	102.9151163227
1.3550000000	95.9183887422
1.3600000000	44.2162842631
1.3650000000	21.7228639992
1.3700000000	12.4588892818
1.3750000000	8.0139153770
1.3800000000	5.5904274451
1.3850000000	4.1303767910
1.3900000000	3.1889376819
1.3950000000	2.5462896181
1.4000000000	2.0885018757
1.4050000000	1.7514176713
1.4100000000	1.4958348002
1.4150000000	1.2977445121
1.4200000000	1.1392816876
1.4250000000	1.0123686925
1.4300000000	0.9097160758
1.4350000000	0.8053657875
1.4400000000	0.4748779821
1.4450000000	-0.3810246167
1.4500000000	-1.9467263301
1.4550000000	-0.7069641035
1.4600000000	1.7764090725
1.4650000000	1.0809323720
1.4700000000	-0.4615161076
1.4750000000	-2.8195564756
1.4800000000	-1.2290104788
1.4850000000	2.2132383281
1.4900000000	1.7905309563
1.4950000000	1.1666450104
1.5000000000	0.8251549569
1.5050000000	0.6396467253
1.5100000000	0.5332963881
1.5150000000	0.4678369991
1.5200000000	0.4247793900
1.5250000000	0.3973727150
1.5300000000	0.3755986573
1.5350000000	0.3596618607
1.5400000000	0.3479900036
1.5450000000	0.3396225995
1.5500000000	0.3339296667
1.5550000000	0.3305926296
1.5600000000	0.3301467808
1.5650000000	0.3313630055
1.5700000000	0.3353601869
1.5750000000	0.3428995900
1.5800000000	0.3555258570
1.5850000000	0.3762812656
1.5900000000	0.4115821476
1.5950000000	0.4755282497
1.6000000000	0.5975020663
1.6050000000	0.7949617924
1.6100000000	0.8825607197
1.6150000000	0.7129262382
1.6200000000	0.5595460153
1.6250000000	0.4834878421
1.6300000000	0.4502500341
1.6350000000	0.4383716743
1.6400000000	0.4382428229
1.6450000000	0.4455168868
1.6500000000	0.4581417055
1.6550000000	0.4752602577
1.6600000000	0.4965406643
1.6650000000	0.5220220032
1.6700000000	0.5519938895
1.6750000000	0.5869599487
1.6800000000	0.6276349256
1.6850000000	0.6749702530
1.6900000000	0.7301865153
1.6950000000	0.7944436187
1.7000000000	0.8701894272
1.7050000000	0.9618868770
1.7100000000	1.0748286991
1.7150000000	1.2351895885
1.7200000000	1.4574029720
1.7250000000	1.7267588341
1.7300000000	2.0650343010
1.7350000000	2.4265249363
1.7400000000	2.7456765497
1.7450000000	3.1425523361
1.7500000000	3.7582744524
1.7550000000	4.6877368714
1.7600000000	6.0853718091
1.7650000000	8.2428682421
1.7700000000	11.7182412424
1.7750000000	17.5698993374
1.7800000000	27.5312662092
1.7850000000	42.1983834263
1.7900000000	52.3682749997
1.7950000000	44.5219092254
1.8000000000	29.5762439726
1.8050000000	18.6382142738
1.8100000000	12.2581576870
1.8150000000	8.5209682463
1.8200000000	6.2217679818
1.8250000000	4.7310426304
1.8300000000	3.7181987958
1.8350000000	3.0021973895
1.8400000000	2.4791523062
1.8450000000	2.0859149601
1.8500000000	1.7826327007
1.8550000000	1.5443031860
1.8600000000	1.3532462040
1.8650000000	1.1972440918
1.8700000000	1.0672771282
1.8750000000	0.9562735299
1.8800000000	0.8580151570
1.8850000000	0.7661958577
1.8900000000	0.6728015818
1.8950000000	0.5656465920
1.9000000000	0.4242229273
1.9050000000	0.1835089423
1.9100000000	-0.1660239560
1.9150000000	-0.5424556608
1.9200000000	-0.3740560390
1.9250000000	0.7258993822
1.9300000000	1.6094264894
1.9350000000	1.6811133163
1.9400000000	1.3857627214
1.9450000000	1.0873417781
1.9500000000	0.8727705018
1.9550000000	0.7288090823
1.9600000000	0.6316806843
1.9650000000	0.5673763595
1.9700000000	0.5186810674
1.9750000000	0.4829427116
1.9800000000	0.4560243489
1.9850000000	0.4350035377
1.9900000000	0.4177977061
1.9950000000	0.4027198222
2.0000000000	0.3893630867
2.0050000000	0.3825566563
2.0100000000	0.3887997186
2.0150000000	0.4037268336
2.0200000000	0.4154753825
2.0250000000	0.4234836444
2.0300000000	0.4320328001
2.0350000000	0.4429698381
2.0400000000	0.4577037430
2.0450000000	0.4771514803
2.0500000000	0.5024152856
2.0550000000	0.5346130153
2.0600000000	0.5737979610
2.0650000000	0.6162480857
2.0700000000	0.6527295683
2.0750000000	0.6759087115
2.0800000000	0.6907924191
2.0850000000	0.7085631542
2.0900000000	0.7361437036
2.0950000000	0.7756502273
2.1000000000	0.8282213987
2.1050000000	0.8926551817
2.1100000000	0.9734470519
2.1150000000	1.0737179499
2.1200000000	1.1980996416
2.1250000000	1.3532502419
2.1300000000	1.5486631812
2.1350000000	1.7979548210
2.1400000000	2.1208070717
2.1450000000	2.5459886903
2.1500000000	3.1153787711
2.1550000000	3.8881698152
2.1600000000	4.9400431311
2.1650000000	6.3350001375
2.1700000000	8.0487986787
2.1750000000	9.7591881326
2.1800000000	10.8406161820
2.1850000000	10.9623634053
2.1900000000	10.5900894358
2.1950000000	10.3429376336
2.2000000000	10.2717668061
2.2050000000	9.7777793829
2.2100000000	8.6099345822
2.2150000000	7.1265127155
2.2200000000	5.7692289399
2.2250000000	4.6821193637
2.2300000000	3.8264594853
2.2350000000	3.1468198296
2.2400000000	2.6075931772
2.2450000000	2.1867140194
2.2500000000	1.8584788638
2.2550000000	1.5995067919
2.2600000000	1.3902806444
2.2650000000	1.2145611397
2.2700000000	1.0587030501
2.2750000000	0.9131283884
2.2800000000	0.7785130955
2.2850000000	0.6717567068
2.2900000000	0.6178931735
2.2950000000	0.6255521104
2.3000000000	0.6700406604
2.3050000000	0.7135193812
2.3100000000	0.7322853867
2.3150000000	0.7275416906
2.3200000000	0.7096659398
2.3250000000	0.6892524074
2.3300000000	0.6720261987
2.3350000000	0.6599715006
2.3400000000	0.6526771303
2.3450000000	0.6480188640
2.3500000000	0.6431606886
2.3550000000	0.6362890454
2.3600000000	0.6279069272
2.3650000000	0.6202140841
2.3700000000	0.6153912999
2.3750000000	0.6145043633
2.3800000000	0.6173726654
2.3850000000	0.6229031135
2.3900000000	0.6298779494
2.3950000000	0.6372556336
2.4000000000	0.6456577796
2.4050000000	0.6574003395
2.4100000000	0.6736604617
2.4150000000	0.6959309301
2.4200000000	0.7252270999
2.4250000000	0.7624727656
2.4300000000	0.8087041579
2.4350000000	0.8652201555
2.4400000000	0.9336919536
2.4450000000	1.0162756039
2.4500000000	1.1157151147
2.4550000000	1.2354820157
2.4600000000	1.3798630561
2.4650000000	1.5540451138
2.4700000000	1.7640363144
2.4750000000	2.0159524420
2.4800000000	2.3164085818
2.4850000000	2.6683791669
2.4900000000	3.0689508403
2.4950000000	3.5036349164
2.5000000000	3.9402440187
2.5050000000	4.3437756568
2.5100000000	4.6044692729
2.5150000000	4.6615459783
2.5200000000	4.5071461919
2.5250000000	4.1895783631
2.5300000000	3.7823386650
2.5350000000	3.3498944383
2.5400000000	2.9330793601
2.5450000000	2.5520755467
2.5500000000	2.2144247451
2.5550000000	1.9210852520
2.5600000000	1.6678012731
2.5650000000	1.4540174500
2.5700000000	1.2754681304
2.5750000000	1.1296283834
2.5800000000	1.0145262721
2.5850000000	0.9277189257
2.5900000000	0.8647963428
2.5950000000	0.8193742909
2.6000000000	0.7847753075
2.6050000000	0.7600987527
2.6100000000	0.7379416303
2.6150000000	0.7180314615
2.6200000000	0.7008657982
2.6250000000	0.6869338313
2.6300000000	0.6765309710
2.6350000000	0.6697852979
2.6400000000	0.6667640191
2.6450000000	0.6675430086
2.6500000000	0.6722852136
2.6550000000	0.6810180246
2.6600000000	0.6939705048
2.6650000000	0.7113450208
2.6700000000	0.7333800200
2.6750000000	0.7603584199
2.6800000000	0.7925951016
2.6850000000	0.8304339612
2.6900000000	0.8742073097
2.6950000000	0.9242163370
2.7000000000	0.9806696621
2.7050000000	1.0503648984
2.7100000000	1.1284788908
2.7150000000	1.2144752157
2.7200000000	1.3071946568
2.7250000000	1.4047062540
2.7300000000	1.5041703012
2.7350000000	1.6017181557
2.7400000000	1.6923894695
2.7450000000	1.7709478244
2.7500000000	1.8297918959
2.7550000000	1.8637004022
2.7600000000	1.8687519502
2.7650000000	1.8439378468
2.7700000000	1.7915180654
2.7750000000	1.7165633545
2.7800000000	1.6257988847
2.7850000000	1.5263791273
2.7900000000	1.4246954375
2.7950000000	1.3258649610
2.8000000000	1.2334970656
2.8050000000	1.1395727903
2.8100000000	1.0584936275
2.8150000000	0.9900746541
2.8200000000	0.9332404436
2.8250000000	0.8865616782
2.8300000000	0.8486045344
2.8350000000	0.8181470192
2.8400000000	0.7938900699
2.8450000000	0.7759211942
2.8500000000	0.7632883740
2.8550000000	0.7556368781
2.8600000000	0.7527157491
2.8650000000	0.7543267222
2.8700000000	0.7602932745
2.8750000000	0.7704347858
2.8800000000	0.7845422789
2.8850000000	0.8023559161
2.8900000000	0.8235557898
2.8950000000	0.8477511867
2.9000000000	0.8744786970
2.9050000000	0.9095877935
2.9100000000	0.9456332950
2.9150000000	0.9812251817
2.9200000000	1.0146919578
2.9250000000	1.0440955697
2.9300000000	1.0676145097
2.9350000000	1.0828237467
2.9400000000	1.0885085816
2.9450000000	1.0840469974
2.9500000000	1.0698051650
2.9550000000	1.0470823607
2.9600000000	1.0178575259
2.9650000000	0.9844264222
2.9700000000	0.9490418609
2.9750000000	0.9136585203
2.9800000000	0.8797923567
2.9850000000	0.8485009186
2.9900000000	0.8204349904
2.9950000000	0.7959260850
3.0000000000	0.7750810856
