# energy (eV)    P(omega), $W$ = 400 nm, $h$ = 300 nm, $s$ = 20 nm, $d/W = 5$, $E_{\rm e}$ = 200 keV
0.2000000000	0.2121312589
0.2050000000	0.2140625769
0.2100000000	0.2154223216
0.2150000000	0.2161875521
0.2200000000	0.2163262621
0.2250000000	0.2157949385
0.2300000000	0.2145363714
0.2350000000	0.2124760295
0.2400000000	0.2095180678
0.2450000000	0.2055389645
0.2500000000	0.2003808122
0.2550000000	0.1938404245
0.2600000000	0.1856559266
0.2650000000	0.1942308590
0.2700000000	0.2160127680
0.2750000000	0.2471817941
0.2800000000	0.2906087248
0.2850000000	0.3546309749
0.2900000000	0.4339583946
0.2950000000	0.5476802388
0.3000000000	0.7005535986
0.3050000000	0.9348708861
0.3100000000	1.2612648552
0.3150000000	1.8928211779
0.3200000000	2.8791829696
0.3250000000	3.5544733277
0.3300000000	4.4886123523
0.3350000000	5.8128800964
0.3400000000	7.8917050926
0.3450000000	11.4582887832
0.3500000000	18.5703400759
0.3550000000	35.0337831820
0.3600000000	86.0993972414
0.3650000000	0.3902524212
0.3700000000	39.9028984158
0.3750000000	52.4707279305
0.3800000000	24.4492650266
0.3850000000	13.7723053297
0.3900000000	8.8335819812
0.3950000000	6.2247387878
0.4000000000	4.7142247092
0.4050000000	3.7294774989
0.4100000000	3.0883848462
0.4150000000	2.6655464004
0.4200000000	2.3982992242
0.4250000000	2.1884091559
0.4300000000	1.9404036721
0.4350000000	1.7441217386
0.4400000000	1.5888841944
0.4450000000	1.4654510588
0.4500000000	1.3680003321
0.4550000000	1.2907230856
0.4600000000	1.2304390477
0.4650000000	1.1837835349
0.4700000000	1.1485299682
0.4750000000	1.1231197832
0.4800000000	1.1061931043
0.4850000000	1.0965578441
0.4900000000	1.0935085541
0.4950000000	1.0965030168
0.5000000000	1.1050772985
0.5050000000	1.1190249982
0.5100000000	1.1381766566
0.5150000000	1.1624313259
0.5200000000	1.1918392721
0.5250000000	1.2264417460
0.5300000000	1.2667464876
0.5350000000	1.3129795157
0.5400000000	1.3655469822
0.5450000000	1.4249827841
0.5500000000	1.4920408945
0.5550000000	1.5675471124
0.5600000000	1.6525057755
0.5650000000	1.7482087904
0.5700000000	1.8564394059
0.5750000000	1.9785194229
0.5800000000	2.1169220794
0.5850000000	2.2750263770
0.5900000000	2.4551114665
0.5950000000	2.6619733803
0.6000000000	2.9019488491
0.6050000000	3.1797860861
0.6100000000	3.5063717511
0.6150000000	3.8907331079
0.6200000000	4.3483666831
0.6250000000	4.9015052971
0.6300000000	5.5728212368
0.6350000000	6.4049203680
0.6400000000	7.4448072134
0.6450000000	8.7777780917
0.6500000000	10.5127863521
0.6550000000	12.8343969419
0.6600000000	16.0542342551
0.6650000000	20.6646402681
0.6700000000	27.6458616966
0.6750000000	38.8705528964
0.6800000000	58.7122097388
0.6850000000	98.5255637851
0.6900000000	197.4590805034
0.6950000000	554.2917039899
0.7000000000	2688.3346577250
0.7050000000	1306.9868222819
0.7100000000	335.7341979809
0.7150000000	142.7716649107
0.7200000000	77.9686354991
0.7250000000	48.9777300665
0.7300000000	33.5916073675
0.7350000000	24.4961430279
0.7400000000	18.6717670668
0.7450000000	14.7184271884
0.7500000000	11.9179699698
0.7550000000	9.8605628941
0.7600000000	8.3098569237
0.7650000000	7.1073092053
0.7700000000	6.1580266112
0.7750000000	5.3959321801
0.7800000000	4.7766287126
0.7850000000	4.2666987319
0.7900000000	3.8394966162
0.7950000000	3.4827047285
0.8000000000	3.1793354108
0.8050000000	2.9194259465
0.8100000000	2.6981645690
0.8150000000	2.5042381416
0.8200000000	2.3354040911
0.8250000000	2.1937209460
0.8300000000	2.0697001834
0.8350000000	1.9618806177
0.8400000000	1.8760144897
0.8450000000	1.8010895221
0.8500000000	1.7375586490
0.8550000000	1.6973912952
0.8600000000	1.6652118149
0.8650000000	1.6421638877
0.8700000000	1.6501489328
0.8750000000	1.6529278131
0.8800000000	1.6440056240
0.8850000000	1.5725038016
0.8900000000	1.2203183343
0.8950000000	-0.5445639243
0.9000000000	-10.0081560641
0.9050000000	-65.7606486654
0.9100000000	12.5215999536
0.9150000000	29.6615541391
0.9200000000	12.3128450806
0.9250000000	6.4053493075
0.9300000000	3.9098731165
0.9350000000	2.7176176528
0.9400000000	2.0744420800
0.9450000000	1.7179232380
0.9500000000	1.4647326644
0.9550000000	1.2952390447
0.9600000000	1.1903981405
0.9650000000	1.1038820287
0.9700000000	1.0421275478
0.9750000000	1.0000109203
0.9800000000	0.9743232788
0.9850000000	0.9695068684
0.9900000000	0.9786595271
0.9950000000	1.0160589793
1.0000000000	1.1056420850
1.0050000000	1.3149211810
1.0100000000	1.8634121633
1.0150000000	3.7430989673
1.0200000000	7.1830413987
1.0250000000	3.2668195176
1.0300000000	1.6748526525
1.0350000000	1.2004569048
1.0400000000	1.0139389110
1.0450000000	0.9264617359
1.0500000000	0.8826392829
1.0550000000	0.8596670852
1.0600000000	0.8493831045
1.0650000000	0.8475015823
1.0700000000	0.8516459795
1.0750000000	0.8609832783
1.0800000000	0.8738475002
1.0850000000	0.8913411478
1.0900000000	0.9166091887
1.0950000000	0.9460615648
1.1000000000	0.9799886697
1.1050000000	1.0184503850
1.1100000000	1.0620567414
1.1150000000	1.1113883632
1.1200000000	1.1671342178
1.1250000000	1.2298658024
1.1300000000	1.3012064608
1.1350000000	1.3822537579
1.1400000000	1.4746486932
1.1450000000	1.5804791735
1.1500000000	1.7013740923
1.1550000000	1.8423910965
1.1600000000	2.0067436246
1.1650000000	2.1986671216
1.1700000000	2.4191810690
1.1750000000	2.6437000876
1.1800000000	2.8580140909
1.1850000000	3.9636042367
1.1900000000	4.9199974098
1.1950000000	6.7489675849
1.2000000000	9.1946484738
1.2050000000	8.0624247329
1.2100000000	7.7131865203
1.2150000000	8.5856769756
1.2200000000	10.2678677102
1.2250000000	12.8516459174
1.2300000000	16.7806561798
1.2350000000	22.9960311173
1.2400000000	33.4658497710
1.2450000000	53.1804019992
1.2500000000	95.8763339259
1.2550000000	207.5402070144
1.2600000000	501.2907173755
1.2650000000	507.7803345885
1.2700000000	211.2232153887
1.2750000000	97.4991369468
1.2800000000	53.9956228289
1.2850000000	33.9547930148
1.2900000000	23.2721759410
1.2950000000	16.9604459478
1.3000000000	12.9400993090
1.3050000000	10.2331407291
1.3100000000	8.3242083550
1.3150000000	6.9447949635
1.3200000000	5.9220859458
1.3250000000	5.1522674757
1.3300000000	4.5722575663
1.3350000000	4.1433088096
1.3400000000	3.8452308567
1.3450000000	3.6723306900
1.3500000000	3.6492519164
1.3550000000	3.8322034079
1.3600000000	4.3644485079
1.3650000000	5.6107282472
1.3700000000	8.5895654898
1.3750000000	16.0035651612
1.3800000000	26.1303386846
1.3850000000	18.2574326270
1.3900000000	9.3094392803
1.3950000000	5.4053810974
1.4000000000	3.5419621030
1.4050000000	2.3950955522
1.4100000000	1.3544672423
1.4150000000	-0.2018016815
1.4200000000	-3.6903341828
1.4250000000	-12.9374253356
1.4300000000	-17.3922662577
1.4350000000	7.9624506107
1.4400000000	10.1865790671
1.4450000000	6.1064175179
1.4500000000	3.7990153992
1.4550000000	2.6185661424
1.4600000000	1.9339595896
1.4650000000	1.3941847320
1.4700000000	0.8186199621
1.4750000000	0.9582630187
1.4800000000	1.3985384723
1.4850000000	1.2701079307
1.4900000000	1.1251803955
1.4950000000	1.0313819933
1.5000000000	0.9697248133
1.5050000000	0.9289514873
1.5100000000	0.9012178777
1.5150000000	0.8861173850
1.5200000000	0.8750021862
1.5250000000	0.8710532843
1.5300000000	0.8746575351
1.5350000000	0.8874355797
1.5400000000	0.9134136792
1.5450000000	0.9615286738
1.5500000000	1.0518625398
1.5550000000	1.2244445564
1.5600000000	1.4835266804
1.5650000000	1.5249752643
1.5700000000	1.2909501056
1.5750000000	1.1266318412
1.5800000000	1.0555986137
1.5850000000	1.0330533969
1.5900000000	1.0356356777
1.5950000000	1.0531975187
1.6000000000	1.0813147117
1.6050000000	1.1184573863
1.6100000000	1.1634857470
1.6150000000	1.2162242415
1.6200000000	1.2775102018
1.6250000000	1.3480649022
1.6300000000	1.4290784498
1.6350000000	1.5220855237
1.6400000000	1.6290499341
1.6450000000	1.7524799202
1.6500000000	1.8955235410
1.6550000000	2.0621715252
1.6600000000	2.2575931506
1.6650000000	2.4884612593
1.6700000000	2.7612595842
1.6750000000	3.0919146518
1.6800000000	3.4944937421
1.6850000000	3.9911286945
1.6900000000	4.6132414051
1.6950000000	5.4069326058
1.7000000000	6.4415929417
1.7050000000	7.8687439590
1.7100000000	9.8595334830
1.7150000000	12.7525641443
1.7200000000	17.1605170591
1.7250000000	24.1519617895
1.7300000000	34.8967197620
1.7350000000	48.7029809865
1.7400000000	66.1918985196
1.7450000000	96.8764386773
1.7500000000	136.6911268217
1.7550000000	138.8973373779
1.7600000000	97.4431701956
1.7650000000	60.6946081807
1.7700000000	38.9045559110
1.7750000000	26.5138036554
1.7800000000	19.1908926757
1.7850000000	14.6853780638
1.7900000000	11.8894052692
1.7950000000	10.2861394769
1.8000000000	9.6328138823
1.8050000000	9.4197602725
1.8100000000	8.3784125431
1.8150000000	6.4954616931
1.8200000000	4.9912246881
1.8250000000	4.2143555490
1.8300000000	3.6695303266
1.8350000000	3.1854850080
1.8400000000	2.7907141245
1.8450000000	2.4773166582
1.8500000000	2.2246517791
1.8550000000	2.0158480102
1.8600000000	1.8236856370
1.8650000000	1.6611921501
1.8700000000	1.4968946521
1.8750000000	1.2599186031
1.8800000000	0.7195697680
1.8850000000	-0.4647805886
1.8900000000	-2.0577777387
1.8950000000	-2.3309071070
1.9000000000	0.2481096106
1.9050000000	2.6524919817
1.9100000000	2.9330189598
1.9150000000	2.4776770571
1.9200000000	2.0314195199
1.9250000000	1.7147678556
1.9300000000	1.5230198546
1.9350000000	1.3766447268
1.9400000000	1.2792991481
1.9450000000	1.2148886495
1.9500000000	1.1698636235
1.9550000000	1.1321256539
1.9600000000	1.0994861052
1.9650000000	1.0762917388
1.9700000000	1.0639007884
1.9750000000	1.0614939954
1.9800000000	1.0684098712
1.9850000000	1.0848605057
1.9900000000	1.1119427160
1.9950000000	1.1510237395
2.0000000000	1.2010734003
2.0050000000	1.2577091173
2.0100000000	1.2979936763
2.0150000000	1.3243878649
2.0200000000	1.3562145798
2.0250000000	1.4057779513
2.0300000000	1.4766559889
2.0350000000	1.5705903534
2.0400000000	1.6907753221
2.0450000000	1.8427908615
2.0500000000	2.0346660991
2.0550000000	2.2753159746
2.0600000000	2.5690247970
2.0650000000	2.9110936958
2.0700000000	3.3065785856
2.0750000000	3.7995874186
2.0800000000	4.4629790000
2.0850000000	5.3677473573
2.0900000000	6.5551899746
2.0950000000	7.9401043774
2.1000000000	9.1749441538
2.1050000000	9.7746302993
2.1100000000	9.4936424724
2.1150000000	8.8442135235
2.1200000000	8.3872104118
2.1250000000	8.3733646131
2.1300000000	8.8774838230
2.1350000000	9.9592239287
2.1400000000	11.7376515400
2.1450000000	14.4229959494
2.1500000000	18.3093233157
2.1550000000	23.6172754736
2.1600000000	29.9187626392
2.1650000000	35.2146077358
2.1700000000	36.4656664411
2.1750000000	32.6422833044
2.1800000000	26.3526521538
2.1850000000	20.3321826869
2.1900000000	15.6253361140
2.1950000000	12.2250975981
2.2000000000	9.8399365105
2.2050000000	8.1948262198
2.2100000000	7.0531056458
2.2150000000	6.1772806004
2.2200000000	5.3918605927
2.2250000000	4.6441816253
2.2300000000	3.9669283805
2.2350000000	3.3853654958
2.2400000000	2.8928489242
2.2450000000	2.4676531889
2.2500000000	2.0881179691
2.2550000000	1.7420989391
2.2600000000	1.3960759358
2.2650000000	1.1442427680
2.2700000000	1.0073041279
2.2750000000	1.0414471803
2.2800000000	1.2397089135
2.2850000000	1.4922436333
2.2900000000	1.6770220372
2.2950000000	1.7587658451
2.3000000000	1.7678677769
2.3050000000	1.7392779726
2.3100000000	1.7017256253
2.3150000000	1.6684638419
2.3200000000	1.6447296613
2.3250000000	1.6333673999
2.3300000000	1.6366556138
2.3350000000	1.6564777638
2.3400000000	1.6944496730
2.3450000000	1.7522142665
2.3500000000	1.8315184705
2.3550000000	1.9349901530
2.3600000000	2.0609188984
2.3650000000	2.2100958966
2.3700000000	2.3821083408
2.3750000000	2.5788254561
2.3800000000	2.8073455299
2.3850000000	3.0760922283
2.3900000000	3.3869317896
2.3950000000	3.7260410740
2.4000000000	4.0578746486
2.4050000000	4.3439955228
2.4100000000	4.5028806995
2.4150000000	4.5186603593
2.4200000000	4.4300469732
2.4250000000	4.3030623246
2.4300000000	4.1963188173
2.4350000000	4.1452157908
2.4400000000	4.1639067088
2.4450000000	4.2547224933
2.4500000000	4.4180039488
2.4550000000	4.6574284948
2.4600000000	4.9882877403
2.4650000000	5.4262554271
2.4700000000	5.9887568880
2.4750000000	6.6866558705
2.4800000000	7.5144086019
2.4850000000	8.4366921265
2.4900000000	9.3727571744
2.4950000000	10.1886429431
2.5000000000	10.7167466335
2.5050000000	10.7844713733
2.5100000000	10.3229435414
2.5150000000	9.4581298514
2.5200000000	8.3912428705
2.5250000000	7.2990409928
2.5300000000	6.2892525867
2.5350000000	5.4071399634
2.5400000000	4.6593573429
2.5450000000	4.0347997871
2.5500000000	3.5173871502
2.5550000000	3.0926669903
2.5600000000	2.7374995669
2.5650000000	2.4716502478
2.5700000000	2.2805663893
2.5750000000	2.1574350480
2.5800000000	2.0886090975
2.5850000000	2.0554286745
2.5900000000	2.0403849051
2.5950000000	2.0325762754
2.6000000000	2.0284862420
2.6050000000	2.0443269854
2.6100000000	2.0695974147
2.6150000000	2.1082141804
2.6200000000	2.1622575742
2.6250000000	2.2318576174
2.6300000000	2.3150482341
2.6350000000	2.4076538954
2.6400000000	2.5032955907
2.6450000000	2.5938843497
2.6500000000	2.6708532092
2.6550000000	2.7271789199
2.6600000000	2.7595992248
2.6650000000	2.7700326509
2.6700000000	2.7651739464
2.6750000000	2.7548107239
2.6800000000	2.7484269622
2.6850000000	2.7548867863
2.6900000000	2.7803656433
2.6950000000	2.8286614176
2.7000000000	2.9015973146
2.7050000000	3.0105603239
2.7100000000	3.1506179526
2.7150000000	3.3195161605
2.7200000000	3.5125898980
2.7250000000	3.7219169539
2.7300000000	3.9355331706
2.7350000000	4.1373051903
2.7400000000	4.3080479997
2.7450000000	4.4282792617
2.7500000000	4.4822942839
2.7550000000	4.4621881680
2.7600000000	4.3699866946
2.7650000000	4.2169216442
2.7700000000	4.0201736053
2.7750000000	3.7987792972
2.7800000000	3.5701928600
2.7850000000	3.3483739076
2.7900000000	3.1414167886
2.7950000000	2.9581784010
2.8000000000	2.8004916374
2.8050000000	2.6544001099
2.8100000000	2.5391661473
2.8150000000	2.4502679759
2.8200000000	2.3827930792
2.8250000000	2.3322339096
2.8300000000	2.2947610197
2.8350000000	2.2671986111
2.8400000000	2.2468640468
2.8450000000	2.2314805727
2.8500000000	2.2192197826
2.8550000000	2.2088676213
2.8600000000	2.2000104577
2.8650000000	2.1930970924
2.8700000000	2.1893224032
2.8750000000	2.1903310594
2.8800000000	2.1978528774
2.8850000000	2.2133732746
2.8900000000	2.2379040349
2.8950000000	2.2718444238
2.9000000000	2.3149128960
2.9050000000	2.3792741132
2.9100000000	2.4498122519
2.9150000000	2.5218245295
2.9200000000	2.5893670470
2.9250000000	2.6460557222
2.9300000000	2.6859639487
2.9350000000	2.7046617977
2.9400000000	2.7000733290
2.9450000000	2.6728741903
2.9500000000	2.6262398096
2.9550000000	2.5650371719
2.9600000000	2.4947992755
2.9650000000	2.4207674872
2.9700000000	2.3472518222
2.9750000000	2.2773528693
2.9800000000	2.2129801170
2.9850000000	2.1550572886
2.9900000000	2.1038006230
2.9950000000	2.0589863284
3.0000000000	2.0201712209
