# energy (eV)    P(omega), $W$ = 300 nm, $h$ = 300 nm, $s$ = 20 nm, $d/W = 5$, $E_{\rm e}$ = 200 keV
0.2000000000	0.0662149604
0.2050000000	0.0671660995
0.2100000000	0.0680601767
0.2150000000	0.0688989757
0.2200000000	0.0696840342
0.2250000000	0.0704166235
0.2300000000	0.0710976771
0.2350000000	0.0717277778
0.2400000000	0.0723070919
0.2450000000	0.0728352252
0.2500000000	0.0733113041
0.2550000000	0.0737336503
0.2600000000	0.0740998116
0.2650000000	0.0744063700
0.2700000000	0.0746486407
0.2750000000	0.0748204906
0.2800000000	0.0749139705
0.2850000000	0.0749189163
0.2900000000	0.0748222699
0.2950000000	0.0746075657
0.3000000000	0.0742536006
0.3050000000	0.0737335878
0.3100000000	0.0730131382
0.3150000000	0.0769461681
0.3200000000	0.0816178626
0.3250000000	0.0875234072
0.3300000000	0.0954259908
0.3350000000	0.1052659067
0.3400000000	0.1181527757
0.3450000000	0.1337971796
0.3500000000	0.1542713759
0.3550000000	0.1813761207
0.3600000000	0.2167932667
0.3650000000	0.2661919349
0.3700000000	0.3313917973
0.3750000000	0.4221566091
0.3800000000	0.5535230828
0.3850000000	0.7583432970
0.3900000000	1.0821605556
0.3950000000	1.6326081344
0.4000000000	2.6826649540
0.4050000000	5.0384450770
0.4100000000	11.4711205929
0.4150000000	36.8444598750
0.4200000000	23.4523929824
0.4250000000	-44.2712705391
0.4300000000	12.3370664709
0.4350000000	7.6978544999
0.4400000000	4.7128571049
0.4450000000	3.1049375570
0.4500000000	2.1786892661
0.4550000000	1.6083364470
0.4600000000	1.2366562349
0.4650000000	0.9832466544
0.4700000000	0.8040590783
0.4750000000	0.6744247403
0.4800000000	0.5782911749
0.4850000000	0.5059524313
0.4900000000	0.4507471321
0.4950000000	0.4082015208
0.5000000000	0.3752585525
0.5050000000	0.3496726126
0.5100000000	0.3300006581
0.5150000000	0.3151808719
0.5200000000	0.3040967830
0.5250000000	0.2962511489
0.5300000000	0.2911058217
0.5350000000	0.2882683326
0.5400000000	0.2874498225
0.5450000000	0.2884091347
0.5500000000	0.2910744533
0.5550000000	0.2953112621
0.5600000000	0.3010540350
0.5650000000	0.3082751062
0.5700000000	0.3169510691
0.5750000000	0.3271440112
0.5800000000	0.3389548543
0.5850000000	0.3524499152
0.5900000000	0.3677553587
0.5950000000	0.3850276374
0.6000000000	0.4044657928
0.6050000000	0.4263551289
0.6100000000	0.4509704846
0.6150000000	0.4786848573
0.6200000000	0.5099961141
0.6250000000	0.5453809410
0.6300000000	0.5855439006
0.6350000000	0.6313631883
0.6400000000	0.6837529461
0.6450000000	0.7440320216
0.6500000000	0.8139350382
0.6550000000	0.8952680845
0.6600000000	0.9908059515
0.6650000000	1.1041118485
0.6700000000	1.2393748141
0.6750000000	1.4029802407
0.6800000000	1.6035254337
0.6850000000	1.8522645551
0.6900000000	2.1666425623
0.6950000000	2.5710496393
0.7000000000	3.1042524316
0.7050000000	3.8255132360
0.7100000000	4.8352761700
0.7150000000	6.3123658468
0.7200000000	8.5897711935
0.7250000000	12.3715187994
0.7300000000	19.3155911314
0.7350000000	34.1796157671
0.7400000000	74.9609308049
0.7450000000	248.8634670920
0.7500000000	771.5523114378
0.7550000000	194.2469270878
0.7600000000	64.3792603685
0.7650000000	30.8707675892
0.7700000000	17.9674524429
0.7750000000	11.7361884345
0.7800000000	8.2659157064
0.7850000000	6.1441182105
0.7900000000	4.7507708268
0.7950000000	3.7894637460
0.8000000000	3.0981784440
0.8050000000	2.5831504744
0.8100000000	2.1902784834
0.8150000000	1.8787198277
0.8200000000	1.6327520999
0.8250000000	1.4346460320
0.8300000000	1.2723117484
0.8350000000	1.1388136817
0.8400000000	1.0268770944
0.8450000000	0.9329273501
0.8500000000	0.8535061507
0.8550000000	0.7849497726
0.8600000000	0.7264244162
0.8650000000	0.6764456272
0.8700000000	0.6322719139
0.8750000000	0.5947155408
0.8800000000	0.5628770023
0.8850000000	0.5343289859
0.8900000000	0.5114894540
0.8950000000	0.4907100417
0.9000000000	0.4743080437
0.9050000000	0.4631376096
0.9100000000	0.4529071450
0.9150000000	0.4468553078
0.9200000000	0.4464971283
0.9250000000	0.4463090956
0.9300000000	0.4400689553
0.9350000000	0.4205285839
0.9400000000	0.3102192960
0.9450000000	-0.1924480634
0.9500000000	-2.8478830178
0.9550000000	-16.3263335024
0.9600000000	3.8562700904
0.9650000000	6.7778297090
0.9700000000	3.0082563363
0.9750000000	1.5799774179
0.9800000000	0.9904318421
0.9850000000	0.7146231812
0.9900000000	0.5556272914
0.9950000000	0.4591836718
1.0000000000	0.3975926746
1.0050000000	0.3585622884
1.0100000000	0.3282700456
1.0150000000	0.3061266694
1.0200000000	0.2912185657
1.0250000000	0.2786726912
1.0300000000	0.2691205909
1.0350000000	0.2618685372
1.0400000000	0.2572363226
1.0450000000	0.2533416147
1.0500000000	0.2507205461
1.0550000000	0.2492230230
1.0600000000	0.2491953057
1.0650000000	0.2496739100
1.0700000000	0.2510478573
1.0750000000	0.2533217063
1.0800000000	0.2567504440
1.0850000000	0.2611094356
1.0900000000	0.2676068386
1.0950000000	0.2753336492
1.1000000000	0.2845611334
1.1050000000	0.2951707326
1.1100000000	0.3075090105
1.1150000000	0.3218493986
1.1200000000	0.3385274266
1.1250000000	0.3579259479
1.1300000000	0.3806236827
1.1350000000	0.4073194806
1.1400000000	0.4388222804
1.1450000000	0.4765497074
1.1500000000	0.5220922865
1.1550000000	0.5777263623
1.1600000000	0.6466629285
1.1650000000	0.7330807514
1.1700000000	0.8447450215
1.1750000000	0.9920191978
1.1800000000	1.1920111238
1.1850000000	1.4728251631
1.1900000000	1.8875074617
1.1950000000	2.5377292408
1.2000000000	3.6397144184
1.2050000000	5.7211028514
1.2100000000	10.2986605834
1.2150000000	22.6733213475
1.2200000000	55.6083571081
1.2250000000	50.0099728750
1.2300000000	20.0079772190
1.2350000000	9.4335918709
1.2400000000	5.4303305453
1.2450000000	3.5957211959
1.2500000000	2.6318777134
1.2550000000	2.0801149470
1.2600000000	1.7494726464
1.2650000000	1.5482344570
1.2700000000	1.4358747366
1.2750000000	1.3862482906
1.2800000000	1.3875339179
1.2850000000	1.4353995471
1.2900000000	1.5311487405
1.2950000000	1.6802378129
1.3000000000	1.8997999996
1.3050000000	2.2121397344
1.3100000000	2.6575977656
1.3150000000	3.3056771265
1.3200000000	4.2808136233
1.3250000000	5.8206397816
1.3300000000	8.4438184628
1.3350000000	13.3546056357
1.3400000000	23.8496252665
1.3450000000	49.9094522281
1.3500000000	106.0253695731
1.3550000000	98.9481982192
1.3600000000	45.6471576186
1.3650000000	22.4314306657
1.3700000000	12.8641400518
1.3750000000	8.2720233985
1.3800000000	5.7680593661
1.3850000000	4.2599484431
1.3900000000	3.2884652223
1.3950000000	2.6260832136
1.4000000000	2.1557170299
1.4050000000	1.8112901630
1.4100000000	1.5531798853
1.4150000000	1.3584225719
1.4200000000	1.2119742571
1.4250000000	1.1139059311
1.4300000000	1.0780446738
1.4350000000	1.0981454456
1.4400000000	0.8459440879
1.4450000000	0.0733322203
1.4500000000	-1.1808597317
1.4550000000	-0.3309507025
1.4600000000	1.4304352271
1.4650000000	0.7743251001
1.4700000000	-0.7317146408
1.4750000000	-3.2016657851
1.4800000000	-1.4249719781
1.4850000000	2.3418974860
1.4900000000	1.8983540384
1.4950000000	1.2287432721
1.5000000000	0.8633317683
1.5050000000	0.6665718533
1.5100000000	0.5544250001
1.5150000000	0.4863188669
1.5200000000	0.4423239928
1.5250000000	0.4149890527
1.5300000000	0.3941088926
1.5350000000	0.3797169604
1.5400000000	0.3702377261
1.5450000000	0.3648259300
1.5500000000	0.3629358628
1.5550000000	0.3645816091
1.5600000000	0.3707355583
1.5650000000	0.3808991240
1.5700000000	0.3973544738
1.5750000000	0.4228857514
1.5800000000	0.4627205137
1.5850000000	0.5270344817
1.5900000000	0.6372663567
1.5950000000	0.8408584567
1.6000000000	1.2380233986
1.6050000000	1.8947245012
1.6100000000	2.1988650553
1.6150000000	1.6287211230
1.6200000000	1.0938571717
1.6250000000	0.8115200238
1.6300000000	0.6697555091
1.6350000000	0.5967672096
1.6400000000	0.5597688085
1.6450000000	0.5435218380
1.6500000000	0.5403952613
1.6550000000	0.5468142711
1.6600000000	0.5606452316
1.6650000000	0.5809137036
1.6700000000	0.6072490242
1.6750000000	0.6396530443
1.6800000000	0.6784151383
1.6850000000	0.7239843218
1.6900000000	0.7767572820
1.6950000000	0.8359827613
1.7000000000	0.9006639297
1.7050000000	0.9669399247
1.7100000000	1.0425595817
1.7150000000	1.2305838296
1.7200000000	1.5605163682
1.7250000000	1.8627606201
1.7300000000	2.1870894850
1.7350000000	2.5434680081
1.7400000000	2.8931872816
1.7450000000	3.3423911955
1.7500000000	4.0216879527
1.7550000000	5.0327413237
1.7600000000	6.5454594860
1.7650000000	8.8773252168
1.7700000000	12.6335519214
1.7750000000	18.9618199771
1.7800000000	29.7450715829
1.7850000000	45.6478669787
1.7900000000	56.7281196628
1.7950000000	48.3051534715
1.8000000000	32.1484764487
1.8050000000	20.3025335786
1.8100000000	13.3859717465
1.8150000000	9.3319007216
1.8200000000	6.8369697346
1.8250000000	5.2194980387
1.8300000000	4.1212915559
1.8350000000	3.3461328306
1.8400000000	2.7813946460
1.8450000000	2.3587552112
1.8500000000	2.0351567778
1.8550000000	1.7836571173
1.8600000000	1.5854617664
1.8650000000	1.4277978524
1.8700000000	1.3015812786
1.8750000000	1.2001432657
1.8800000000	1.1181944947
1.8850000000	1.0510618452
1.8900000000	0.9933611139
1.8950000000	0.9370580100
1.9000000000	0.8682785184
1.9050000000	0.7380530390
1.9100000000	0.5588433832
1.9150000000	0.4640780171
1.9200000000	1.1341080441
1.9250000000	2.9854711428
1.9300000000	4.4537190884
1.9350000000	4.3851375097
1.9400000000	3.4489793636
1.9450000000	2.5413568957
1.9500000000	1.9041058819
1.9550000000	1.4865618323
1.9600000000	1.2106372318
1.9650000000	1.0259558184
1.9700000000	0.8926322326
1.9750000000	0.7949010279
1.9800000000	0.7202869621
1.9850000000	0.6597389002
1.9900000000	0.6063308508
1.9950000000	0.5540180556
2.0000000000	0.5019193765
2.0050000000	0.4686341721
2.0100000000	0.4877035786
2.0150000000	0.5402364207
2.0200000000	0.5726268122
2.0250000000	0.5812291539
2.0300000000	0.5831633161
2.0350000000	0.5866836364
2.0400000000	0.5948566774
2.0450000000	0.6084638325
2.0500000000	0.6280116789
2.0550000000	0.6539601365
2.0600000000	0.6863095322
2.0650000000	0.7231015450
2.0700000000	0.7594796113
2.0750000000	0.7918045237
2.0800000000	0.8232886161
2.0850000000	0.8605745520
2.0900000000	0.9081155321
2.0950000000	0.9677874754
2.1000000000	1.0416092477
2.1050000000	1.1289129423
2.1100000000	1.2358343793
2.1150000000	1.3668590687
2.1200000000	1.5282772984
2.1250000000	1.7289120811
2.1300000000	1.9812002797
2.1350000000	2.3028978509
2.1400000000	2.7196438268
2.1450000000	3.2689226328
2.1500000000	4.0053504685
2.1550000000	5.0062242145
2.1600000000	6.3704717708
2.1650000000	8.1818729874
2.1700000000	10.4069126050
2.1750000000	12.6190651000
2.1800000000	13.9858891024
2.1850000000	14.0568892944
2.1900000000	13.4353913658
2.1950000000	12.9517463729
2.2000000000	12.7372597000
2.2050000000	12.1415516802
2.2100000000	10.8768604861
2.2150000000	9.3219361114
2.2200000000	7.9260709423
2.2250000000	6.7724332375
2.2300000000	5.7565796937
2.2350000000	4.8380850149
2.2400000000	4.0491305970
2.2450000000	3.4178637728
2.2500000000	2.9339458344
2.2550000000	2.5704264337
2.2600000000	2.2982499615
2.2650000000	2.0882988163
2.2700000000	1.9090947726
2.2750000000	1.7296231078
2.2800000000	1.5363926515
2.2850000000	1.3525128611
2.2900000000	1.2254364105
2.2950000000	1.1820262282
2.3000000000	1.1975342102
2.3050000000	1.2212193875
2.3100000000	1.2232063444
2.3150000000	1.2037372302
2.3200000000	1.1757444252
2.3250000000	1.1525856370
2.3300000000	1.1410954984
2.3350000000	1.1424476175
2.3400000000	1.1528125148
2.3450000000	1.1635237399
2.3500000000	1.1636686235
2.3550000000	1.1462849586
2.3600000000	1.1133430868
2.3650000000	1.0734529470
2.3700000000	1.0354894412
2.3750000000	1.0047531815
2.3800000000	0.9829661843
2.3850000000	0.9696416925
2.3900000000	0.9636694344
2.3950000000	0.9637631951
2.4000000000	0.9702731859
2.4050000000	0.9853433599
2.4100000000	1.0096920939
2.4150000000	1.0443139565
2.4200000000	1.0898066560
2.4250000000	1.1472166727
2.4300000000	1.2180703751
2.4350000000	1.3044153388
2.4400000000	1.4088937906
2.4450000000	1.5348794191
2.4500000000	1.6866286180
2.4550000000	1.8694912820
2.4600000000	2.0900404274
2.4650000000	2.3561623430
2.4700000000	2.6769017523
2.4750000000	3.0613185703
2.4800000000	3.5187694475
2.4850000000	4.0529581138
2.4900000000	4.6586630261
2.4950000000	5.3142085316
2.5000000000	5.9737550996
2.5050000000	6.5907352150
2.5100000000	7.0075558934
2.5150000000	7.1333208645
2.5200000000	6.9463651404
2.5250000000	6.5043991927
2.5300000000	5.9079696504
2.5350000000	5.2540535460
2.5400000000	4.6111662111
2.5450000000	4.0180207905
2.5500000000	3.4918330910
2.5550000000	3.0365225530
2.5600000000	2.6458290919
2.5650000000	2.3173553023
2.5700000000	2.0433673121
2.5750000000	1.8190235821
2.5800000000	1.6407076979
2.5850000000	1.5044886258
2.5900000000	1.4039011516
2.5950000000	1.3298559125
2.6000000000	1.2728889539
2.6050000000	1.2324034666
2.6100000000	1.1973487397
2.6150000000	1.1671690831
2.6200000000	1.1424606591
2.6250000000	1.1238840086
2.6300000000	1.1118802300
2.6350000000	1.1066743947
2.6400000000	1.1083972475
2.6450000000	1.1171704136
2.6500000000	1.1332319943
2.6550000000	1.1566486983
2.6600000000	1.1877798575
2.6650000000	1.2269884894
2.6700000000	1.2747205391
2.6750000000	1.3315163855
2.6800000000	1.3979749620
2.6850000000	1.4747089200
2.6900000000	1.5622200501
2.6950000000	1.6607993079
2.7000000000	1.7703467217
2.7050000000	1.9033213587
2.7100000000	2.0484437005
2.7150000000	2.2028873162
2.7200000000	2.3625415317
2.7250000000	2.5222425576
2.7300000000	2.6761641617
2.7350000000	2.8181536025
2.7400000000	2.9418125511
2.7450000000	3.0414619700
2.7500000000	3.1082923160
2.7550000000	3.1369708153
2.7600000000	3.1234510007
2.7650000000	3.0672625894
2.7700000000	2.9721708742
2.7750000000	2.8457195550
2.7800000000	2.6977412719
2.7850000000	2.5386671005
2.7900000000	2.3778562903
2.7950000000	2.2228140982
2.8000000000	2.0788474793
2.8050000000	1.9331872868
2.8100000000	1.8085216442
2.8150000000	1.7045161810
2.8200000000	1.6194966772
2.8250000000	1.5512565376
2.8300000000	1.4975729816
2.8350000000	1.4565436966
2.8400000000	1.4261661436
2.8450000000	1.4065100087
2.8500000000	1.3961199589
2.8550000000	1.3944414592
2.8600000000	1.4010604182
2.8650000000	1.4156037796
2.8700000000	1.4376542165
2.8750000000	1.4666822319
2.8800000000	1.5019936615
2.8850000000	1.5426857291
2.8900000000	1.5876732297
2.8950000000	1.6357288468
2.9000000000	1.6855619371
2.9050000000	1.7454443048
2.9100000000	1.8028891735
2.9150000000	1.8560897458
2.9200000000	1.9031498712
2.9250000000	1.9419181533
2.9300000000	1.9704136018
2.9350000000	1.9855552924
2.9400000000	1.9860135545
2.9450000000	1.9712220243
2.9500000000	1.9420340903
2.9550000000	1.9006680078
2.9600000000	1.8503255314
2.9650000000	1.7946345023
2.9700000000	1.7371029887
2.9750000000	1.6807289907
2.9800000000	1.6278096745
2.9850000000	1.5799123232
2.9900000000	1.5379795956
2.9950000000	1.5024539759
3.0000000000	1.4734285502
