# energy (eV)    P(omega), $W$ = 300 nm, $h$ = 300 nm, $s$ = 20 nm, $d/W = 5$, $E_{\rm e}$ = 200 keV
0.2000000000	0.1512220838
0.2050000000	0.1534878959
0.2100000000	0.1556062389
0.2150000000	0.1575819205
0.2200000000	0.1594190463
0.2250000000	0.1611211020
0.2300000000	0.1626907523
0.2350000000	0.1641297638
0.2400000000	0.1654388079
0.2450000000	0.1666173881
0.2500000000	0.1676635655
0.2550000000	0.1685736310
0.2600000000	0.1693420170
0.2650000000	0.1699606349
0.2700000000	0.1704185280
0.2750000000	0.1707011738
0.2800000000	0.1707897200
0.2850000000	0.1706599253
0.2900000000	0.1702807412
0.2950000000	0.1696127687
0.3000000000	0.1686056801
0.3050000000	0.1671953439
0.3100000000	0.1652996547
0.3150000000	0.1746990095
0.3200000000	0.1858619665
0.3250000000	0.1999810315
0.3300000000	0.2188897970
0.3350000000	0.2424262868
0.3400000000	0.2732477028
0.3450000000	0.3106305695
0.3500000000	0.3595329220
0.3550000000	0.4242380950
0.3600000000	0.5087207541
0.3650000000	0.6264957129
0.3700000000	0.7817846255
0.3750000000	0.9977904662
0.3800000000	1.3101869968
0.3850000000	1.7969479848
0.3900000000	2.5659011442
0.3950000000	3.8720247890
0.4000000000	6.3619023794
0.4050000000	11.9440269832
0.4100000000	27.1752070671
0.4150000000	87.2095959247
0.4200000000	55.5656103749
0.4250000000	-104.5838151599
0.4300000000	29.0807764258
0.4350000000	18.1213273658
0.4400000000	11.0771555438
0.4450000000	7.2854364353
0.4500000000	5.1026797380
0.4550000000	3.7594494860
0.4600000000	2.8846257471
0.4650000000	2.2884925571
0.4700000000	1.8671604030
0.4750000000	1.5624457036
0.4800000000	1.3365254688
0.4850000000	1.1665256188
0.4900000000	1.0367586451
0.4950000000	0.9366936076
0.5000000000	0.8591322452
0.5050000000	0.7987933647
0.5100000000	0.7522761453
0.5150000000	0.7170767764
0.5200000000	0.6905787448
0.5250000000	0.6716026546
0.5300000000	0.6588830248
0.5350000000	0.6514942347
0.5400000000	0.6487538604
0.5450000000	0.6500918363
0.5500000000	0.6553274764
0.5550000000	0.6641393484
0.5600000000	0.6763630305
0.5650000000	0.6919245445
0.5700000000	0.7107564063
0.5750000000	0.7329901157
0.5800000000	0.7588394826
0.5850000000	0.7884439025
0.5900000000	0.8220738085
0.5950000000	0.8600694989
0.6000000000	0.9028644515
0.6050000000	0.9510871717
0.6100000000	1.0053371377
0.6150000000	1.0664335086
0.6200000000	1.1354690235
0.6250000000	1.2134913285
0.6300000000	1.3020490003
0.6350000000	1.4030721219
0.6400000000	1.5185688826
0.6450000000	1.6514381221
0.6500000000	1.8054912320
0.6550000000	1.9846956821
0.6600000000	2.1951494949
0.6650000000	2.4446768403
0.6700000000	2.7424763228
0.6750000000	3.1025749154
0.6800000000	3.5438362830
0.6850000000	4.0909711290
0.6900000000	4.7822520981
0.6950000000	5.6712061543
0.7000000000	6.8428610517
0.7050000000	8.4272013077
0.7100000000	10.6444694014
0.7150000000	13.8867212785
0.7200000000	18.8838422459
0.7250000000	27.1786963817
0.7300000000	42.4039259827
0.7350000000	74.9813671408
0.7400000000	164.3255179001
0.7450000000	545.1424345408
0.7500000000	1688.8404793469
0.7550000000	424.8610450058
0.7600000000	140.7030476643
0.7650000000	67.4163604763
0.7700000000	39.2066405833
0.7750000000	25.5888706654
0.7800000000	18.0078278012
0.7850000000	13.3743203450
0.7900000000	10.3326747381
0.7950000000	8.2349277398
0.8000000000	6.7269396377
0.8050000000	5.6038289229
0.8100000000	4.7473975406
0.8150000000	4.0684937506
0.8200000000	3.5326856001
0.8250000000	3.1012607676
0.8300000000	2.7478573311
0.8350000000	2.4572952120
0.8400000000	2.2137202625
0.8450000000	2.0093297917
0.8500000000	1.8365612582
0.8550000000	1.6874697098
0.8600000000	1.5601953787
0.8650000000	1.4514816642
0.8700000000	1.3554244143
0.8750000000	1.2737139017
0.8800000000	1.2043806181
0.8850000000	1.1422195480
0.8900000000	1.0923554498
0.8950000000	1.0469944732
0.9000000000	1.0110438782
0.9050000000	0.9862848269
0.9100000000	0.9635954901
0.9150000000	0.9498330724
0.9200000000	0.9481778673
0.9250000000	0.9469506802
0.9300000000	0.9330613042
0.9350000000	0.8913804759
0.9400000000	0.6591749670
0.9450000000	-0.3962665444
0.9500000000	-5.9662561242
0.9550000000	-34.2180713684
0.9600000000	8.0742531834
0.9650000000	14.1835511147
0.9700000000	6.2909321574
0.9750000000	3.3025879792
0.9800000000	2.0697790058
0.9850000000	1.4931916019
0.9900000000	1.1609747762
0.9950000000	0.9595265967
1.0000000000	0.8309013876
1.0050000000	0.7493561127
1.0100000000	0.6861383318
1.0150000000	0.6399536951
1.0200000000	0.6088458038
1.0250000000	0.5827352343
1.0300000000	0.5628994186
1.0350000000	0.5478937178
1.0400000000	0.5383536712
1.0450000000	0.5304209954
1.0500000000	0.5251881267
1.0550000000	0.5223452000
1.0600000000	0.5225924263
1.0650000000	0.5239808814
1.0700000000	0.5273051264
1.0750000000	0.5325789645
1.0800000000	0.5403237848
1.0850000000	0.5501523104
1.0900000000	0.5646508501
1.0950000000	0.5818686976
1.1000000000	0.6023835716
1.1050000000	0.6260275327
1.1100000000	0.6535474276
1.1150000000	0.6855620415
1.1200000000	0.7228049441
1.1250000000	0.7662348506
1.1300000000	0.8171361295
1.1350000000	0.8771076349
1.1400000000	0.9479701037
1.1450000000	1.0330476522
1.1500000000	1.1359546670
1.1550000000	1.2619165208
1.1600000000	1.4183052444
1.1650000000	1.6146864325
1.1700000000	1.8689793898
1.1750000000	2.2049720942
1.1800000000	2.6619901515
1.1850000000	3.3046746182
1.1900000000	4.2548519245
1.1950000000	5.7464378127
1.2000000000	8.2763772871
1.2050000000	13.0572896842
1.2100000000	23.5743340368
1.2150000000	52.0017966540
1.2200000000	127.6228079302
1.2250000000	114.6613053318
1.2300000000	45.7378269665
1.2350000000	21.4518418811
1.2400000000	12.2529096454
1.2450000000	8.0292303006
1.2500000000	5.8010731274
1.2550000000	4.5151646750
1.2600000000	3.7326908827
1.2650000000	3.2425769712
1.2700000000	2.9503500895
1.2750000000	2.7947570640
1.2800000000	2.7466418645
1.2850000000	2.7932740013
1.2900000000	2.9336323772
1.2950000000	3.1750180389
1.3000000000	3.5472304720
1.3050000000	4.0884858722
1.3100000000	4.8700303849
1.3150000000	6.0151358068
1.3200000000	7.7454114421
1.3250000000	10.4832418630
1.3300000000	15.1536929062
1.3350000000	23.9015283659
1.3400000000	42.5982057814
1.3450000000	89.0130599355
1.3500000000	188.9074390744
1.3550000000	176.1836361164
1.3600000000	81.2468016898
1.3650000000	39.9195498646
1.3700000000	22.8934162423
1.3750000000	14.7225591434
1.3800000000	10.2673640452
1.3850000000	7.5836028178
1.3900000000	5.8538873164
1.3950000000	4.6737575933
1.4000000000	3.8343113440
1.4050000000	3.2177640112
1.4100000000	2.7527803041
1.4150000000	2.3967481700
1.4200000000	2.1196109225
1.4250000000	1.9134001552
1.4300000000	1.7822509721
1.4350000000	1.6956223626
1.4400000000	1.1657580182
1.4450000000	-0.3020955398
1.4500000000	-2.8561770013
1.4550000000	-0.9543205301
1.4600000000	2.9051908243
1.4650000000	1.6829765339
1.4700000000	-1.0738392579
1.4750000000	-5.4349876908
1.4800000000	-2.3977893906
1.4850000000	4.1085336650
1.4900000000	3.3259847869
1.4950000000	2.1579124291
1.5000000000	1.5193071710
1.5050000000	1.1735975593
1.5100000000	0.9757042071
1.5150000000	0.8543724586
1.5200000000	0.7749029110
1.5250000000	0.7244637275
1.5300000000	0.6847175089
1.5350000000	0.6558466243
1.5400000000	0.6349350667
1.5450000000	0.6202442040
1.5500000000	0.6105724001
1.5550000000	0.6054194293
1.5600000000	0.6058222768
1.5650000000	0.6096914808
1.5700000000	0.6192620788
1.5750000000	0.6362929579
1.5800000000	0.6642863866
1.5850000000	0.7101385362
1.5900000000	0.7884381520
1.5950000000	0.9314362127
1.6000000000	1.2070987807
1.6050000000	1.6595216220
1.6100000000	1.8704457614
1.6150000000	1.4890492353
1.6200000000	1.1354229206
1.6250000000	0.9556705006
1.6300000000	0.8731671606
1.6350000000	0.8391551714
1.6400000000	0.8315495897
1.6450000000	0.8402484336
1.6500000000	0.8603345626
1.6550000000	0.8897874339
1.6600000000	0.9275775100
1.6650000000	0.9735649716
1.6700000000	1.0281306389
1.6750000000	1.0920606440
1.6800000000	1.1665052114
1.6850000000	1.2529997860
1.6900000000	1.3533289511
1.6950000000	1.4685274418
1.7000000000	1.6011324692
1.7050000000	1.7545494572
1.7100000000	1.9404910377
1.7150000000	2.2530767521
1.7200000000	2.7252517554
1.7250000000	3.2356147915
1.7300000000	3.8424382219
1.7350000000	4.4989830943
1.7400000000	5.1050942314
1.7450000000	5.8689777372
1.7500000000	7.0399837680
1.7550000000	8.7963697718
1.7600000000	11.4315198414
1.7650000000	15.4968914421
1.7700000000	22.0457537409
1.7750000000	33.0759558409
1.7800000000	51.8622999506
1.7850000000	79.5460647161
1.7900000000	98.7889304979
1.7950000000	84.0536780053
1.8000000000	55.8862223028
1.8050000000	35.2524332402
1.8100000000	23.2105101409
1.8150000000	16.1541893235
1.8200000000	11.8119614164
1.8250000000	8.9963833927
1.8300000000	7.0836618304
1.8350000000	5.7321286445
1.8400000000	4.7456776795
1.8450000000	4.0051984339
1.8500000000	3.4355467636
1.8550000000	2.9896088244
1.8600000000	2.6342466949
1.8650000000	2.3466829204
1.8700000000	2.1103211213
1.8750000000	1.9124318106
1.8800000000	1.7421808817
1.8850000000	1.5890066711
1.8900000000	1.4398389137
1.8950000000	1.2748783245
1.9000000000	1.0605759453
1.9050000000	0.6874447554
1.9100000000	0.1516344993
1.9150000000	-0.3640157685
1.9200000000	0.2603008341
1.9250000000	2.7555351262
1.9300000000	4.7488008224
1.9350000000	4.7932333124
1.9400000000	3.8476599657
1.9450000000	2.9160321454
1.9500000000	2.2557290708
1.9550000000	1.8189722570
1.9600000000	1.5279249294
1.9650000000	1.3339884934
1.9700000000	1.1912285363
1.9750000000	1.0865451062
1.9800000000	1.0070911341
1.9850000000	0.9436535271
1.9900000000	0.8893740640
1.9950000000	0.8384390719
2.0000000000	0.7898037878
2.0050000000	0.7608828204
2.0100000000	0.7803222924
2.0150000000	0.8310184944
2.0200000000	0.8652695488
2.0250000000	0.8801540515
2.0300000000	0.8915013531
2.0350000000	0.9066358027
2.0400000000	0.9291189569
2.0450000000	0.9604619601
2.0500000000	1.0022007204
2.0550000000	1.0558625176
2.0600000000	1.1215345776
2.0650000000	1.1939761949
2.0700000000	1.2601421536
2.0750000000	1.3098452138
2.0800000000	1.3506598269
2.0850000000	1.3990461214
2.0900000000	1.4654740324
2.0950000000	1.5535728524
2.1000000000	1.6661223765
2.1050000000	1.8014261081
2.1100000000	1.9689111772
2.1150000000	2.1753344807
2.1200000000	2.4304141009
2.1250000000	2.7479392192
2.1300000000	3.1474478984
2.1350000000	3.6568948548
2.1400000000	4.3166545017
2.1450000000	5.1857418217
2.1500000000	6.3500969255
2.1550000000	7.9312727524
2.1600000000	10.0847884974
2.1650000000	12.9424389233
2.1700000000	16.4539819913
2.1750000000	19.9555308892
2.1800000000	22.1545074564
2.1850000000	22.3604898984
2.1900000000	21.5254272953
2.1950000000	20.9329538827
2.2000000000	20.7259096790
2.2050000000	19.7520389262
2.2100000000	17.5182900209
2.2150000000	14.7077545461
2.2200000000	12.1514262295
2.2250000000	10.0800189537
2.2300000000	8.3794359767
2.2350000000	6.9561442762
2.2400000000	5.7874898896
2.2450000000	4.8646898620
2.2500000000	4.1495727986
2.2550000000	3.5961214800
2.2600000000	3.1617358068
2.2650000000	2.8080153351
2.2700000000	2.4986086343
2.2750000000	2.2027931416
2.2800000000	1.9134303190
2.2850000000	1.6658490759
2.2900000000	1.5202294198
2.2950000000	1.5035499158
2.3000000000	1.5693608563
2.3050000000	1.6387179329
2.3100000000	1.6632253192
2.3150000000	1.6444052389
2.3200000000	1.6031827911
2.3250000000	1.5610643480
2.3300000000	1.5294672245
2.3350000000	1.5117243412
2.3400000000	1.5053272896
2.3450000000	1.5029789733
2.3500000000	1.4952802534
2.3550000000	1.4762267061
2.3600000000	1.4474795058
2.3650000000	1.4163626838
2.3700000000	1.3903203600
2.3750000000	1.3734900918
2.3800000000	1.3665362248
2.3850000000	1.3677967067
2.3900000000	1.3751484080
2.3950000000	1.3865566662
2.4000000000	1.4030347433
2.4050000000	1.4288842342
2.4100000000	1.4659336797
2.4150000000	1.5167074611
2.4200000000	1.5829460247
2.4250000000	1.6665157051
2.4300000000	1.7697067890
2.4350000000	1.8954555451
2.4400000000	2.0475408910
2.4450000000	2.2308084265
2.4500000000	2.4513995750
2.4550000000	2.7170628898
2.4600000000	3.0373267161
2.4650000000	3.4236772642
2.4700000000	3.8893326571
2.4750000000	4.4476205231
2.4800000000	5.1126061475
2.4850000000	5.8901317537
2.4900000000	6.7729135492
2.4950000000	7.7287502191
2.5000000000	8.6881206878
2.5050000000	9.5772984338
2.5100000000	10.1603289721
2.5150000000	10.3048541550
2.5200000000	9.9887472412
2.5250000000	9.3100459040
2.5300000000	8.4245314203
2.5350000000	7.4735303923
2.5400000000	6.5503119262
2.5450000000	5.7035473455
2.5500000000	4.9528359322
2.5550000000	4.3015439940
2.5600000000	3.7403811968
2.5650000000	3.2673043520
2.5700000000	2.8722687427
2.5750000000	2.5492050618
2.5800000000	2.2934733795
2.5850000000	2.0995986967
2.5900000000	1.9580078064
2.5950000000	1.8549607181
2.6000000000	1.7760949771
2.6050000000	1.7198206981
2.6100000000	1.6699284042
2.6150000000	1.6257487900
2.6200000000	1.5883189167
2.6250000000	1.5587019223
2.6300000000	1.5375795850
2.6350000000	1.5252785447
2.6400000000	1.5219710063
2.6450000000	1.5278317539
2.6500000000	1.5432199080
2.6550000000	1.5682158178
2.6600000000	1.6033681277
2.6650000000	1.6491987125
2.6700000000	1.7063224279
2.6750000000	1.7754580667
2.6800000000	1.8573740432
2.6850000000	1.9528571905
2.6900000000	2.0626034595
2.6950000000	2.1871455000
2.7000000000	2.3266792967
2.7050000000	2.4975313772
2.7100000000	2.6867121100
2.7150000000	2.8919126259
2.7200000000	3.1092534602
2.7250000000	3.3332178293
2.7300000000	3.5566646894
2.7350000000	3.7708534515
2.7400000000	3.9653865751
2.7450000000	4.1298887210
2.7500000000	4.2489531234
2.7550000000	4.3123816831
2.7600000000	4.3124728310
2.7650000000	4.2475305590
2.7700000000	4.1227274073
2.7750000000	3.9492318636
2.7800000000	3.7417842082
2.7850000000	3.5160624142
2.7900000000	3.2861120783
2.7950000000	3.0631912554
2.8000000000	2.8552658017
2.8050000000	2.6440678222
2.8100000000	2.4622622474
2.8150000000	2.3094420910
2.8200000000	2.1832198659
2.8250000000	2.0804215948
2.8300000000	1.9978459777
2.8350000000	1.9327678531
2.8400000000	1.8822885362
2.8450000000	1.8465841901
2.8500000000	1.8235254801
2.8550000000	1.8123071519
2.8600000000	1.8123354537
2.8650000000	1.8231067860
2.8700000000	1.8441299146
2.8750000000	1.8748438471
2.8800000000	1.9145636328
2.8850000000	1.9624210040
2.8900000000	2.0173794797
2.8950000000	2.0782111847
2.9000000000	2.1435650050
2.9050000000	2.2262076164
2.9100000000	2.3088019073
2.9150000000	2.3883989041
2.9200000000	2.4616127686
2.9250000000	2.5245366240
2.9300000000	2.5735308885
2.9350000000	2.6034915032
2.9400000000	2.6119859242
2.9450000000	2.5978258174
2.9500000000	2.5619822972
2.9550000000	2.5075035070
2.9600000000	2.4389231341
2.9650000000	2.3614609391
2.9700000000	2.2802221962
2.9750000000	2.1996091272
2.9800000000	2.1230258385
2.9850000000	2.0528248593
2.9900000000	1.9904556656
2.9950000000	1.9366212781
3.0000000000	1.8915254478
