# energy (eV)    P(omega), $W$ = 300 nm, $h$ = 300 nm, $s$ = 20 nm, $d/W = 5$, $E_{\rm e}$ = 200 keV
0.2000000000	0.0717276978
0.2050000000	0.0727580889
0.2100000000	0.0737266331
0.2150000000	0.0746352646
0.2200000000	0.0754856504
0.2250000000	0.0762791693
0.2300000000	0.0770168338
0.2350000000	0.0776992766
0.2400000000	0.0783266785
0.2450000000	0.0788986139
0.2500000000	0.0794141369
0.2550000000	0.0798714300
0.2600000000	0.0802678376
0.2650000000	0.0805996570
0.2700000000	0.0808618135
0.2750000000	0.0810476632
0.2800000000	0.0811485944
0.2850000000	0.0811535962
0.2900000000	0.0810485219
0.2950000000	0.0808155338
0.3000000000	0.0804316609
0.3050000000	0.0798678836
0.3100000000	0.0790869462
0.3150000000	0.0833478628
0.3200000000	0.0884090245
0.3250000000	0.0948069227
0.3300000000	0.1033683956
0.3350000000	0.1140287157
0.3400000000	0.1279900255
0.3450000000	0.1449387066
0.3500000000	0.1671197968
0.3550000000	0.1964841410
0.3600000000	0.2348537095
0.3650000000	0.2883701916
0.3700000000	0.3590046927
0.3750000000	0.4573347003
0.3800000000	0.5996499824
0.3850000000	0.8215403622
0.3900000000	1.1723439364
0.3950000000	1.7686625700
0.4000000000	2.9062210974
0.4050000000	5.4583009440
0.4100000000	12.4269659464
0.4150000000	39.9143876764
0.4200000000	25.4065412706
0.4250000000	-47.9595324567
0.4300000000	13.3647520784
0.4350000000	8.3390401021
0.4400000000	5.1053750545
0.4450000000	3.3635125503
0.4500000000	2.3601091563
0.4550000000	1.7422486277
0.4600000000	1.3396103270
0.4650000000	1.0650943849
0.4700000000	0.8709827831
0.4750000000	0.7305517918
0.4800000000	0.6264118080
0.4850000000	0.5480483867
0.4900000000	0.4882452928
0.4950000000	0.4421561370
0.5000000000	0.4064692425
0.5050000000	0.3787519597
0.5100000000	0.3574410447
0.5150000000	0.3413862305
0.5200000000	0.3293780759
0.5250000000	0.3208779038
0.5300000000	0.3153027485
0.5350000000	0.3122274457
0.5400000000	0.3113390718
0.5450000000	0.3123763797
0.5500000000	0.3152615479
0.5550000000	0.3198488478
0.5600000000	0.3260672737
0.5650000000	0.3338868372
0.5700000000	0.3432821579
0.5750000000	0.3543204637
0.5800000000	0.3671110358
0.5850000000	0.3817256788
0.5900000000	0.3983010139
0.5950000000	0.4170064672
0.6000000000	0.4380575873
0.6050000000	0.4617633526
0.6100000000	0.4884213994
0.6150000000	0.5184356727
0.6200000000	0.5523453468
0.6250000000	0.5906666615
0.6300000000	0.6341626373
0.6350000000	0.6837843416
0.6400000000	0.7405217620
0.6450000000	0.8058031791
0.6500000000	0.8815071452
0.6550000000	0.9695896054
0.6600000000	1.0730555952
0.6650000000	1.1957639518
0.6700000000	1.3422513021
0.6750000000	1.5194328366
0.6800000000	1.7366191852
0.6850000000	2.0059982637
0.6900000000	2.3464624300
0.6950000000	2.7844254638
0.7000000000	3.3618703994
0.7050000000	4.1429763325
0.7100000000	5.2365207885
0.7150000000	6.8361646603
0.7200000000	9.3025231355
0.7250000000	13.3980312391
0.7300000000	20.9182223346
0.7350000000	37.0154259803
0.7400000000	81.1800570370
0.7450000000	269.5096550472
0.7500000000	835.5594524094
0.7550000000	210.3608588066
0.7600000000	69.7197078632
0.7650000000	33.4314951202
0.7700000000	19.4577969776
0.7750000000	12.7096335257
0.7800000000	8.9514979652
0.7850000000	6.6536981319
0.7900000000	5.1447751223
0.7950000000	4.1037307365
0.8000000000	3.3551065074
0.8050000000	2.7973600628
0.8100000000	2.3719022296
0.8150000000	2.0345025671
0.8200000000	1.7681343287
0.8250000000	1.5535976078
0.8300000000	1.3777997550
0.8350000000	1.2332298265
0.8400000000	1.1120097391
0.8450000000	1.0102683155
0.8500000000	0.9242603945
0.8550000000	0.8500184296
0.8600000000	0.7866394087
0.8650000000	0.7325157051
0.8700000000	0.6846785665
0.8750000000	0.6440074937
0.8800000000	0.6095283674
0.8850000000	0.5786126793
0.8900000000	0.5538787120
0.8950000000	0.5313757485
0.9000000000	0.5136130554
0.9050000000	0.5015155021
0.9100000000	0.4904359066
0.9150000000	0.4838812231
0.9200000000	0.4834919497
0.9250000000	0.4832870076
0.9300000000	0.4765288056
0.9350000000	0.4553690897
0.9400000000	0.3359234528
0.9450000000	-0.2083726229
0.9500000000	-3.0837095367
0.9550000000	-17.6783036903
0.9600000000	4.1755968892
0.9650000000	7.3390656628
0.9700000000	3.2573487107
0.9750000000	1.7108028945
0.9800000000	1.0724417359
0.9850000000	0.7737957755
0.9900000000	0.6016350702
0.9950000000	0.4972060309
1.0000000000	0.4305153922
1.0050000000	0.3882532842
1.0100000000	0.3554529297
1.0150000000	0.3314761702
1.0200000000	0.3153336982
1.0250000000	0.3017491305
1.0300000000	0.2914062425
1.0350000000	0.2835538731
1.0400000000	0.2785382467
1.0450000000	0.2743212800
1.0500000000	0.2714834566
1.0550000000	0.2698622584
1.0600000000	0.2698325837
1.0650000000	0.2703512593
1.0700000000	0.2718394920
1.0750000000	0.2743022190
1.0800000000	0.2780155252
1.0850000000	0.2827362857
1.0900000000	0.2897727734
1.0950000000	0.2981406422
1.1000000000	0.3081336309
1.1050000000	0.3196234653
1.1100000000	0.3329854279
1.1150000000	0.3485156466
1.1200000000	0.3665774676
1.1250000000	0.3875856410
1.1300000000	0.4121668907
1.1350000000	0.4410780939
1.1400000000	0.4751953196
1.1450000000	0.5160540136
1.1500000000	0.5653767328
1.1550000000	0.6256288579
1.1600000000	0.7002880365
1.1650000000	0.7938800172
1.1700000000	0.9148149479
1.1750000000	1.0743169087
1.1800000000	1.2909144776
1.1850000000	1.5950460247
1.1900000000	2.0441627980
1.1950000000	2.7483796477
1.2000000000	3.9418767480
1.2050000000	6.1961114643
1.2100000000	11.1538074165
1.2150000000	24.5560962322
1.2200000000	60.2260797357
1.2250000000	54.1626192766
1.2300000000	21.6691826988
1.2350000000	10.2166899641
1.2400000000	5.8809904034
1.2450000000	3.8940228833
1.2500000000	2.8501247145
1.2550000000	2.2525213724
1.2600000000	1.8943948856
1.2650000000	1.6764122491
1.2700000000	1.5546808242
1.2750000000	1.5008828667
1.2800000000	1.5022130955
1.2850000000	1.5539762985
1.2900000000	1.6575793847
1.2950000000	1.8189253944
1.3000000000	2.0565585607
1.3050000000	2.3946195690
1.3100000000	2.8767728642
1.3150000000	3.5782484979
1.3200000000	4.6337367976
1.3250000000	6.3004523689
1.3300000000	9.1398017067
1.3350000000	14.4552820360
1.3400000000	25.8151874526
1.3450000000	54.0225705652
1.3500000000	114.7628632824
1.3550000000	107.1023305529
1.3600000000	49.4088174073
1.3650000000	24.2799391318
1.3700000000	13.9242376094
1.3750000000	8.9537004292
1.3800000000	6.2433937350
1.3850000000	4.6110043788
1.3900000000	3.5594635492
1.3950000000	2.8424954694
1.4000000000	2.3333655643
1.4050000000	1.9605520054
1.4100000000	1.6811660231
1.4150000000	1.4703498748
1.4200000000	1.3118165682
1.4250000000	1.2056348327
1.4300000000	1.1667505497
1.4350000000	1.1883839573
1.4400000000	0.9153102384
1.4450000000	0.0789127610
1.4500000000	-1.2790014380
1.4550000000	-0.3586218452
1.4600000000	1.5487218275
1.4650000000	0.8384804508
1.4700000000	-0.7917551988
1.4750000000	-3.4652130229
1.4800000000	-1.5422412577
1.4850000000	2.5348323646
1.4900000000	2.0547448247
1.4950000000	1.3299788344
1.5000000000	0.9344677472
1.5050000000	0.7214988123
1.5100000000	0.6001128036
1.5150000000	0.5263950165
1.5200000000	0.4787745030
1.5250000000	0.4491863825
1.5300000000	0.4265844087
1.5350000000	0.4110049784
1.5400000000	0.4007427094
1.5450000000	0.3948825793
1.5500000000	0.3928338600
1.5550000000	0.3946115389
1.5600000000	0.4012678449
1.5650000000	0.4122625380
1.5700000000	0.4300650492
1.5750000000	0.4576875152
1.5800000000	0.5007856563
1.5850000000	0.5703686517
1.5900000000	0.6896311574
1.5950000000	0.9099011596
1.6000000000	1.3395984045
1.6050000000	2.0500857869
1.6100000000	2.3791297800
1.6150000000	1.7622860003
1.6200000000	1.1836189571
1.6250000000	0.8781638506
1.6300000000	0.7247954739
1.6350000000	0.6458368601
1.6400000000	0.6058164953
1.6450000000	0.5882479986
1.6500000000	0.5848755352
1.6550000000	0.5918316372
1.6600000000	0.6068081714
1.6650000000	0.6287511479
1.6700000000	0.6572598560
1.6750000000	0.6923366856
1.6800000000	0.7342952221
1.6850000000	0.7836219106
1.6900000000	0.8407468667
1.6950000000	0.9048586482
1.7000000000	0.9748813543
1.7050000000	1.0466434208
1.7100000000	1.1285299766
1.7150000000	1.3320267582
1.7200000000	1.6890565010
1.7250000000	2.0161853054
1.7300000000	2.3672626060
1.7350000000	2.7530226513
1.7400000000	3.1315399060
1.7450000000	3.6177215119
1.7500000000	4.3529521745
1.7550000000	5.4472693845
1.7600000000	7.0845720919
1.7650000000	9.6084887985
1.7700000000	13.6740756226
1.7750000000	20.5235317010
1.7800000000	32.1948679290
1.7850000000	49.4073576576
1.7900000000	61.4000875313
1.7950000000	52.2833564378
1.8000000000	34.7960305174
1.8050000000	21.9744877191
1.8100000000	14.4883031778
1.8150000000	10.1003564341
1.8200000000	7.3999545182
1.8250000000	5.6492753607
1.8300000000	4.4606251454
1.8350000000	3.6216265899
1.8400000000	3.0103769313
1.8450000000	2.5529275334
1.8500000000	2.2026744656
1.8550000000	1.9304564799
1.8600000000	1.7159309741
1.8650000000	1.5452727389
1.8700000000	1.4086489590
1.8750000000	1.2988407788
1.8800000000	1.2101220255
1.8850000000	1.1374328782
1.8900000000	1.0749428923
1.8950000000	1.0139516792
1.9000000000	0.9394354616
1.9050000000	0.7983733822
1.9100000000	0.6042340554
1.9150000000	0.5013962700
1.9200000000	1.2261892557
1.9250000000	3.2294564161
1.9300000000	4.8181838734
1.9350000000	4.7440791075
1.9400000000	3.7313511660
1.9450000000	2.7494818249
1.9500000000	2.0600966827
1.9550000000	1.6083898493
1.9600000000	1.3098877000
1.9650000000	1.1100953748
1.9700000000	0.9658609351
1.9750000000	0.8601316277
1.9800000000	0.7794116505
1.9850000000	0.7139094964
1.9900000000	0.6561327799
1.9950000000	0.5995425347
2.0000000000	0.5431854401
2.0050000000	0.5071811697
2.0100000000	0.5278105057
2.0150000000	0.5846386125
2.0200000000	0.6196797383
2.0250000000	0.6289906378
2.0300000000	0.6310904200
2.0350000000	0.6349078751
2.0400000000	0.6437607996
2.0450000000	0.6584951683
2.0500000000	0.6796598797
2.0550000000	0.7077534072
2.0600000000	0.7427761447
2.0650000000	0.7826065872
2.0700000000	0.8219834792
2.0750000000	0.8569639257
2.0800000000	0.8910268528
2.0850000000	0.9313670342
2.0900000000	0.9828071988
2.0950000000	1.0473781580
2.1000000000	1.1272643167
2.1050000000	1.2217421761
2.1100000000	1.3374517365
2.1150000000	1.4792469254
2.1200000000	1.6539349356
2.1250000000	1.8710639556
2.1300000000	2.1440931609
2.1350000000	2.4922381464
2.1400000000	2.9432455810
2.1450000000	3.5376813139
2.1500000000	4.3346512516
2.1550000000	5.4178063321
2.1600000000	6.8942066207
2.1650000000	8.8545186597
2.1700000000	11.2624732563
2.1750000000	13.6564867787
2.1800000000	15.1356984084
2.1850000000	15.2125939511
2.1900000000	14.5400980650
2.1950000000	14.0168046482
2.2000000000	13.7847678331
2.2050000000	13.1400527633
2.2100000000	11.7712152889
2.2150000000	10.0882017370
2.2200000000	8.5773271528
2.2250000000	7.3286701000
2.2300000000	6.2292403360
2.2350000000	5.2352665450
2.2400000000	4.3815197544
2.2450000000	3.6984205683
2.2500000000	3.1747639510
2.2550000000	2.7813817132
2.2600000000	2.4868323559
2.2650000000	2.2596103306
2.2700000000	2.0656593966
2.2750000000	1.8714281794
2.2800000000	1.6623265148
2.2850000000	1.4633628130
2.2900000000	1.3258802302
2.2950000000	1.2789390746
2.3000000000	1.2957517159
2.3050000000	1.3214071933
2.3100000000	1.3235735728
2.3150000000	1.3025138983
2.3200000000	1.2722240963
2.3250000000	1.2471602524
2.3300000000	1.2347192617
2.3350000000	1.2361721586
2.3400000000	1.2473768140
2.3450000000	1.2589581865
2.3500000000	1.2591111926
2.3550000000	1.2403042908
2.3600000000	1.2046689606
2.3650000000	1.1615192152
2.3700000000	1.1204556322
2.3750000000	1.0872120251
2.3800000000	1.0636506796
2.3850000000	1.0492441563
2.3900000000	1.0427905656
2.3950000000	1.0428978807
2.4000000000	1.0499454020
2.4050000000	1.0662539056
2.4100000000	1.0926014311
2.4150000000	1.1300649261
2.4200000000	1.1792917078
2.4250000000	1.2414143713
2.4300000000	1.3180845967
2.4350000000	1.4115180301
2.4400000000	1.5245737669
2.4450000000	1.6609023969
2.4500000000	1.8251097106
2.4550000000	2.0229847800
2.4600000000	2.2616402263
2.4650000000	2.5496098037
2.4700000000	2.8966808393
2.4750000000	3.3126572488
2.4800000000	3.8076643140
2.4850000000	4.3857104192
2.4900000000	5.0411459391
2.4950000000	5.7505155618
2.5000000000	6.4642146154
2.5050000000	7.1318485519
2.5100000000	7.5828801545
2.5150000000	7.7189493661
2.5200000000	7.5166177305
2.5250000000	7.0383428338
2.5300000000	6.3929326967
2.5350000000	5.6853271035
2.5400000000	4.9896628368
2.5450000000	4.3478270406
2.5500000000	3.7784457139
2.5550000000	3.2857587109
2.5600000000	2.8629918756
2.5650000000	2.5075518589
2.5700000000	2.2110705338
2.5750000000	1.9683094090
2.5800000000	1.7753555184
2.5850000000	1.6279551870
2.5900000000	1.5191122566
2.5950000000	1.4389907643
2.6000000000	1.3773493594
2.6050000000	1.3335418181
2.6100000000	1.2956100328
2.6150000000	1.2629527423
2.6200000000	1.2362151738
2.6250000000	1.2161121243
2.6300000000	1.2031208992
2.6350000000	1.1974850438
2.6400000000	1.1993459903
2.6450000000	1.2088353687
2.6500000000	1.2262107966
2.6550000000	1.2515444278
2.6600000000	1.2852250584
2.6650000000	1.3276454346
2.6700000000	1.3792880212
2.6750000000	1.4407375002
2.6800000000	1.5126418924
2.6850000000	1.5956641120
2.6900000000	1.6903471882
2.6950000000	1.7970061051
2.7000000000	1.9155329459
2.7050000000	2.0594084050
2.7100000000	2.2164292794
2.7150000000	2.3835382439
2.7200000000	2.5562885110
2.7250000000	2.7290936503
2.7300000000	2.8956499677
2.7350000000	3.0492997532
2.7400000000	3.1831187344
2.7450000000	3.2909603149
2.7500000000	3.3632901438
2.7550000000	3.3943361494
2.7600000000	3.3797185635
2.7650000000	3.3189278937
2.7700000000	3.2160383627
2.7750000000	3.0792130810
2.7800000000	2.9190921447
2.7850000000	2.7469632568
2.7900000000	2.5729542177
2.7950000000	2.4051865945
2.8000000000	2.2494031239
2.8050000000	2.0917867154
2.8100000000	1.9568876007
2.8150000000	1.8443439358
2.8200000000	1.7523440795
2.8250000000	1.6785002852
2.8300000000	1.6204073015
2.8350000000	1.5760066879
2.8400000000	1.5431315020
2.8450000000	1.5218571986
2.8500000000	1.5106089734
2.8550000000	1.5087867875
2.8600000000	1.5159425835
2.8650000000	1.5316727333
2.8700000000	1.5555257423
2.8750000000	1.5869288096
2.8800000000	1.6251309944
2.8850000000	1.6691556926
2.8900000000	1.7178289721
2.8950000000	1.7698231097
2.9000000000	1.8237418378
2.9050000000	1.8885363972
2.9100000000	1.9506955863
2.9150000000	2.0082640995
2.9200000000	2.0591897844
2.9250000000	2.1011441476
2.9300000000	2.1319831188
2.9350000000	2.1483724916
2.9400000000	2.1488731314
2.9450000000	2.1328719690
2.9500000000	2.1012922560
2.9550000000	2.0565342150
2.9600000000	2.0020623423
2.9650000000	1.9418022101
2.9700000000	1.8795498366
2.9750000000	1.8185493246
2.9800000000	1.7612864267
2.9850000000	1.7094571097
2.9900000000	1.6640814481
2.9950000000	1.6256383013
3.0000000000	1.5942284355
