# energy (eV)    P(omega), $W$ = 300 nm, $h$ = 300 nm, $s$ = 20 nm, $d/W = 5$, $E_{\rm e}$ = 200 keV
0.2000000000	0.0795607671
0.2050000000	0.0807036899
0.2100000000	0.0817780082
0.2150000000	0.0827858673
0.2200000000	0.0837291168
0.2250000000	0.0846092858
0.2300000000	0.0854274977
0.2350000000	0.0861844545
0.2400000000	0.0868803568
0.2450000000	0.0875147326
0.2500000000	0.0880865328
0.2550000000	0.0885937416
0.2600000000	0.0890334131
0.2650000000	0.0894014407
0.2700000000	0.0896921953
0.2750000000	0.0898983073
0.2800000000	0.0900102247
0.2850000000	0.0900157339
0.2900000000	0.0898991432
0.2950000000	0.0896406669
0.3000000000	0.0892148250
0.3050000000	0.0885894286
0.3100000000	0.0877231531
0.3150000000	0.0924494349
0.3200000000	0.0980633621
0.3250000000	0.1051600230
0.3300000000	0.1146565632
0.3350000000	0.1264811811
0.3400000000	0.1419673157
0.3450000000	0.1607670879
0.3500000000	0.1853707346
0.3550000000	0.2179421624
0.3600000000	0.2605023219
0.3650000000	0.3198636742
0.3700000000	0.3982125740
0.3750000000	0.5072817248
0.3800000000	0.6651399600
0.3850000000	0.9112640066
0.3900000000	1.3003803045
0.3950000000	1.9618251471
0.4000000000	3.2236203165
0.4050000000	6.0544205698
0.4100000000	13.7841519492
0.4150000000	44.2735370651
0.4200000000	28.1812598705
0.4250000000	-53.1972600247
0.4300000000	14.8243220246
0.4350000000	9.2497444910
0.4400000000	5.6629278947
0.4450000000	3.7308356420
0.4500000000	2.6178503749
0.4550000000	1.9325133817
0.4600000000	1.4859031297
0.4650000000	1.1814074988
0.4700000000	0.9660971545
0.4750000000	0.8103298532
0.4800000000	0.6948168711
0.4850000000	0.6078954785
0.4900000000	0.5415613565
0.4950000000	0.4904388436
0.5000000000	0.4508545956
0.5050000000	0.4201102952
0.5100000000	0.3964719767
0.5150000000	0.3786637519
0.5200000000	0.3653440994
0.5250000000	0.3559155119
0.5300000000	0.3497313585
0.5350000000	0.3463200423
0.5400000000	0.3453344651
0.5450000000	0.3464848485
0.5500000000	0.3496848698
0.5550000000	0.3547728842
0.5600000000	0.3616701294
0.5650000000	0.3703433398
0.5700000000	0.3807643608
0.5750000000	0.3930077586
0.5800000000	0.4071947440
0.5850000000	0.4234049594
0.5900000000	0.4417899405
0.5950000000	0.4625376103
0.6000000000	0.4858870493
0.6050000000	0.5121809697
0.6100000000	0.5417495023
0.6150000000	0.5750406933
0.6200000000	0.6126525827
0.6250000000	0.6551577719
0.6300000000	0.7034025860
0.6350000000	0.7584419277
0.6400000000	0.8213738689
0.6450000000	0.8937826262
0.6500000000	0.9777518477
0.6550000000	1.0754510231
0.6600000000	1.1902132712
0.6650000000	1.3263187243
0.6700000000	1.4887993075
0.6750000000	1.6853251915
0.6800000000	1.9262235140
0.6850000000	2.2250128308
0.6900000000	2.6026481111
0.6950000000	3.0884269064
0.7000000000	3.7289158258
0.7050000000	4.5953008279
0.7100000000	5.8082353986
0.7150000000	7.5825236669
0.7200000000	10.3181515209
0.7250000000	14.8607938779
0.7300000000	23.2020138234
0.7350000000	41.0566528252
0.7400000000	90.0430138522
0.7450000000	298.9337020490
0.7500000000	926.7824270343
0.7550000000	233.3271360361
0.7600000000	77.3313790723
0.7650000000	37.0813790416
0.7700000000	21.5820962905
0.7750000000	14.0972001821
0.7800000000	9.9287696817
0.7850000000	7.3801075844
0.7900000000	5.7064481496
0.7950000000	4.5517480613
0.8000000000	3.7213931143
0.8050000000	3.1027550281
0.8100000000	2.6308481428
0.8150000000	2.2566131694
0.8200000000	1.9611644477
0.8250000000	1.7232059214
0.8300000000	1.5282155595
0.8350000000	1.3678624032
0.8400000000	1.2334082895
0.8450000000	1.1205594027
0.8500000000	1.0251617036
0.8550000000	0.9428144981
0.8600000000	0.8725161821
0.8650000000	0.8124836124
0.8700000000	0.7594239388
0.8750000000	0.7143126665
0.8800000000	0.6760693266
0.8850000000	0.6417784598
0.8900000000	0.6143441723
0.8950000000	0.5893844582
0.9000000000	0.5696825062
0.9050000000	0.5562641438
0.9100000000	0.5439748767
0.9150000000	0.5367044925
0.9200000000	0.5362725684
0.9250000000	0.5360451078
0.9300000000	0.5285490305
0.9350000000	0.5050793701
0.9400000000	0.3725947684
0.9450000000	-0.2311174315
0.9500000000	-3.4203291129
0.9550000000	-19.6080805947
0.9600000000	4.6314073169
0.9650000000	8.1402002177
0.9700000000	3.6129212629
0.9750000000	1.8975541905
0.9800000000	1.1895095101
0.9850000000	0.8582633729
0.9900000000	0.6673096410
0.9950000000	0.5514811590
1.0000000000	0.4775105925
1.0050000000	0.4306351598
1.0100000000	0.3942543341
1.0150000000	0.3676602856
1.0200000000	0.3497557069
1.0250000000	0.3346882619
1.0300000000	0.3232163600
1.0350000000	0.3145068445
1.0400000000	0.3089437283
1.0450000000	0.3042664630
1.0500000000	0.3011188932
1.0550000000	0.2993207606
1.0600000000	0.2992878839
1.0650000000	0.2998632270
1.0700000000	0.3015139727
1.0750000000	0.3042455973
1.0800000000	0.3083643212
1.0850000000	0.3136004924
1.0900000000	0.3214052033
1.0950000000	0.3306866483
1.1000000000	0.3417706321
1.1050000000	0.3545148892
1.1100000000	0.3693356705
1.1150000000	0.3865614353
1.1200000000	0.4065951966
1.1250000000	0.4298969999
1.1300000000	0.4571619921
1.1350000000	0.4892296886
1.1400000000	0.5270718068
1.1450000000	0.5723914501
1.1500000000	0.6270992465
1.1550000000	0.6939297587
1.1600000000	0.7767403403
1.1650000000	0.8805508779
1.1700000000	1.0146897910
1.1750000000	1.1916066573
1.1800000000	1.4318530958
1.1850000000	1.7691908937
1.1900000000	2.2673440908
1.1950000000	3.0484504457
1.2000000000	4.3722590482
1.2050000000	6.8726217000
1.2100000000	12.3716222695
1.2150000000	27.2372348639
1.2200000000	66.8018237867
1.2250000000	60.0763080897
1.2300000000	24.0350894108
1.2350000000	11.3321628602
1.2400000000	6.5230720527
1.2450000000	4.3191574747
1.2500000000	3.1612800953
1.2550000000	2.4984253823
1.2600000000	2.1011940414
1.2650000000	1.8594074026
1.2700000000	1.7243802463
1.2750000000	1.6647028140
1.2800000000	1.6661714184
1.2850000000	1.7235778274
1.2900000000	1.8384820219
1.2950000000	2.0174308578
1.3000000000	2.2809920112
1.3050000000	2.6559401954
1.3100000000	3.1907044353
1.3150000000	3.9687238095
1.3200000000	5.1393860362
1.3250000000	6.9879728586
1.3300000000	10.1371515492
1.3350000000	16.0326568628
1.3400000000	28.6321548335
1.3450000000	59.9175254152
1.3500000000	127.2857871414
1.3550000000	118.7893220820
1.3600000000	54.8002968175
1.3650000000	26.9293601890
1.3700000000	15.4436471906
1.3750000000	9.9307264577
1.3800000000	6.9246719388
1.3850000000	5.1141567138
1.3900000000	3.9478719449
1.3950000000	3.1526683577
1.4000000000	2.5879820731
1.4050000000	2.1744868012
1.4100000000	1.8646136658
1.4150000000	1.6307922588
1.4200000000	1.4549579880
1.4250000000	1.3371861808
1.4300000000	1.2940513128
1.4350000000	1.3180315844
1.4400000000	1.0151502392
1.4450000000	0.0874723643
1.4500000000	-1.4186578465
1.4550000000	-0.3977987684
1.4600000000	1.7177632286
1.4650000000	0.9300134979
1.4700000000	-0.8781227658
1.4750000000	-3.8433037878
1.4800000000	-1.7105127031
1.4850000000	2.8114266135
1.4900000000	2.2789528192
1.4950000000	1.4751033635
1.5000000000	1.0364356339
1.5050000000	0.8002281760
1.5100000000	0.6655968339
1.5150000000	0.5838350616
1.5200000000	0.5310181874
1.5250000000	0.4982013469
1.5300000000	0.4731329171
1.5350000000	0.4558532874
1.5400000000	0.4444709823
1.5450000000	0.4379711198
1.5500000000	0.4356985055
1.5550000000	0.4376697319
1.5600000000	0.4450518127
1.5650000000	0.4572454907
1.5700000000	0.4769895660
1.5750000000	0.5076246902
1.5800000000	0.5554234264
1.5850000000	0.6325956756
1.5900000000	0.7648658296
1.5950000000	1.0091599701
1.6000000000	1.4857225978
1.6050000000	2.2736994883
1.6100000000	2.6386300367
1.6150000000	1.9545097570
1.6200000000	1.3127307553
1.6250000000	0.9739618667
1.6300000000	0.8038671641
1.6350000000	0.7162978069
1.6400000000	0.6719135862
1.6450000000	0.6524300498
1.6500000000	0.6486909625
1.6550000000	0.6564070655
1.6600000000	0.6730185181
1.6650000000	0.6973564067
1.6700000000	0.7289763533
1.6750000000	0.7678810536
1.6800000000	0.8144183532
1.6850000000	0.8691278271
1.6900000000	0.9324866091
1.6950000000	1.0035949075
1.7000000000	1.0812597682
1.7050000000	1.1608552714
1.7100000000	1.2516812781
1.7150000000	1.4773811295
1.7200000000	1.8733595579
1.7250000000	2.2361820439
1.7300000000	2.6255712385
1.7350000000	3.0534268605
1.7400000000	3.4732454726
1.7450000000	4.0124746780
1.7500000000	4.8279285604
1.7550000000	6.0416514261
1.7600000000	7.8576080329
1.7650000000	10.6569216539
1.7700000000	15.1661245367
1.7750000000	22.7629578668
1.7800000000	35.7078088710
1.7850000000	54.7984321625
1.7900000000	68.0997380869
1.7950000000	57.9882297292
1.8000000000	38.5927765291
1.8050000000	24.3722150816
1.8100000000	16.0691785844
1.8150000000	11.2024431315
1.8200000000	8.2073882359
1.8250000000	6.2656846112
1.8300000000	4.9473353683
1.8350000000	4.0167897564
1.8400000000	3.3388436445
1.8450000000	2.8314795086
1.8500000000	2.4430082376
1.8550000000	2.1410866479
1.8600000000	1.9031524293
1.8650000000	1.7138717941
1.8700000000	1.5623389573
1.8750000000	1.4405472836
1.8800000000	1.3421456510
1.8850000000	1.2615219302
1.8900000000	1.1922091723
1.8950000000	1.1245571497
1.9000000000	1.0419019647
1.9050000000	0.8854353437
1.9100000000	0.6700933216
1.9150000000	0.5560041931
1.9200000000	1.3598354789
1.9250000000	3.5816243325
1.9300000000	5.3436555271
1.9350000000	5.2614789546
1.9400000000	4.1383072689
1.9450000000	3.0493582395
1.9500000000	2.2847903228
1.9550000000	1.7838210203
1.9600000000	1.4527644667
1.9650000000	1.2311830256
1.9700000000	1.0712183086
1.9750000000	0.9539581080
1.9800000000	0.8644348065
1.9850000000	0.7917890697
1.9900000000	0.7277114358
1.9950000000	0.6649498499
2.0000000000	0.6024470133
2.0050000000	0.5625166560
2.0100000000	0.5853957615
2.0150000000	0.6484211266
2.0200000000	0.6872838503
2.0250000000	0.6976107147
2.0300000000	0.6999403266
2.0350000000	0.7041751337
2.0400000000	0.7139948035
2.0450000000	0.7303376440
2.0500000000	0.7538125137
2.0550000000	0.7849723523
2.0600000000	0.8238176011
2.0650000000	0.8679950570
2.0700000000	0.9116688601
2.0750000000	0.9504654463
2.0800000000	0.9882435696
2.0850000000	1.0329836189
2.0900000000	1.0900348616
2.0950000000	1.1616497445
2.1000000000	1.2502509420
2.1050000000	1.3550359461
2.1100000000	1.4833691500
2.1150000000	1.6406340050
2.1200000000	1.8343803404
2.1250000000	2.0751980287
2.1300000000	2.3780146210
2.1350000000	2.7641421143
2.1400000000	3.2643543076
2.1450000000	3.9236427438
2.1500000000	4.8075617192
2.1550000000	6.0088883864
2.1600000000	7.6463629286
2.1650000000	9.8205434654
2.1700000000	12.4912040139
2.1750000000	15.1464031630
2.1800000000	16.7869984288
2.1850000000	16.8722899266
2.1900000000	16.1264359909
2.1950000000	15.5460643302
2.2000000000	15.2887219042
2.2050000000	14.5736650035
2.2100000000	13.0554681920
2.2150000000	11.1888094533
2.2200000000	9.5130703404
2.2250000000	8.1281652023
2.2300000000	6.9087810633
2.2350000000	5.8063686205
2.2400000000	4.8594860792
2.2450000000	4.1018683184
2.2500000000	3.5210859868
2.2550000000	3.0847884044
2.2600000000	2.7581041322
2.2650000000	2.5060910397
2.2700000000	2.2909784795
2.2750000000	2.0755561224
2.2800000000	1.8436431731
2.2850000000	1.6229763469
2.2900000000	1.4704991079
2.2950000000	1.4184409774
2.3000000000	1.4370912414
2.3050000000	1.4655483399
2.3100000000	1.4679528866
2.3150000000	1.4445967341
2.3200000000	1.4110027995
2.3250000000	1.3832043472
2.3300000000	1.3694053136
2.3350000000	1.3710155104
2.3400000000	1.3834411541
2.3450000000	1.3962848372
2.3500000000	1.3964540905
2.3550000000	1.3755960335
2.3600000000	1.3360745920
2.3650000000	1.2882195007
2.3700000000	1.2426783030
2.3750000000	1.2058100734
2.3800000000	1.1796801236
2.3850000000	1.1637033952
2.3900000000	1.1565468352
2.3950000000	1.1566665399
2.4000000000	1.1644832251
2.4050000000	1.1825709274
2.4100000000	1.2117926383
2.4150000000	1.2533428698
2.4200000000	1.3079396155
2.4250000000	1.3768390461
2.4300000000	1.4618730202
2.4350000000	1.5654988806
2.4400000000	1.6908876096
2.4450000000	1.8420880238
2.4500000000	2.0242083450
2.4550000000	2.2436691583
2.4600000000	2.5083589830
2.4650000000	2.8277425040
2.4700000000	3.2126747331
2.4750000000	3.6740290960
2.4800000000	4.2230354722
2.4850000000	4.8641395761
2.4900000000	5.5910755412
2.4950000000	6.3778293473
2.5000000000	7.1693848463
2.5050000000	7.9098496073
2.5100000000	8.4100821813
2.5150000000	8.5609924761
2.5200000000	8.3365857842
2.5250000000	7.8061341091
2.5300000000	7.0903158707
2.5350000000	6.3055186326
2.5400000000	5.5339661931
2.5450000000	4.8221145818
2.5500000000	4.1906213003
2.5550000000	3.6441885622
2.5600000000	3.1753032182
2.5650000000	2.7810891169
2.5700000000	2.4522653493
2.5750000000	2.1830220290
2.5800000000	1.9690193732
2.5850000000	1.8055396934
2.5900000000	1.6848236172
2.5950000000	1.5959621541
2.6000000000	1.5275966978
2.6050000000	1.4790104815
2.6100000000	1.4369408956
2.6150000000	1.4007210946
2.6200000000	1.3710667061
2.6250000000	1.3487705061
2.6300000000	1.3343618677
2.6350000000	1.3281109038
2.6400000000	1.3301744700
2.6450000000	1.3406985577
2.6500000000	1.3599688842
2.6550000000	1.3880654710
2.6600000000	1.4254195235
2.6650000000	1.4724666240
2.6700000000	1.5297418586
2.6750000000	1.5978936843
2.6800000000	1.6776408035
2.6850000000	1.7697184421
2.6900000000	1.8747288714
2.6950000000	1.9930214520
2.7000000000	2.1244765243
2.7050000000	2.2840452224
2.7100000000	2.4581933880
2.7150000000	2.6435303104
2.7200000000	2.8351242674
2.7250000000	3.0267795650
2.7300000000	3.2115049507
2.7350000000	3.3819164570
2.7400000000	3.5303343823
2.7450000000	3.6499414593
2.7500000000	3.7301630757
2.7550000000	3.7645973255
2.7600000000	3.7483865355
2.7650000000	3.6809655645
2.7700000000	3.5668530615
2.7750000000	3.4151026440
2.7800000000	3.2375151384
2.7850000000	3.0466096299
2.7900000000	2.8536187596
2.7950000000	2.6675500766
2.8000000000	2.4947727913
2.8050000000	2.3199625780
2.8100000000	2.1703477419
2.8150000000	2.0455269644
2.8200000000	1.9434909794
2.8250000000	1.8615915672
2.8300000000	1.7971610941
2.8350000000	1.7479165741
2.8400000000	1.7114546780
2.8450000000	1.6878590970
2.8500000000	1.6753832358
2.8550000000	1.6733616007
2.8600000000	1.6812972601
2.8650000000	1.6987425608
2.8700000000	1.7251967663
2.8750000000	1.7600246088
2.8800000000	1.8023932532
2.8850000000	1.8512195926
2.8900000000	1.9052016751
2.8950000000	1.9628669794
2.9000000000	2.0226669602
2.9050000000	2.0945293702
2.9100000000	2.1634691794
2.9150000000	2.2273177618
2.9200000000	2.2837990618
2.9250000000	2.3303305210
2.9300000000	2.3645341261
2.9350000000	2.3827119091
2.9400000000	2.3832677088
2.9450000000	2.3655215537
2.9500000000	2.3304973882
2.9550000000	2.2808572538
2.9600000000	2.2204435684
2.9650000000	2.1536101246
2.9700000000	2.0845670348
2.9750000000	2.0169122913
2.9800000000	1.9534028118
2.9850000000	1.8959195742
2.9900000000	1.8455939342
2.9950000000	1.8029569940
3.0000000000	1.7681205168
