# energy (eV)    P(omega), $W$ = 400 nm, $h$ = 300 nm, $s$ = 20 nm, $d/W = 5$, $E_{\rm e}$ = 200 keV
0.2000000000	0.0863159228
0.2050000000	0.0871011375
0.2100000000	0.0876540614
0.2150000000	0.0879653823
0.2200000000	0.0880220800
0.2250000000	0.0878064667
0.2300000000	0.0872952705
0.2350000000	0.0864581910
0.2400000000	0.0852562629
0.2450000000	0.0836392665
0.2500000000	0.0815429980
0.2550000000	0.0788848454
0.2600000000	0.0755583530
0.2650000000	0.0790442215
0.2700000000	0.0878986934
0.2750000000	0.1005692326
0.2800000000	0.1182229958
0.2850000000	0.1442493984
0.2900000000	0.1764982680
0.2950000000	0.2227299973
0.3000000000	0.2848791004
0.3050000000	0.3801392718
0.3100000000	0.5128346565
0.3150000000	0.7695947537
0.3200000000	1.1706066713
0.3250000000	1.4451626246
0.3300000000	1.8249637203
0.3350000000	2.3633885790
0.3400000000	3.2086093374
0.3450000000	4.6587410820
0.3500000000	7.5504374130
0.3550000000	14.2443772427
0.3600000000	35.0075145274
0.3650000000	0.1579743247
0.3700000000	16.2250012936
0.3750000000	21.3353546968
0.3800000000	9.9416110074
0.3850000000	5.6002417711
0.3900000000	3.5920875863
0.3950000000	2.5312894982
0.4000000000	1.9170870796
0.4050000000	1.5166692557
0.4100000000	1.2559884268
0.4150000000	1.0840555209
0.4200000000	0.9753916039
0.4250000000	0.8900501209
0.4300000000	0.7892047343
0.4350000000	0.7093915496
0.4400000000	0.6462683183
0.4450000000	0.5960780493
0.4500000000	0.5564533241
0.4550000000	0.5250322896
0.4600000000	0.5005216364
0.4650000000	0.4815534340
0.4700000000	0.4672220994
0.4750000000	0.4568940376
0.4800000000	0.4500163414
0.4850000000	0.4461041957
0.4900000000	0.4448709082
0.4950000000	0.4460959064
0.5000000000	0.4495907449
0.5050000000	0.4552714336
0.5100000000	0.4630691730
0.5150000000	0.4729430943
0.5200000000	0.4849136803
0.5250000000	0.4989977451
0.5300000000	0.5154020458
0.5350000000	0.5342185255
0.5400000000	0.5556127112
0.5450000000	0.5798016616
0.5500000000	0.6070924903
0.5550000000	0.6378211119
0.5600000000	0.6723964070
0.5650000000	0.7113441265
0.5700000000	0.7553900637
0.5750000000	0.8050721540
0.5800000000	0.8613969122
0.5850000000	0.9257395533
0.5900000000	0.9990277253
0.5950000000	1.0832133426
0.6000000000	1.1808751463
0.6050000000	1.2939459179
0.6100000000	1.4268561034
0.6150000000	1.5832797941
0.6200000000	1.7695239384
0.6250000000	1.9946368386
0.6300000000	2.2678464091
0.6350000000	2.6064923383
0.6400000000	3.0297052069
0.6450000000	3.5721998273
0.6500000000	4.2783210502
0.6550000000	5.2231845375
0.6600000000	6.5336215112
0.6650000000	8.4100149171
0.6700000000	11.2513243477
0.6750000000	15.8197247996
0.6800000000	23.8952396197
0.6850000000	40.0992958969
0.6900000000	80.3655428660
0.6950000000	225.5984791458
0.7000000000	1094.1736070140
0.7050000000	531.9604418760
0.7100000000	136.6498001671
0.7150000000	58.1113318057
0.7200000000	31.7354222624
0.7250000000	19.9355702375
0.7300000000	13.6730827505
0.7350000000	9.9710110925
0.7400000000	7.6003364888
0.7450000000	5.9912145948
0.7500000000	4.8513417290
0.7550000000	4.0139095170
0.7600000000	3.3827174736
0.7650000000	2.8932366205
0.7700000000	2.5068412710
0.7750000000	2.1966378509
0.7800000000	1.9445558821
0.7850000000	1.7369919891
0.7900000000	1.5631015047
0.7950000000	1.4178709137
0.8000000000	1.2943856706
0.8050000000	1.1885903815
0.8100000000	1.0985268240
0.8150000000	1.0195898329
0.8200000000	0.9508667063
0.8250000000	0.8931960199
0.8300000000	0.8427150637
0.8350000000	0.7988292057
0.8400000000	0.7638807470
0.8450000000	0.7333863729
0.8500000000	0.7075304330
0.8550000000	0.6911873810
0.8600000000	0.6780964285
0.8650000000	0.6687233841
0.8700000000	0.6719872548
0.8750000000	0.6731307343
0.8800000000	0.6695080287
0.8850000000	0.6403975672
0.8900000000	0.4969689785
0.8950000000	-0.2218274355
0.9000000000	-4.0762158533
0.9050000000	-26.7837363740
0.9100000000	5.1001531709
0.9150000000	12.0813310503
0.9200000000	5.0151937715
0.9250000000	2.6090448095
0.9300000000	1.5926175399
0.9350000000	1.1070003874
0.9400000000	0.8450291569
0.9450000000	0.6998184740
0.9500000000	0.5966939058
0.9550000000	0.5276613066
0.9600000000	0.4849646950
0.9650000000	0.4497323477
0.9700000000	0.4245872419
0.9750000000	0.4074435625
0.9800000000	0.3969954554
0.9850000000	0.3950553389
0.9900000000	0.3988150055
0.9950000000	0.4140999738
1.0000000000	0.4506844271
1.0050000000	0.5361333180
1.0100000000	0.7600932372
1.0150000000	1.5277121636
1.0200000000	2.9330532795
1.0250000000	1.3339086728
1.0300000000	0.6836377691
1.0350000000	0.4898271890
1.0400000000	0.4136147910
1.0450000000	0.3778648447
1.0500000000	0.3599494837
1.0550000000	0.3505544878
1.0600000000	0.3463433815
1.0650000000	0.3455644999
1.0700000000	0.3472466856
1.0750000000	0.3510485378
1.0800000000	0.3562908975
1.0850000000	0.3634221253
1.0900000000	0.3737240743
1.0950000000	0.3857330236
1.1000000000	0.3995667784
1.1050000000	0.4152504274
1.1100000000	0.4330321871
1.1150000000	0.4531487196
1.1200000000	0.4758808375
1.1250000000	0.5014609012
1.1300000000	0.5305516564
1.1350000000	0.5635997268
1.1400000000	0.6012740924
1.1450000000	0.6444253296
1.1500000000	0.6937152802
1.1550000000	0.7512049834
1.1600000000	0.8181976171
1.1650000000	0.8964001055
1.1700000000	0.9861670081
1.1750000000	1.0772100177
1.1800000000	1.1633846199
1.1850000000	1.6169365536
1.1900000000	2.0065916053
1.1950000000	2.7506712658
1.2000000000	3.7461737300
1.2050000000	3.2861090644
1.2100000000	3.1449301115
1.2150000000	3.5012450591
1.2200000000	4.1875432878
1.2250000000	5.2414684002
1.2300000000	6.8440320836
1.2350000000	9.3791190913
1.2400000000	13.6494751071
1.2450000000	21.6905318664
1.2500000000	39.1052068944
1.2550000000	84.6506296602
1.2600000000	204.4668577021
1.2650000000	207.1167469340
1.2700000000	86.1564761551
1.2750000000	39.7699741857
1.2800000000	22.0253605418
1.2850000000	13.8508819477
1.2900000000	9.4935333612
1.2950000000	6.9190428323
1.3000000000	5.2792056730
1.3050000000	4.1751086027
1.3100000000	3.3965427183
1.3150000000	2.8339910269
1.3200000000	2.4169719410
1.3250000000	2.1031515534
1.3300000000	1.8668168016
1.3350000000	1.6921902174
1.3400000000	1.5710811560
1.3450000000	1.5012450842
1.3500000000	1.4928747307
1.3550000000	1.5691737737
1.3600000000	1.7891804652
1.3650000000	2.3031292297
1.3700000000	3.5304862766
1.3750000000	6.5842298763
1.3800000000	10.7549785134
1.3850000000	7.5131446304
1.3900000000	3.8287030155
1.3950000000	2.2215104448
1.4000000000	1.4548490783
1.4050000000	0.9836727649
1.4100000000	0.5572413966
1.4150000000	-0.0788746658
1.4200000000	-1.5030020165
1.4250000000	-5.2765333580
1.4300000000	-7.0946783762
1.4350000000	3.2504176585
1.4400000000	4.1577751274
1.4450000000	2.4927767513
1.4500000000	1.5511135679
1.4550000000	1.0692539834
1.4600000000	0.7895802559
1.4650000000	0.5685440222
1.4700000000	0.3321025480
1.4750000000	0.3902969363
1.4800000000	0.5722318074
1.4850000000	0.5196043040
1.4900000000	0.4600941082
1.4950000000	0.4216026283
1.5000000000	0.3963168716
1.5050000000	0.3795976500
1.5100000000	0.3682234077
1.5150000000	0.3620163377
1.5200000000	0.3574399339
1.5250000000	0.3557868046
1.5300000000	0.3572084202
1.5350000000	0.3623564354
1.5400000000	0.3728571465
1.5450000000	0.3923225410
1.5500000000	0.4288710979
1.5550000000	0.4986851695
1.5600000000	0.6034792751
1.5650000000	0.6202760531
1.5700000000	0.5257191575
1.5750000000	0.4593711647
1.5800000000	0.4307563112
1.5850000000	0.4217614325
1.5900000000	0.4229426470
1.5950000000	0.4301988320
1.6000000000	0.4417433894
1.6050000000	0.4569615451
1.6100000000	0.4753941241
1.6150000000	0.4969729900
1.6200000000	0.5220420192
1.6250000000	0.5508978709
1.6300000000	0.5840279484
1.6350000000	0.6220605704
1.6400000000	0.6657991549
1.6450000000	0.7162698038
1.6500000000	0.7747605128
1.6550000000	0.8429035181
1.6600000000	0.9228135445
1.6650000000	1.0172202479
1.6700000000	1.1287777585
1.6750000000	1.2639991398
1.6800000000	1.4286415467
1.6850000000	1.6317619980
1.6900000000	1.8862197398
1.6950000000	2.2108854225
1.7000000000	2.6341666508
1.7050000000	3.2180963225
1.7100000000	4.0327854686
1.7150000000	5.2169596444
1.7200000000	7.0216922232
1.7250000000	9.8848446341
1.7300000000	14.2847211074
1.7350000000	19.9310383502
1.7400000000	27.0685596249
1.7450000000	39.5937827673
1.7500000000	55.8528462534
1.7550000000	56.7512927119
1.7600000000	39.8146945810
1.7650000000	24.8008797085
1.7700000000	15.8983648578
1.7750000000	10.8360603256
1.7800000000	7.8444509325
1.7850000000	6.0042382246
1.7900000000	4.8630253182
1.7950000000	4.2100354452
1.8000000000	3.9464690100
1.8050000000	3.8630204560
1.8100000000	3.4369748385
1.8150000000	2.6631617421
1.8200000000	2.0449416467
1.8250000000	1.7261963365
1.8300000000	1.5028386717
1.8350000000	1.3043322830
1.8400000000	1.1424642979
1.8450000000	1.0140118826
1.8500000000	0.9104929377
1.8550000000	0.8249749334
1.8600000000	0.7463105825
1.8650000000	0.6798080828
1.8700000000	0.6125982636
1.8750000000	0.5157093370
1.8800000000	0.2948454058
1.8850000000	-0.1892317018
1.8900000000	-0.8403496772
1.8950000000	-0.9520741432
1.9000000000	0.1018902923
1.9050000000	1.0845623248
1.9100000000	1.1992261290
1.9150000000	1.0131223467
1.9200000000	0.8307229588
1.9250000000	0.7012903628
1.9300000000	0.6229031987
1.9350000000	0.5630550267
1.9400000000	0.5232377064
1.9450000000	0.4968753119
1.9500000000	0.4784475461
1.9550000000	0.4630363631
1.9600000000	0.4497382945
1.9650000000	0.4402987129
1.9700000000	0.4352594525
1.9750000000	0.4342848956
1.9800000000	0.4371035775
1.9850000000	0.4437976607
1.9900000000	0.4548066391
1.9950000000	0.4706800792
2.0000000000	0.4910053375
2.0050000000	0.5140642685
2.0100000000	0.5306083349
2.0150000000	0.5416477313
2.0200000000	0.5549595825
2.0250000000	0.5755027226
2.0300000000	0.6047368292
2.0350000000	0.6433931336
2.0400000000	0.6927992041
2.0450000000	0.7552581052
2.0500000000	0.8340771954
2.0550000000	0.9329316802
2.0600000000	1.0536038300
2.0650000000	1.1941964651
2.0700000000	1.3568216491
2.0750000000	1.5596208479
2.0800000000	1.8325453368
2.0850000000	2.2047978364
2.0900000000	2.6933616441
2.0950000000	3.2631355872
2.1000000000	3.7709635474
2.1050000000	4.0170390625
2.1100000000	3.9001827906
2.1150000000	3.6312791183
2.1200000000	3.4412168988
2.1250000000	3.4331120698
2.1300000000	3.6375572175
2.1350000000	4.0788001130
2.1400000000	4.8054076834
2.1450000000	5.9033019628
2.1500000000	7.4928019369
2.1550000000	9.6642860585
2.1600000000	12.2426398260
2.1650000000	14.4097049364
2.1700000000	14.9217590167
2.1750000000	13.3573964537
2.1800000000	10.7837867089
2.1850000000	8.3202067484
2.1900000000	6.3940524176
2.1950000000	5.0024654153
2.2000000000	4.0261554474
2.2050000000	3.3525872162
2.2100000000	2.8849969781
2.2150000000	2.5263497548
2.2200000000	2.2049724137
2.2250000000	1.8992839622
2.2300000000	1.6225010008
2.2350000000	1.3848437568
2.2400000000	1.1835566971
2.2450000000	1.0097534496
2.2500000000	0.8545884171
2.2550000000	0.7131141788
2.2600000000	0.5716368622
2.2650000000	0.4687140439
2.2700000000	0.4128043196
2.2750000000	0.4268746102
2.2800000000	0.5080708593
2.2850000000	0.6114659904
2.2900000000	0.6871478355
2.2950000000	0.7206883029
2.3000000000	0.7245200804
2.3050000000	0.7129399088
2.3100000000	0.6976885631
2.3150000000	0.6841767752
2.3200000000	0.6745436287
2.3250000000	0.6699628826
2.3300000000	0.6713835606
2.3350000000	0.6795918792
2.3400000000	0.6952598389
2.3450000000	0.7190677232
2.3500000000	0.7517364221
2.3550000000	0.7943467139
2.3600000000	0.8461990773
2.3650000000	0.9076163258
2.3700000000	0.9784278597
2.3750000000	1.0594025144
2.3800000000	1.1534632492
2.3850000000	1.2640782917
2.3900000000	1.3920144327
2.3950000000	1.5315748621
2.4000000000	1.6681146333
2.4050000000	1.7857817044
2.4100000000	1.8510020208
2.4150000000	1.8572369167
2.4200000000	1.8204316871
2.4250000000	1.7677768460
2.4300000000	1.7234046592
2.4350000000	1.7018827149
2.4400000000	1.7090245714
2.4450000000	1.7457701801
2.4500000000	1.8122376988
2.4550000000	1.9099083001
2.4600000000	2.0450429036
2.4650000000	2.2240594913
2.4700000000	2.4541050813
2.4750000000	2.7396434210
2.4800000000	3.0784215486
2.4850000000	3.4559848792
2.4900000000	3.8392690335
2.4950000000	4.1734055134
2.5000000000	4.3897341681
2.5050000000	4.4175474016
2.5100000000	4.2286120741
2.5150000000	3.8744988344
2.5200000000	3.4376086480
2.5250000000	2.9903329594
2.5300000000	2.5767988959
2.5350000000	2.2155472066
2.5400000000	1.9093074791
2.5450000000	1.6535362683
2.5500000000	1.4416492015
2.5550000000	1.2677303399
2.5600000000	1.1223040258
2.5650000000	1.0134693852
2.5700000000	0.9352678604
2.5750000000	0.8849106787
2.5800000000	0.8568086788
2.5850000000	0.8433177094
2.5900000000	0.8372639470
2.5950000000	0.8341803156
2.6000000000	0.8326264870
2.6050000000	0.8392639231
2.6100000000	0.8497813256
2.6150000000	0.8657891725
2.6200000000	0.8881430822
2.6250000000	0.9168957483
2.6300000000	0.9512355861
2.6350000000	0.9894401137
2.6400000000	1.0288775120
2.6450000000	1.0662103890
2.6500000000	1.0979042526
2.6550000000	1.1210611412
2.6600000000	1.1343348970
2.6650000000	1.1385161407
2.6700000000	1.1363650880
2.6750000000	1.1319165541
2.6800000000	1.1290802528
2.6850000000	1.1315090901
2.6900000000	1.1417469820
2.6950000000	1.1613573553
2.7000000000	1.1910898570
2.7050000000	1.2355939384
2.7100000000	1.2928674258
2.7150000000	1.3619844880
2.7200000000	1.4410312866
2.7250000000	1.5267589377
2.7300000000	1.6142626771
2.7350000000	1.6969298668
2.7400000000	1.7668946966
2.7450000000	1.8161708140
2.7500000000	1.8383210441
2.7550000000	1.8301022726
2.7600000000	1.7923430242
2.7650000000	1.7296445885
2.7700000000	1.6490478974
2.7750000000	1.5583539032
2.7800000000	1.4647156046
2.7850000000	1.3738554252
2.7900000000	1.2890908620
2.7950000000	1.2140522007
2.8000000000	1.1494905302
2.8050000000	1.0896938881
2.8100000000	1.0425478874
2.8150000000	1.0061966455
2.8200000000	0.9786240067
2.8250000000	0.9579798818
2.8300000000	0.9426918263
2.8350000000	0.9314555392
2.8400000000	0.9231688959
2.8450000000	0.9168961702
2.8500000000	0.9118859658
2.8550000000	0.9076394589
2.8600000000	0.9039877391
2.8650000000	0.9011167589
2.8700000000	0.8995200745
2.8750000000	0.8998765378
2.8800000000	0.9028999348
2.8850000000	0.9092034410
2.8900000000	0.9192051469
2.8950000000	0.9330711683
2.9000000000	0.9506875597
2.9050000000	0.9770373263
2.9100000000	1.0059325413
2.9150000000	1.0354440629
2.9200000000	1.0631338761
2.9250000000	1.0863829612
2.9300000000	1.1027596322
2.9350000000	1.1104457609
2.9400000000	1.1085886098
2.9450000000	1.0974636785
2.9500000000	1.0783717043
2.9550000000	1.0533071518
2.9600000000	1.0245378686
2.9650000000	0.9942120138
2.9700000000	0.9640962111
2.9750000000	0.9354610122
2.9800000000	0.9090886428
2.9850000000	0.8853574819
2.9900000000	0.8643555350
2.9950000000	0.8459907116
3.0000000000	0.8300808458
