# energy (eV)    P(omega), $W$ = 400 nm, $h$ = 300 nm, $s$ = 20 nm, $d/W = 5$, $E_{\rm e}$ = 200 keV
0.2000000000	0.1607034926
0.2050000000	0.1621657005
0.2100000000	0.1631949384
0.2150000000	0.1637738661
0.2200000000	0.1638782459
0.2250000000	0.1634751413
0.2300000000	0.1625212181
0.2350000000	0.1609600440
0.2400000000	0.1587190427
0.2450000000	0.1557046773
0.2500000000	0.1517973599
0.2550000000	0.1468432156
0.2600000000	0.1406439429
0.2650000000	0.1471378654
0.2700000000	0.1636342160
0.2750000000	0.1872397915
0.2800000000	0.2201286942
0.2850000000	0.2686151124
0.2900000000	0.3286922846
0.2950000000	0.4148171598
0.3000000000	0.5305921464
0.3050000000	0.7080461659
0.3100000000	0.9552311241
0.3150000000	1.4335212739
0.3200000000	2.1805093934
0.3250000000	2.6919096489
0.3300000000	3.3993357285
0.3350000000	4.4022056633
0.3400000000	5.9765007392
0.3450000000	8.6774719966
0.3500000000	14.0634169507
0.3550000000	26.5311348860
0.3600000000	65.2029011504
0.3650000000	0.2954648936
0.3700000000	30.2182858813
0.3750000000	39.7356086750
0.3800000000	18.5151667974
0.3850000000	10.4296043275
0.3900000000	6.6895613889
0.3950000000	4.7139153721
0.4000000000	3.5700217463
0.4050000000	2.8242860459
0.4100000000	2.3387955020
0.4150000000	2.0185857193
0.4200000000	1.8162025350
0.4250000000	1.6572552551
0.4300000000	1.4694450543
0.4350000000	1.3208043293
0.4400000000	1.2032457141
0.4450000000	1.1097720707
0.4500000000	1.0359741736
0.4550000000	0.9774533479
0.4600000000	0.9318008940
0.4650000000	0.8964691309
0.4700000000	0.8697716235
0.4750000000	0.8505282297
0.4800000000	0.8377091879
0.4850000000	0.8304116275
0.4900000000	0.8281014722
0.4950000000	0.8303679191
0.5000000000	0.8368598212
0.5050000000	0.8474207043
0.5100000000	0.8619222610
0.5150000000	0.8802881880
0.5200000000	0.9025564495
0.5250000000	0.9287581860
0.5300000000	0.9592780200
0.5350000000	0.9942869562
0.5400000000	1.0340927768
0.5450000000	1.0790994430
0.5500000000	1.1298781968
0.5550000000	1.1870541237
0.5600000000	1.2513879101
0.5650000000	1.3238577774
0.5700000000	1.4058141729
0.5750000000	1.4982579248
0.5800000000	1.6030618419
0.5850000000	1.7227847640
0.5900000000	1.8591525136
0.5950000000	2.0157969462
0.6000000000	2.1975163775
0.6050000000	2.4079065707
0.6100000000	2.6552112926
0.6150000000	2.9462663552
0.6200000000	3.2928066039
0.6250000000	3.7116676516
0.6300000000	4.2200184811
0.6350000000	4.8501219303
0.6400000000	5.6375718244
0.6450000000	6.6469588376
0.6500000000	7.9607889752
0.6550000000	9.7188222341
0.6600000000	12.1570375942
0.6650000000	15.6482606895
0.6700000000	20.9347834414
0.6750000000	29.4346762163
0.6800000000	44.4597724530
0.6850000000	74.6084630874
0.6900000000	149.5260011582
0.6950000000	419.7381924062
0.7000000000	2035.7480276211
0.7050000000	989.7205246149
0.7100000000	254.2363755385
0.7150000000	108.1147504432
0.7200000000	59.0423724368
0.7250000000	37.0888663945
0.7300000000	25.4376354125
0.7350000000	18.5500399903
0.7400000000	14.1394923116
0.7450000000	11.1457983642
0.7500000000	9.0251303947
0.7550000000	7.4671430739
0.7600000000	6.2928575213
0.7650000000	5.3822188505
0.7700000000	4.6633657808
0.7750000000	4.0862629685
0.7800000000	3.6172909178
0.7850000000	3.2311416874
0.7900000000	2.9076392672
0.7950000000	2.6374557677
0.8000000000	2.4077273230
0.8050000000	2.2109093102
0.8100000000	2.0433581076
0.8150000000	1.8965067576
0.8200000000	1.7686570124
0.8250000000	1.6613679448
0.8300000000	1.5674541908
0.8350000000	1.4858093310
0.8400000000	1.4207895041
0.8450000000	1.3640554332
0.8500000000	1.3159499016
0.8550000000	1.2855381505
0.8600000000	1.2611756834
0.8650000000	1.2437287491
0.8700000000	1.2497843498
0.8750000000	1.2518971189
0.8800000000	1.2451475816
0.8850000000	1.1910018367
0.8900000000	0.9242726548
0.8950000000	-0.4123989947
0.9000000000	-7.5799058046
0.9050000000	-49.8057232093
0.9100000000	9.4838429506
0.9150000000	22.4654044562
0.9200000000	9.3257540238
0.9250000000	4.8514986381
0.9300000000	2.9614598887
0.9350000000	2.0584668903
0.9400000000	1.5713437343
0.9450000000	1.3013354616
0.9500000000	1.1095895903
0.9550000000	0.9812398229
0.9600000000	0.9018640192
0.9650000000	0.8363747453
0.9700000000	0.7896505794
0.9750000000	0.7578166047
0.9800000000	0.7384507751
0.9850000000	0.7349329717
0.9900000000	0.7420627401
0.9950000000	0.7707111421
1.0000000000	0.8391441271
1.0050000000	0.9988618834
1.0100000000	1.4173920155
1.0150000000	2.8516819374
1.0200000000	5.4770510045
1.0250000000	2.4890182445
1.0300000000	1.2741504621
1.0350000000	0.9120860866
1.0400000000	0.7697086473
1.0450000000	0.7029106864
1.0500000000	0.6694170958
1.0550000000	0.6518347823
1.0600000000	0.6439276270
1.0650000000	0.6424234224
1.0700000000	0.6455078728
1.0750000000	0.6525415297
1.0800000000	0.6622583888
1.0850000000	0.6754899658
1.0900000000	0.6946172224
1.0950000000	0.7169190605
1.1000000000	0.7426141295
1.1050000000	0.7717478151
1.1100000000	0.8047814484
1.1150000000	0.8421544798
1.1200000000	0.8843886055
1.1250000000	0.9319160054
1.1300000000	0.9859672949
1.1350000000	1.0473732038
1.1400000000	1.1173765912
1.1450000000	1.1975586794
1.1500000000	1.2891510662
1.1550000000	1.3959842421
1.1600000000	1.5204847860
1.1650000000	1.6658381990
1.1700000000	1.8327418068
1.1750000000	2.0022426045
1.1800000000	2.1631104068
1.1850000000	3.0040731412
1.1900000000	3.7284647151
1.1950000000	5.1125201040
1.2000000000	6.9638628413
1.2050000000	6.1075048211
1.2100000000	5.8440509261
1.2150000000	6.5056396532
1.2200000000	7.7805542523
1.2250000000	9.7385810513
1.2300000000	12.7159656453
1.2350000000	17.4259063096
1.2400000000	25.3598049590
1.2450000000	40.2992593327
1.2500000000	72.6538061748
1.2550000000	157.2718031686
1.2600000000	379.8746522519
1.2650000000	384.7946614112
1.2700000000	160.0655415568
1.2750000000	73.8857725876
1.2800000000	40.9188550909
1.2850000000	25.7319116351
1.2900000000	17.6366300075
1.2950000000	12.8536216543
1.3000000000	9.8070433854
1.3050000000	7.7557722335
1.3100000000	6.3092695956
1.3150000000	5.2640660391
1.3200000000	4.4892119519
1.3250000000	3.9060486163
1.3300000000	3.4667920648
1.3350000000	3.1421096490
1.3400000000	2.9167502157
1.3450000000	2.7864847553
1.3500000000	2.7701425523
1.3550000000	2.9106218637
1.3600000000	3.3171477281
1.3650000000	4.2677202119
1.3700000000	6.5385797998
1.3750000000	12.1893802863
1.3800000000	19.9073934928
1.3850000000	13.9078267180
1.3900000000	7.0890998610
1.3950000000	4.1144405402
1.4000000000	2.6951315549
1.4050000000	1.8223459863
1.4100000000	1.0316246457
1.4150000000	-0.1491168355
1.4200000000	-2.7938803978
1.4250000000	-9.8027987835
1.4300000000	-13.1796077039
1.4350000000	6.0364314857
1.4400000000	7.7219205742
1.4450000000	4.6293593696
1.4500000000	2.8803798080
1.4550000000	1.9854911609
1.4600000000	1.4662525612
1.4650000000	1.0562641988
1.4700000000	0.6182436124
1.4750000000	0.7254528891
1.4800000000	1.0617246700
1.4850000000	0.9641354257
1.4900000000	0.8538723600
1.4950000000	0.7825370048
1.5000000000	0.7356646440
1.5050000000	0.7046717962
1.5100000000	0.6835898702
1.5150000000	0.6720975396
1.5200000000	0.6636323109
1.5250000000	0.6605998035
1.5300000000	0.6632873372
1.5350000000	0.6729149280
1.5400000000	0.6925203658
1.5450000000	0.7288483576
1.5500000000	0.7970569834
1.5550000000	0.9273609184
1.5600000000	1.1229667343
1.5650000000	1.1542896400
1.5700000000	0.9776899356
1.5750000000	0.8537286787
1.5800000000	0.8001977417
1.5850000000	0.7832815010
1.5900000000	0.7853471943
1.5950000000	0.7987362114
1.6000000000	0.8201107388
1.6050000000	0.8483191497
1.6100000000	0.8825025201
1.6150000000	0.9225308225
1.6200000000	0.9690405564
1.6250000000	1.0225806199
1.6300000000	1.0840546409
1.6350000000	1.1546278836
1.6400000000	1.2357907836
1.6450000000	1.3294470119
1.6500000000	1.4379861009
1.6550000000	1.5644365311
1.6600000000	1.7127218064
1.6650000000	1.8879063898
1.6700000000	2.0949132101
1.6750000000	2.3458279684
1.6800000000	2.6513301585
1.6850000000	3.0282212816
1.6900000000	3.5003556027
1.6950000000	4.1027360957
1.7000000000	4.8880524071
1.7050000000	5.9713613102
1.7100000000	7.4826691920
1.7150000000	9.6792035314
1.7200000000	13.0264653117
1.7250000000	18.3362927958
1.7300000000	26.4962837250
1.7350000000	36.9732601794
1.7400000000	50.2282551015
1.7450000000	73.4868957839
1.7500000000	103.6738218896
1.7550000000	105.3436164098
1.7600000000	73.9045768239
1.7650000000	46.0346442800
1.7700000000	29.5091198180
1.7750000000	20.1120766920
1.7800000000	14.5586965997
1.7850000000	11.1424088749
1.7900000000	9.0232881895
1.7950000000	7.8098215660
1.8000000000	7.3183546933
1.8050000000	7.1610758697
1.8100000000	6.3706330824
1.8150000000	4.9372530585
1.8200000000	3.7921039366
1.8250000000	3.2013004760
1.8300000000	2.7871836275
1.8350000000	2.4191987908
1.8400000000	2.1191181326
1.8450000000	1.8809519156
1.8500000000	1.6889870384
1.8550000000	1.5303807813
1.8600000000	1.3844579088
1.8650000000	1.2610795376
1.8700000000	1.1363626582
1.8750000000	0.9565400268
1.8800000000	0.5466201508
1.8850000000	-0.3517824361
1.8900000000	-1.5601673697
1.8950000000	-1.7674330246
1.9000000000	0.1887506677
1.9050000000	2.0125549958
1.9100000000	2.2253633498
1.9150000000	1.8799732664
1.9200000000	1.5414655869
1.9250000000	1.3012662877
1.9300000000	1.1558104641
1.9350000000	1.0447718878
1.9400000000	0.9709237597
1.9450000000	0.9220592527
1.9500000000	0.8879053599
1.9550000000	0.8592900850
1.9600000000	0.8345476077
1.9650000000	0.8169658721
1.9700000000	0.8075712993
1.9750000000	0.8057410827
1.9800000000	0.8109696397
1.9850000000	0.8234109662
1.9900000000	0.8438863449
1.9950000000	0.8734223690
2.0000000000	0.9112467468
2.0050000000	0.9541151647
2.0100000000	0.9847654500
2.0150000000	1.0050675212
2.0200000000	1.0295472292
2.0250000000	1.0674623046
2.0300000000	1.1215246278
2.0350000000	1.1930770547
2.0400000000	1.2845672754
2.0450000000	1.4002533625
2.0500000000	1.5462555106
2.0550000000	1.7293735848
2.0600000000	1.9528951985
2.0650000000	2.2132840490
2.0700000000	2.5144287272
2.0750000000	2.8899198543
2.0800000000	3.3952252140
2.0850000000	4.0844148525
2.0900000000	4.9889368901
2.0950000000	6.0438358280
2.1000000000	6.9841809045
2.1050000000	7.4402008601
2.1100000000	7.2246802146
2.1150000000	6.7279606323
2.1200000000	6.3774246381
2.1250000000	6.3640099973
2.1300000000	6.7444784307
2.1350000000	7.5639180421
2.1400000000	8.9125231099
2.1450000000	10.9497474216
2.1500000000	13.8987908729
2.1550000000	17.9272434576
2.1600000000	22.7102240345
2.1650000000	26.7301048229
2.1700000000	27.6798498767
2.1750000000	24.7778120624
2.1800000000	20.0036687283
2.1850000000	15.4337134568
2.1900000000	11.8607587092
2.1950000000	9.2794895870
2.2000000000	7.4686164696
2.2050000000	6.2193805770
2.2100000000	5.3522389683
2.2150000000	4.6871046953
2.2200000000	4.0909435502
2.2250000000	3.5237417867
2.2300000000	3.0101087740
2.2350000000	2.5690723663
2.2400000000	2.1955425689
2.2450000000	1.8730330700
2.2500000000	1.5851250459
2.2550000000	1.3226283016
2.2600000000	1.0601284614
2.2650000000	0.8691398657
2.2700000000	0.7653604479
2.2750000000	0.7914061525
2.2800000000	0.9419847901
2.2850000000	1.1337465668
2.2900000000	1.2740953858
2.2950000000	1.3362643317
2.3000000000	1.3433174512
2.3050000000	1.3217763857
2.3100000000	1.2934241697
2.3150000000	1.2683008852
2.3200000000	1.2503754266
2.3250000000	1.2418214174
2.3300000000	1.2443929287
2.3350000000	1.2595417245
2.3400000000	1.2885089631
2.3450000000	1.3325517465
2.3500000000	1.3930031612
2.3550000000	1.4718640161
2.3600000000	1.5678359372
2.3650000000	1.6815175950
2.3700000000	1.8125928877
2.3750000000	1.9624848490
2.3800000000	2.1366035783
2.3850000000	2.3413691528
2.3900000000	2.5782024818
2.3950000000	2.8365629095
2.4000000000	3.0893494847
2.4050000000	3.3072378086
2.4100000000	3.4280883756
2.4150000000	3.4398005354
2.4200000000	3.3718838514
2.4250000000	3.2746622793
2.4300000000	3.1928035179
2.4350000000	3.1532760509
2.4400000000	3.1668477437
2.4450000000	3.2352690484
2.4500000000	3.3587713623
2.4550000000	3.5401168052
2.4600000000	3.7909175093
2.4650000000	4.1230767935
2.4700000000	4.5498421414
2.4750000000	5.0794819661
2.4800000000	5.7078079188
2.4850000000	6.4080086909
2.4900000000	7.1187690859
2.4950000000	7.7383497793
2.5000000000	8.1394467466
2.5050000000	8.1909612235
2.5100000000	7.8405585834
2.5150000000	7.1838785120
2.5200000000	6.3737199194
2.5250000000	5.5443169777
2.5300000000	4.7774895108
2.5350000000	4.1076145406
2.5400000000	3.5397504219
2.5450000000	3.0654694693
2.5500000000	2.6725611433
2.5550000000	2.3500537155
2.5600000000	2.0803758455
2.5650000000	1.8785426524
2.5700000000	1.7335042573
2.5750000000	1.6400883437
2.5800000000	1.5879307915
2.5850000000	1.5628581453
2.5900000000	1.5515697383
2.5950000000	1.5457835675
2.6000000000	1.5428288701
2.6050000000	1.5550444148
2.6100000000	1.5744430899
2.6150000000	1.6040077695
2.6200000000	1.6453231598
2.6250000000	1.6984874684
2.6300000000	1.7619995733
2.6350000000	1.8326727874
2.6400000000	1.9056382940
2.6450000000	1.9747220851
2.6500000000	2.0333855595
2.6550000000	2.0762679749
2.6600000000	2.1008794020
2.6650000000	2.1086831696
2.6700000000	2.1047866619
2.6750000000	2.0966558533
2.6800000000	2.0915251305
2.6850000000	2.0961542977
2.6900000000	2.1152514978
2.6950000000	2.1517107990
2.7000000000	2.2069203669
2.7050000000	2.2895093590
2.7100000000	2.3957547847
2.7150000000	2.5239415002
2.7200000000	2.6705227262
2.7250000000	2.8294769175
2.7300000000	2.9917125620
2.7350000000	3.1449717628
2.7400000000	3.2746747991
2.7450000000	3.3660180913
2.7500000000	3.4070693847
2.7550000000	3.3918186206
2.7600000000	3.3218032080
2.7650000000	3.2055539811
2.7700000000	3.0561236135
2.7750000000	2.8879738139
2.7800000000	2.7143646491
2.7850000000	2.5459034354
2.7900000000	2.3887397559
2.7950000000	2.2496028802
2.8000000000	2.1298850530
2.8050000000	2.0189932287
2.8100000000	1.9315498977
2.8150000000	1.8641160563
2.8200000000	1.8129557415
2.8250000000	1.7746408554
2.8300000000	1.7462582303
2.8350000000	1.7253917132
2.8400000000	1.7099999535
2.8450000000	1.6983500900
2.8500000000	1.6890505882
2.8550000000	1.6811776518
2.8600000000	1.6744179131
2.8650000000	1.6691149467
2.8700000000	1.6661814271
2.8750000000	1.6668729613
2.8800000000	1.6725098379
2.8850000000	1.6842261104
2.8900000000	1.7027947808
2.8950000000	1.7285222927
2.9000000000	1.7611965449
2.9050000000	1.8100560618
2.9100000000	1.8636261129
2.9150000000	1.9183316626
2.9200000000	1.9696545255
2.9250000000	2.0127413504
2.9300000000	2.0430861209
2.9350000000	2.0573200926
2.9400000000	2.0538637042
2.9450000000	2.0332284570
2.9500000000	1.9978258734
2.9550000000	1.9513531738
2.9600000000	1.8980140449
2.9650000000	1.8417904000
2.9700000000	1.7859568524
2.9750000000	1.7328686390
2.9800000000	1.6839759471
2.9850000000	1.6399802818
2.9900000000	1.6010451621
2.9950000000	1.5670001351
3.0000000000	1.5375078590
