# energy (eV)    P(omega), $W$ = 300 nm, $h$ = 300 nm, $s$ = 20 nm, $d/W = 5$, $E_{\rm e}$ = 200 keV
0.2000000000	0.0572804389
0.2050000000	0.0581527030
0.2100000000	0.0589632892
0.2150000000	0.0597142573
0.2200000000	0.0604074614
0.2250000000	0.0610444324
0.2300000000	0.0616263928
0.2350000000	0.0621541938
0.2400000000	0.0626282688
0.2450000000	0.0630485572
0.2500000000	0.0634144455
0.2550000000	0.0637246134
0.2600000000	0.0639770067
0.2650000000	0.0641685716
0.2700000000	0.0642951581
0.2750000000	0.0643512083
0.2800000000	0.0643294747
0.2850000000	0.0642206030
0.2900000000	0.0640126288
0.2950000000	0.0636903072
0.3000000000	0.0632341817
0.3050000000	0.0626194564
0.3100000000	0.0618143726
0.3150000000	0.0654548318
0.3200000000	0.0697781320
0.3250000000	0.0752500457
0.3300000000	0.0825849384
0.3350000000	0.0917122935
0.3400000000	0.1036642797
0.3450000000	0.1181479937
0.3500000000	0.1370872445
0.3550000000	0.1621342692
0.3600000000	0.1948127318
0.3650000000	0.2403464899
0.3700000000	0.3003252457
0.3750000000	0.3836913980
0.3800000000	0.5041711361
0.3850000000	0.6917789115
0.3900000000	0.9879216997
0.3950000000	1.4905636339
0.4000000000	2.4480931604
0.4050000000	4.5933347756
0.4100000000	10.4424165007
0.4150000000	33.4797536752
0.4200000000	21.3456422730
0.4250000000	-40.0668352069
0.4300000000	11.1197041040
0.4350000000	6.9202797143
0.4400000000	4.2240736590
0.4450000000	2.7738294705
0.4500000000	1.9395405071
0.4550000000	1.4264551725
0.4600000000	1.0924859511
0.4650000000	0.8650297958
0.4700000000	0.7043429261
0.4750000000	0.5881700914
0.4800000000	0.5020549321
0.4850000000	0.4372551668
0.4900000000	0.3877786997
0.4950000000	0.3496047756
0.5000000000	0.3199845968
0.5050000000	0.2969035131
0.5100000000	0.2790620406
0.5150000000	0.2655025285
0.5200000000	0.2552303459
0.5250000000	0.2477918589
0.5300000000	0.2427047867
0.5350000000	0.2396148848
0.5400000000	0.2382606338
0.5450000000	0.2384236716
0.5500000000	0.2400305603
0.5550000000	0.2429568350
0.5600000000	0.2471361631
0.5650000000	0.2525368390
0.5700000000	0.2591282839
0.5750000000	0.2669555358
0.5800000000	0.2760914788
0.5850000000	0.2865827072
0.5900000000	0.2985227368
0.5950000000	0.3120313137
0.6000000000	0.3272604090
0.6050000000	0.3444342592
0.6100000000	0.3637639505
0.6150000000	0.3855402237
0.6200000000	0.4101512184
0.6250000000	0.4379686493
0.6300000000	0.4695430813
0.6350000000	0.5055604969
0.6400000000	0.5467337518
0.6450000000	0.5940935583
0.6500000000	0.6489940352
0.6550000000	0.7128439807
0.6600000000	0.7878106342
0.6650000000	0.8766718243
0.6700000000	0.9826927127
0.6750000000	1.1108550383
0.6800000000	1.2678548858
0.6850000000	1.4624606807
0.6900000000	1.7082523945
0.6950000000	2.0242184175
0.7000000000	2.4405166130
0.7050000000	3.0032384544
0.7100000000	3.7904654906
0.7150000000	4.9411723800
0.7200000000	6.7140147937
0.7250000000	9.6556495226
0.7300000000	15.0528861224
0.7350000000	26.5966381096
0.7400000000	58.2421889956
0.7450000000	193.0638971538
0.7500000000	597.6370999880
0.7550000000	150.2287200660
0.7600000000	49.7124790272
0.7650000000	23.8003023401
0.7700000000	13.8302809306
0.7750000000	9.0193674284
0.7800000000	6.3421855926
0.7850000000	4.7065332907
0.7900000000	3.6332292156
0.7950000000	2.8932773329
0.8000000000	2.3615510282
0.8050000000	1.9656806390
0.8100000000	1.6639176222
0.8150000000	1.4248092802
0.8200000000	1.2361601296
0.8250000000	1.0843112508
0.8300000000	0.9599665902
0.8350000000	0.8577577449
0.8400000000	0.7721020110
0.8450000000	0.7002422286
0.8500000000	0.6395075671
0.8550000000	0.5871116372
0.8600000000	0.5423850715
0.8650000000	0.5041757129
0.8700000000	0.4704241307
0.8750000000	0.4417002225
0.8800000000	0.4173084330
0.8850000000	0.3954419616
0.8900000000	0.3778584804
0.8950000000	0.3618640874
0.9000000000	0.3491402541
0.9050000000	0.3402883976
0.9100000000	0.3321705027
0.9150000000	0.3271350700
0.9200000000	0.3262630272
0.9250000000	0.3255563085
0.9300000000	0.3205601698
0.9350000000	0.3061631613
0.9400000000	0.2270573273
0.9450000000	-0.1315008618
0.9500000000	-2.0216734514
0.9550000000	-11.6014564468
0.9600000000	2.7362345401
0.9650000000	4.8025878594
0.9700000000	2.1291166798
0.9750000000	1.1175941997
0.9800000000	0.7005236387
0.9850000000	0.5055107866
0.9900000000	0.3932021009
0.9950000000	0.3251211426
1.0000000000	0.2816569344
1.0050000000	0.2540888469
1.0100000000	0.2327376970
1.0150000000	0.2171458052
1.0200000000	0.2066371652
1.0250000000	0.1978364393
1.0300000000	0.1911621405
1.0350000000	0.1861272243
1.0400000000	0.1829365681
1.0450000000	0.1803085323
1.0500000000	0.1786038610
1.0550000000	0.1777186968
1.0600000000	0.1778824007
1.0650000000	0.1784557396
1.0700000000	0.1797010894
1.0750000000	0.1816239166
1.0800000000	0.1843974341
1.0850000000	0.1879146302
1.0900000000	0.1930695252
1.0950000000	0.1991835043
1.1000000000	0.2064552665
1.1050000000	0.2148503728
1.1100000000	0.2246263008
1.1150000000	0.2360051395
1.1200000000	0.2492419269
1.1250000000	0.2647056017
1.1300000000	0.2828486393
1.1350000000	0.3042485093
1.1400000000	0.3295535950
1.1450000000	0.3599860168
1.1500000000	0.3968430881
1.1550000000	0.4420147246
1.1600000000	0.4981674563
1.1650000000	0.5687520111
1.1700000000	0.6602753044
1.1750000000	0.7813376416
1.1800000000	0.9461699631
1.1850000000	1.1781735790
1.1900000000	1.5214007717
1.1950000000	2.0605439569
1.2000000000	2.9753682643
1.2050000000	4.7044811507
1.2100000000	8.5081828680
1.2150000000	18.7867918258
1.2200000000	46.1130741514
1.2250000000	41.3902000687
1.2300000000	16.4726728201
1.2350000000	7.6963150410
1.2400000000	4.3715048898
1.2450000000	2.8432124094
1.2500000000	2.0348759589
1.2550000000	1.5659315906
1.2600000000	1.2777724537
1.2650000000	1.0940379725
1.2700000000	0.9802450234
1.2750000000	0.9139801044
1.2800000000	0.8842214874
1.2850000000	0.8856926032
1.2900000000	0.9170405532
1.2950000000	0.9796463285
1.3000000000	1.0819185382
1.3050000000	1.2344968836
1.3100000000	1.4578907522
1.3150000000	1.7877576895
1.3200000000	2.2884661723
1.3250000000	3.0825092304
1.3300000000	4.4390326985
1.3350000000	6.9811974588
1.3400000000	12.4149750061
1.3450000000	25.9013031396
1.3500000000	54.9104082585
1.3550000000	51.1772509808
1.3600000000	23.5915838085
1.3650000000	11.5902256671
1.3700000000	6.6474367914
1.3750000000	4.2758240091
1.3800000000	2.9827738856
1.3850000000	2.2037649543
1.3900000000	1.7014606329
1.3950000000	1.3585759798
1.4000000000	1.1143231666
1.4050000000	0.9344713768
1.4100000000	0.7981041151
1.4150000000	0.6924111411
1.4200000000	0.6078598457
1.4250000000	0.5401387404
1.4300000000	0.4853541496
1.4350000000	0.4296513836
1.4400000000	0.2532932609
1.4450000000	-0.2034214267
1.4500000000	-1.0389223889
1.4550000000	-0.3773163649
1.4600000000	0.9479342000
1.4650000000	0.5768416220
1.4700000000	-0.2461594001
1.4750000000	-1.5042819389
1.4800000000	-0.6556855321
1.4850000000	1.1808630568
1.4900000000	0.9553296051
1.4950000000	0.6224629829
1.5000000000	0.4402650941
1.5050000000	0.3412892532
1.5100000000	0.2845473231
1.5150000000	0.2496223578
1.5200000000	0.2266497244
1.5250000000	0.2120276680
1.5300000000	0.2004109471
1.5350000000	0.1919088428
1.5400000000	0.1856825108
1.5450000000	0.1812195556
1.5500000000	0.1781839755
1.5550000000	0.1764059333
1.5600000000	0.1761712670
1.5650000000	0.1768245263
1.5700000000	0.1789632706
1.5750000000	0.1829946486
1.5800000000	0.1897445643
1.5850000000	0.2008396075
1.5900000000	0.2197102760
1.5950000000	0.2538949777
1.6000000000	0.3191029833
1.6050000000	0.4246679000
1.6100000000	0.4714950131
1.6150000000	0.3807915632
1.6200000000	0.2987770598
1.6250000000	0.2581011703
1.6300000000	0.2403175100
1.6350000000	0.2339518796
1.6400000000	0.2338661436
1.6450000000	0.2377361687
1.6500000000	0.2444645317
1.6550000000	0.2535926231
1.6600000000	0.2649426131
1.6650000000	0.2785348937
1.6700000000	0.2945236958
1.6750000000	0.3131775324
1.6800000000	0.3348776283
1.6850000000	0.3601314959
1.6900000000	0.3895902992
1.6950000000	0.4238728246
1.7000000000	0.4642849581
1.7050000000	0.5132075847
1.7100000000	0.5734639902
1.7150000000	0.6590190259
1.7200000000	0.7775758194
1.7250000000	0.9212878270
1.7300000000	1.1017721960
1.7350000000	1.2946408299
1.7400000000	1.4649151668
1.7450000000	1.6766555780
1.7500000000	2.0051576430
1.7550000000	2.5010497697
1.7600000000	3.2467251560
1.7650000000	4.3978071624
1.7700000000	6.2520110858
1.7750000000	9.3740248862
1.7800000000	14.6886728159
1.7850000000	22.5139526838
1.7900000000	27.9398312893
1.7950000000	23.7535692892
1.8000000000	15.7796622867
1.8050000000	9.9439418364
1.8100000000	6.5400198348
1.8150000000	4.5461356768
1.8200000000	3.3194553542
1.8250000000	2.5241167952
1.8300000000	1.9837399337
1.8350000000	1.6017358398
1.8400000000	1.3226786656
1.8450000000	1.1128770486
1.8500000000	0.9510686111
1.8550000000	0.8239139544
1.8600000000	0.7219802577
1.8650000000	0.6387490737
1.8700000000	0.5694081346
1.8750000000	0.5101844372
1.8800000000	0.4577604004
1.8850000000	0.4087714641
1.8900000000	0.3589418311
1.8950000000	0.3017699495
1.9000000000	0.2263140853
1.9050000000	0.0978830311
1.9100000000	-0.0886076770
1.9150000000	-0.2894536398
1.9200000000	-0.1996280092
1.9250000000	0.3871934034
1.9300000000	0.8585508781
1.9350000000	0.8968018309
1.9400000000	0.7392505035
1.9450000000	0.5800603014
1.9500000000	0.4655985583
1.9550000000	0.3888028764
1.9600000000	0.3369898880
1.9650000000	0.3026869267
1.9700000000	0.2767103057
1.9750000000	0.2576455828
1.9800000000	0.2432859414
1.9850000000	0.2320724405
1.9900000000	0.2228941747
1.9950000000	0.2148512505
2.0000000000	0.2077266375
2.0050000000	0.2040962064
2.0100000000	0.2074263205
2.0150000000	0.2153885914
2.0200000000	0.2216558391
2.0250000000	0.2259284775
2.0300000000	0.2304900603
2.0350000000	0.2363257467
2.0400000000	0.2441872342
2.0450000000	0.2545638126
2.0500000000	0.2680436664
2.0550000000	0.2852233102
2.0600000000	0.3061311581
2.0650000000	0.3287809564
2.0700000000	0.3482451561
2.0750000000	0.3606101618
2.0800000000	0.3685477454
2.0850000000	0.3780251584
2.0900000000	0.3927365021
2.0950000000	0.4138108842
2.1000000000	0.4418556628
2.1050000000	0.4762293584
2.1100000000	0.5193302175
2.1150000000	0.5728231352
2.1200000000	0.6391790433
2.1250000000	0.7219499315
2.1300000000	0.8262004026
2.1350000000	0.9591946066
2.1400000000	1.1314326082
2.1450000000	1.3582621734
2.1500000000	1.6620252705
2.1550000000	2.0743003504
2.1600000000	2.6354623317
2.1650000000	3.3796549780
2.1700000000	4.2939448923
2.1750000000	5.2064146670
2.1800000000	5.7833397705
2.1850000000	5.8482864812
2.1900000000	5.6496796135
2.1950000000	5.5178242295
2.2000000000	5.4798511206
2.2050000000	5.2163065232
2.2100000000	4.5932633551
2.2150000000	3.8018617209
2.2200000000	3.0777543045
2.2250000000	2.4977866370
2.2300000000	2.0413024936
2.2350000000	1.6787293820
2.2400000000	1.3910670915
2.2450000000	1.1665409546
2.2500000000	0.9914373689
2.2550000000	0.8532828729
2.2600000000	0.7416656013
2.2650000000	0.6479226128
2.2700000000	0.5647749834
2.2750000000	0.4871137772
2.2800000000	0.4153001763
2.2850000000	0.3583497702
2.2900000000	0.3296171544
2.2950000000	0.3337054051
2.3000000000	0.3574409959
2.3050000000	0.3806374115
2.3100000000	0.3906496745
2.3150000000	0.3881197109
2.3200000000	0.3785838551
2.3250000000	0.3676939706
2.3300000000	0.3585043047
2.3350000000	0.3520734143
2.3400000000	0.3481820037
2.3450000000	0.3456969370
2.3500000000	0.3431053768
2.3550000000	0.3394398938
2.3600000000	0.3349687967
2.3650000000	0.3308654959
2.3700000000	0.3282932753
2.3750000000	0.3278206204
2.3800000000	0.3293511335
2.3850000000	0.3323016350
2.3900000000	0.3360224416
2.3950000000	0.3399579007
2.4000000000	0.3444396591
2.4050000000	0.3507032498
2.4100000000	0.3593767443
2.4150000000	0.3712565516
2.4200000000	0.3868843477
2.4250000000	0.4067529377
2.4300000000	0.4314150972
2.4350000000	0.4615637100
2.4400000000	0.4980902693
2.4450000000	0.5421449231
2.4500000000	0.5951914665
2.4550000000	0.6590817964
2.4600000000	0.7361027028
2.4650000000	0.8290211376
2.4700000000	0.9410421910
2.4750000000	1.0754283706
2.4800000000	1.2357085844
2.4850000000	1.4234696538
2.4900000000	1.6371575111
2.4950000000	1.8690431179
2.5000000000	2.1019558038
2.5050000000	2.3172230335
2.5100000000	2.4562916549
2.5150000000	2.4867384956
2.5200000000	2.4043710170
2.5250000000	2.2349602642
2.5300000000	2.0177137717
2.5350000000	1.7870222460
2.5400000000	1.5646686505
2.5450000000	1.3614191175
2.5500000000	1.1812966883
2.5550000000	1.0248125248
2.5600000000	0.8896962775
2.5650000000	0.7756517319
2.5700000000	0.6804033386
2.5750000000	0.6026041534
2.5800000000	0.5412022298
2.5850000000	0.4948943866
2.5900000000	0.4613280599
2.5950000000	0.4370975190
2.6000000000	0.4186406127
2.6050000000	0.4054768777
2.6100000000	0.3936571242
2.6150000000	0.3830359913
2.6200000000	0.3738788871
2.6250000000	0.3664467515
2.6300000000	0.3608971465
2.6350000000	0.3572983856
2.6400000000	0.3556863098
2.6450000000	0.3561014060
2.6500000000	0.3586306110
2.6550000000	0.3632885550
2.6600000000	0.3701974409
2.6650000000	0.3794652237
2.6700000000	0.3912191031
2.6750000000	0.4056099970
2.6800000000	0.4228058727
2.6850000000	0.4429901763
2.6900000000	0.4663401772
2.6950000000	0.4930165474
2.7000000000	0.5231305818
2.7050000000	0.5603083898
2.7100000000	0.6019771709
2.7150000000	0.6478508173
2.7200000000	0.6973109982
2.7250000000	0.7493276990
2.7300000000	0.8023861196
2.7350000000	0.8544225355
2.7400000000	0.9027908240
2.7450000000	0.9446976049
2.7500000000	0.9760878801
2.7550000000	0.9941763593
2.7600000000	0.9968711546
2.7650000000	0.9836341822
2.7700000000	0.9556710294
2.7750000000	0.9156867121
2.7800000000	0.8672687595
2.7850000000	0.8142336916
2.7900000000	0.7599909792
2.7950000000	0.7072703175
2.8000000000	0.6579971123
2.8050000000	0.6078937218
2.8100000000	0.5646424918
2.8150000000	0.5281447621
2.8200000000	0.4978268427
2.8250000000	0.4729262618
2.8300000000	0.4526781462
2.8350000000	0.4364306217
2.8400000000	0.4234907029
2.8450000000	0.4139050668
2.8500000000	0.4071658586
2.8550000000	0.4030838500
2.8600000000	0.4015251717
2.8650000000	0.4023840620
2.8700000000	0.4055663684
2.8750000000	0.4109757435
2.8800000000	0.4185007203
2.8850000000	0.4280027046
2.8900000000	0.4393110567
2.8950000000	0.4522173680
2.9000000000	0.4664744463
2.9050000000	0.4852026357
2.9100000000	0.5044304146
2.9150000000	0.5234162868
2.9200000000	0.5412685982
2.9250000000	0.5569534999
2.9300000000	0.5694993159
2.9350000000	0.5776124326
2.9400000000	0.5806448798
2.9450000000	0.5782648528
2.9500000000	0.5706676784
2.9550000000	0.5585464470
2.9600000000	0.5429567959
2.9650000000	0.5251233698
2.9700000000	0.5062478985
2.9750000000	0.4873730754
2.9800000000	0.4693075624
2.9850000000	0.4526154871
2.9900000000	0.4376440033
2.9950000000	0.4245699446
3.0000000000	0.4134503252
