# energy (eV)    P(omega), $W$ = 400 nm, $h$ = 300 nm, $s$ = 20 nm, $d/W = 5$, $E_{\rm e}$ = 200 keV
0.2000000000	0.1280117418
0.2050000000	0.1291764009
0.2100000000	0.1299965527
0.2150000000	0.1304583827
0.2200000000	0.1305425790
0.2250000000	0.1302229058
0.2300000000	0.1294648474
0.2350000000	0.1282234619
0.2400000000	0.1264409577
0.2450000000	0.1240428490
0.2500000000	0.1209339123
0.2550000000	0.1169916203
0.2600000000	0.1120580815
0.2650000000	0.1172281630
0.2700000000	0.1303606189
0.2750000000	0.1491528575
0.2800000000	0.1753359514
0.2850000000	0.2139369046
0.2900000000	0.2617667493
0.2950000000	0.3303352900
0.3000000000	0.4225117477
0.3050000000	0.5637969767
0.3100000000	0.7606044649
0.3150000000	1.1414188893
0.3200000000	1.7361813208
0.3250000000	2.1433914217
0.3300000000	2.7066970082
0.3350000000	3.5052672214
0.3400000000	4.7588652390
0.3450000000	6.9096437941
0.3500000000	11.1984957391
0.3550000000	21.1266913068
0.3600000000	51.9217938002
0.3650000000	0.2343104212
0.3700000000	24.0643133850
0.3750000000	31.6438355778
0.3800000000	14.7450488918
0.3850000000	8.3060850111
0.3900000000	5.3276613251
0.3950000000	3.7543223041
0.4000000000	2.8433584709
0.4050000000	2.2494723529
0.4100000000	1.8628393706
0.4150000000	1.6078343221
0.4200000000	1.4466677886
0.4250000000	1.3200922645
0.4300000000	1.1705216511
0.4350000000	1.0521453125
0.4400000000	0.9585229630
0.4450000000	0.8840823800
0.4500000000	0.8253122892
0.4550000000	0.7787096624
0.4600000000	0.7423563237
0.4650000000	0.7142233714
0.4700000000	0.6929677042
0.4750000000	0.6776495743
0.4800000000	0.6674489334
0.4850000000	0.6616467328
0.4900000000	0.6598177437
0.4950000000	0.6616348274
0.5000000000	0.6668184831
0.5050000000	0.6752441577
0.5100000000	0.6868097938
0.5150000000	0.7014547816
0.5200000000	0.7192094961
0.5250000000	0.7400988962
0.5300000000	0.7644296158
0.5350000000	0.7923380584
0.5400000000	0.8240696955
0.5450000000	0.8599464966
0.5500000000	0.9004239439
0.5550000000	0.9460002776
0.5600000000	0.9972819447
0.5650000000	1.0550487114
0.5700000000	1.1203770808
0.5750000000	1.1940649050
0.5800000000	1.2776050407
0.5850000000	1.3730371738
0.5900000000	1.4817371861
0.5950000000	1.6066001049
0.6000000000	1.7514507137
0.6050000000	1.9191556611
0.6100000000	2.1162861076
0.6150000000	2.3482914187
0.6200000000	2.6245259510
0.6250000000	2.9584099593
0.6300000000	3.3636302324
0.6350000000	3.8659046262
0.6400000000	4.4936074149
0.6450000000	5.2982269498
0.6500000000	6.3455345673
0.6550000000	7.7469409062
0.6600000000	9.6905594847
0.6650000000	12.4735952458
0.6700000000	16.6877779375
0.6750000000	23.4635522701
0.6800000000	35.4410177478
0.6850000000	59.4745934764
0.6900000000	119.1967867211
0.6950000000	334.6037106611
0.7000000000	1622.8587016949
0.7050000000	788.9939880444
0.7100000000	202.6764186931
0.7150000000	86.1896074308
0.7200000000	47.0693477955
0.7250000000	29.5680286331
0.7300000000	20.2796267604
0.7350000000	14.7887850243
0.7400000000	11.2726463891
0.7450000000	8.8860280739
0.7500000000	7.1953910408
0.7550000000	5.9533281649
0.7600000000	5.0171566976
0.7650000000	4.2911684483
0.7700000000	3.7180746601
0.7750000000	3.2579871818
0.7800000000	2.8841042538
0.7850000000	2.5762495959
0.7900000000	2.3183386953
0.7950000000	2.1029355374
0.8000000000	1.9197846052
0.8050000000	1.7628710407
0.8100000000	1.6292904228
0.8150000000	1.5122124814
0.8200000000	1.4102835085
0.8250000000	1.3247472184
0.8300000000	1.2498745595
0.8350000000	1.1847835608
0.8400000000	1.1329482362
0.8450000000	1.0877190505
0.8500000000	1.0493694490
0.8550000000	1.0251289581
0.8600000000	1.0057118380
0.8650000000	0.9918089640
0.8700000000	0.9966485311
0.8750000000	0.9983432353
0.8800000000	0.9929690603
0.8850000000	0.9497930498
0.8900000000	0.7370676485
0.8950000000	-0.3290070655
0.9000000000	-6.0455916083
0.9050000000	-39.7239216757
0.9100000000	7.5641821437
0.9150000000	17.9181992414
0.9200000000	7.4381731852
0.9250000000	3.8695337210
0.9300000000	2.3620365992
0.9350000000	1.6418008878
0.9400000000	1.2532611977
0.9450000000	1.0378921727
0.9500000000	0.8849419876
0.9550000000	0.7825539232
0.9600000000	0.7192245668
0.9650000000	0.6669645007
0.9700000000	0.6296634222
0.9750000000	0.6042268898
0.9800000000	0.5887168363
0.9850000000	0.5858188974
0.9900000000	0.5913638372
0.9950000000	0.6139826553
1.0000000000	0.6681502795
1.0050000000	0.7946913539
1.0100000000	1.1263638604
1.0150000000	2.2631695785
1.0200000000	4.3443298946
1.0250000000	1.9760402889
1.0300000000	1.0130395327
1.0350000000	0.7260274925
1.0400000000	0.6131691913
1.0450000000	0.5602328366
1.0500000000	0.5337096599
1.0550000000	0.5198045114
1.0600000000	0.5135774889
1.0650000000	0.5124347864
1.0700000000	0.5149382995
1.0750000000	0.5205830054
1.0800000000	0.5283623036
1.0850000000	0.5389417213
1.0900000000	0.5542225874
1.0950000000	0.5720342999
1.1000000000	0.5925518097
1.1050000000	0.6158123099
1.1100000000	0.6421840545
1.1150000000	0.6720180896
1.1200000000	0.7057309139
1.1250000000	0.7436672615
1.1300000000	0.7868098959
1.1350000000	0.8358213186
1.1400000000	0.8916936820
1.1450000000	0.9556885826
1.1500000000	1.0287878945
1.1550000000	1.1140484618
1.1600000000	1.2134041848
1.1650000000	1.3293901177
1.1700000000	1.4625436824
1.1750000000	1.5976573269
1.1800000000	1.7256903915
1.1850000000	2.3978125426
1.1900000000	2.9757182108
1.1950000000	4.0794701839
1.2000000000	5.5560852585
1.2050000000	4.8735678383
1.2100000000	4.6640189519
1.2150000000	5.1923630120
1.2200000000	6.2101061365
1.2250000000	7.7730491678
1.2300000000	10.1496208611
1.2350000000	13.9091131244
1.2400000000	20.2419826068
1.2450000000	32.1667394662
1.2500000000	57.9924082955
1.2550000000	125.5354638123
1.2600000000	303.2206537866
1.2650000000	307.1500529197
1.2700000000	127.7681851871
1.2750000000	58.9779083331
1.2800000000	32.6630062726
1.2850000000	20.5404235280
1.2900000000	14.0785645880
1.2950000000	10.2606450003
1.3000000000	7.8287940438
1.3050000000	6.1914313290
1.3100000000	5.0368208637
1.3150000000	4.2025503349
1.3200000000	3.5840958923
1.3250000000	3.1186750205
1.3300000000	2.7681530223
1.3350000000	2.5091277209
1.3400000000	2.3294447061
1.3450000000	2.2257624203
1.3500000000	2.2131726691
1.3550000000	2.3260393179
1.3600000000	2.6518132518
1.3650000000	3.4130425417
1.3700000000	5.2311086976
1.3750000000	9.7547456588
1.3800000000	15.9331107670
1.3850000000	11.1306949703
1.3900000000	5.6725879725
1.3950000000	3.2916443248
1.4000000000	2.1558119085
1.4050000000	1.4576355174
1.4100000000	0.8255750747
1.4150000000	-0.1175564068
1.4200000000	-2.2293309459
1.4250000000	-7.8251754767
1.4300000000	-10.5213047680
1.4350000000	4.8199211891
1.4400000000	6.1655075138
1.4450000000	3.6964429057
1.4500000000	2.3000415234
1.4550000000	1.5855064206
1.4600000000	1.1708242943
1.4650000000	0.8431780389
1.4700000000	0.4928266086
1.4750000000	0.5789136184
1.4800000000	0.8483134952
1.4850000000	0.7703087554
1.4900000000	0.6821237290
1.4950000000	0.6250809521
1.5000000000	0.5876055753
1.5050000000	0.5628259222
1.5100000000	0.5459682080
1.5150000000	0.5367708042
1.5200000000	0.5299905359
1.5250000000	0.5275451106
1.5300000000	0.5296600023
1.5350000000	0.5373028650
1.5400000000	0.5528874663
1.5450000000	0.5817745078
1.5500000000	0.6360126130
1.5550000000	0.7396180080
1.5600000000	0.8951356371
1.5650000000	0.9200580224
1.5700000000	0.7797191877
1.5750000000	0.6812417015
1.5800000000	0.6387612538
1.5850000000	0.6253964528
1.5900000000	0.6271316347
1.5950000000	0.6378801329
1.6000000000	0.6549902128
1.6050000000	0.6775490031
1.6100000000	0.7048748292
1.6150000000	0.7368662029
1.6200000000	0.7740327537
1.6250000000	0.8168141036
1.6300000000	0.8659327678
1.6350000000	0.9223201949
1.6400000000	0.9871674790
1.6450000000	1.0619958518
1.6500000000	1.1487148087
1.6550000000	1.2497442387
1.6600000000	1.3682192962
1.6650000000	1.5081867994
1.6700000000	1.6735812997
1.6750000000	1.8740590047
1.6800000000	2.1181546724
1.6850000000	2.4192951381
1.6900000000	2.7965436743
1.6950000000	3.2778748468
1.7000000000	3.9054001730
1.7050000000	4.7710774335
1.7100000000	5.9788318210
1.7150000000	7.7342933319
1.7200000000	10.4096122757
1.7250000000	14.6538088165
1.7300000000	21.1760287122
1.7350000000	29.5471630632
1.7400000000	40.1316823416
1.7450000000	58.7054453558
1.7500000000	82.8149675338
1.7550000000	84.1476667213
1.7600000000	59.0348718766
1.7650000000	36.7730350823
1.7700000000	23.5727790374
1.7750000000	16.0666052099
1.7800000000	11.6307322852
1.7850000000	8.9020398404
1.7900000000	7.2096923054
1.7950000000	6.2410889204
1.8000000000	5.8496631593
1.8050000000	5.7252637137
1.8100000000	5.0936481044
1.8150000000	3.9471002992
1.8200000000	3.0311021724
1.8250000000	2.5587327934
1.8300000000	2.2276908201
1.8350000000	1.9334913588
1.8400000000	1.6935869512
1.8450000000	1.5031985641
1.8500000000	1.3497585035
1.8550000000	1.2229948382
1.8600000000	1.1063838199
1.8650000000	1.0077991347
1.8700000000	0.9081611271
1.8750000000	0.7645142120
1.8800000000	0.4370455985
1.8850000000	-0.2806929267
1.8900000000	-1.2461024128
1.8950000000	-1.4117434777
1.9000000000	0.1509883257
1.9050000000	1.6080011926
1.9100000000	1.7780107895
1.9150000000	1.5020733813
1.9200000000	1.2316297960
1.9250000000	1.0397206513
1.9300000000	0.9234968253
1.9350000000	0.8347607538
1.9400000000	0.7757244942
1.9450000000	0.7366376891
1.9500000000	0.7093146939
1.9550000000	0.6864628904
1.9600000000	0.6667435319
1.9650000000	0.6527457621
1.9700000000	0.6452734507
1.9750000000	0.6438292193
1.9800000000	0.6480111657
1.9850000000	0.6579421523
1.9900000000	0.6742754714
1.9950000000	0.6978275722
2.0000000000	0.7279852069
2.0050000000	0.7621886610
2.0100000000	0.7867042452
2.0150000000	0.8030292703
2.0200000000	0.8227149869
2.0250000000	0.8531253597
2.0300000000	0.8964249985
2.0350000000	0.9536947301
2.0400000000	1.0268991828
2.0450000000	1.1194491949
2.0500000000	1.2362439953
2.0550000000	1.3827270447
2.0600000000	1.5615350352
2.0650000000	1.7698507158
2.0700000000	2.0107973848
2.0750000000	2.3112529419
2.0800000000	2.7155950368
2.0850000000	3.2670890775
2.0900000000	3.9908971972
2.0950000000	4.8350252664
2.1000000000	5.5874165228
2.1050000000	5.9520982765
2.1100000000	5.7792029410
2.1150000000	5.3811324247
2.1200000000	5.0999262405
2.1250000000	5.0883593820
2.1300000000	5.3917886877
2.1350000000	6.0461917812
2.1400000000	7.1235980105
2.1450000000	8.7514063833
2.1500000000	11.1079928490
2.1550000000	14.3273271569
2.1600000000	18.1497909003
2.1650000000	21.3624788113
2.1700000000	22.1215847298
2.1750000000	19.8023846491
2.1800000000	15.9869793421
2.1850000000	12.3347126097
2.1900000000	9.4792017073
2.1950000000	7.4162075468
2.2000000000	5.9688815676
2.2050000000	4.9703886413
2.2100000000	4.2772612503
2.2150000000	3.7456152574
2.2200000000	3.2691677394
2.2250000000	2.8159310166
2.2300000000	2.4055295779
2.2350000000	2.0531382091
2.2400000000	1.7546790853
2.2450000000	1.4969773233
2.2500000000	1.2669157670
2.2550000000	1.0571554783
2.2600000000	0.8473906205
2.2650000000	0.6947806613
2.2700000000	0.6118683947
2.2750000000	0.6327076468
2.2800000000	0.7530683411
2.2850000000	0.9063411044
2.2900000000	1.0185258855
2.2950000000	1.0682311255
2.3000000000	1.0738892961
2.3050000000	1.0566966188
2.3100000000	1.0340626787
2.3150000000	1.0140120641
2.3200000000	0.9997169595
2.3250000000	0.9929152066
2.3300000000	0.9950098749
2.3350000000	1.0071630783
2.3400000000	1.0303687959
2.3450000000	1.0656339880
2.3500000000	1.1140262856
2.3550000000	1.1771470212
2.3600000000	1.2539591574
2.3650000000	1.3449415840
2.3700000000	1.4498418236
2.3750000000	1.5697990344
2.3800000000	1.7091431234
2.3850000000	1.8730117307
2.3900000000	2.0625409382
2.3950000000	2.2692926618
2.4000000000	2.4715740722
2.4050000000	2.6459073413
2.4100000000	2.7425588207
2.4150000000	2.7518430316
2.4200000000	2.6973799437
2.4250000000	2.6194473595
2.4300000000	2.5537940139
2.4350000000	2.5220015340
2.4400000000	2.5326846382
2.4450000000	2.5872396678
2.4500000000	2.6858462080
2.4550000000	2.8307044833
2.4600000000	3.0310956967
2.4650000000	3.2965335487
2.4700000000	3.6376104585
2.4750000000	4.0609403282
2.4800000000	4.5631803188
2.4850000000	5.1229009573
2.4900000000	5.6910875282
2.4950000000	6.1864056477
2.5000000000	6.5070786616
2.5050000000	6.5482955296
2.5100000000	6.2682089493
2.5150000000	5.7432692204
2.5200000000	5.0956263126
2.5250000000	4.4325911200
2.5300000000	3.8195753899
2.5350000000	3.2840626696
2.5400000000	2.8300983665
2.5450000000	2.4509468834
2.5500000000	2.1368472529
2.5550000000	1.8790293589
2.5600000000	1.6634465306
2.5650000000	1.5021039445
2.5700000000	1.3861685167
2.5750000000	1.3115060028
2.5800000000	1.2698312485
2.5850000000	1.2498131681
2.5900000000	1.2408181360
2.5950000000	1.2362247440
2.6000000000	1.2338979468
2.6050000000	1.2437083462
2.6100000000	1.2592669069
2.6150000000	1.2829596092
2.6200000000	1.3160540576
2.6250000000	1.3586284567
2.6300000000	1.4094809601
2.6350000000	1.4660606332
2.6400000000	1.5244699625
2.6450000000	1.5797664938
2.6500000000	1.6267158698
2.6550000000	1.6610263987
2.6600000000	1.6807045418
2.6650000000	1.6869212808
2.6700000000	1.6837647030
2.6750000000	1.6772107658
2.6800000000	1.6730501652
2.6850000000	1.6766935164
2.6900000000	1.6919089885
2.6950000000	1.7210126326
2.7000000000	1.7651151557
2.7050000000	1.8311116316
2.7100000000	1.9160305489
2.7150000000	2.0185000033
2.7200000000	2.1356836132
2.7250000000	2.2627660769
2.7300000000	2.3924776184
2.7350000000	2.5150169165
2.7400000000	2.6187251559
2.7450000000	2.6917650187
2.7500000000	2.7245951607
2.7550000000	2.7124090613
2.7600000000	2.6564350716
2.7650000000	2.5634938127
2.7700000000	2.4440218319
2.7750000000	2.3095823708
2.7800000000	2.1707777491
2.7850000000	2.0360900904
2.7900000000	1.9104366898
2.7950000000	1.7991984630
2.8000000000	1.7034888146
2.8050000000	1.6148395468
2.8100000000	1.5449410080
2.8150000000	1.4910428713
2.8200000000	1.4501572486
2.8250000000	1.4195424108
2.8300000000	1.3968681733
2.8350000000	1.3802017570
2.8400000000	1.3679100256
2.8450000000	1.3586064830
2.8500000000	1.3511777248
2.8550000000	1.3448846026
2.8600000000	1.3394766157
2.8650000000	1.3352289806
2.8700000000	1.3328725023
2.8750000000	1.3334125033
2.8800000000	1.3379060151
2.8850000000	1.3472610953
2.8900000000	1.3620967681
2.8950000000	1.3826588105
2.9000000000	1.4087780029
2.9050000000	1.4478410030
2.9100000000	1.4906742644
2.9150000000	1.5344186279
2.9200000000	1.5754607191
2.9250000000	1.6099189698
2.9300000000	1.6341895023
2.9350000000	1.6455778805
2.9400000000	1.6428205123
2.9450000000	1.6263260376
2.9500000000	1.5980226226
2.9550000000	1.5608666445
2.9600000000	1.5182196253
2.9650000000	1.4732656972
2.9700000000	1.4286234460
2.9750000000	1.3861762048
2.9800000000	1.3470835063
2.9850000000	1.3119062503
2.9900000000	1.2807750157
2.9950000000	1.2535533658
3.0000000000	1.2299713544
