# energy (eV)    P(omega), $W$ = 300 nm, $h$ = 300 nm, $s$ = 20 nm, $d/W = 5$, $E_{\rm e}$ = 200 keV
0.2000000000	0.0629385824
0.2050000000	0.0638970204
0.2100000000	0.0647876902
0.2150000000	0.0656128547
0.2200000000	0.0663745512
0.2250000000	0.0670744614
0.2300000000	0.0677139287
0.2350000000	0.0682938881
0.2400000000	0.0688148157
0.2450000000	0.0692766449
0.2500000000	0.0696787014
0.2550000000	0.0700195345
0.2600000000	0.0702968868
0.2650000000	0.0705074030
0.2700000000	0.0706465230
0.2750000000	0.0707081398
0.2800000000	0.0706842898
0.2850000000	0.0705646947
0.2900000000	0.0703362081
0.2950000000	0.0699820794
0.3000000000	0.0694809296
0.3050000000	0.0688055136
0.3100000000	0.0679209354
0.3150000000	0.0719210190
0.3200000000	0.0766713979
0.3250000000	0.0826838541
0.3300000000	0.0907433195
0.3350000000	0.1007723151
0.3400000000	0.1139049709
0.3450000000	0.1298194546
0.3500000000	0.1506296169
0.3550000000	0.1781509126
0.3600000000	0.2140575280
0.3650000000	0.2640893631
0.3700000000	0.3299931753
0.3750000000	0.4215947557
0.3800000000	0.5539762694
0.3850000000	0.7601172134
0.3900000000	1.0855150895
0.3950000000	1.6378117194
0.4000000000	2.6899333795
0.4050000000	5.0470990827
0.4100000000	11.4740015575
0.4150000000	36.7871650707
0.4200000000	23.4543474025
0.4250000000	-44.0250106111
0.4300000000	12.2182187152
0.4350000000	7.6039369875
0.4400000000	4.6413738474
0.4450000000	3.0478601870
0.4500000000	2.1311516712
0.4550000000	1.5673784176
0.4600000000	1.2004161504
0.4650000000	0.9504894010
0.4700000000	0.7739281026
0.4750000000	0.6462784121
0.4800000000	0.5516558233
0.4850000000	0.4804544026
0.4900000000	0.4260900922
0.4950000000	0.3841449250
0.5000000000	0.3515985458
0.5050000000	0.3262372773
0.5100000000	0.3066332578
0.5150000000	0.2917342306
0.5200000000	0.2804473023
0.5250000000	0.2722740258
0.5300000000	0.2666844743
0.5350000000	0.2632894084
0.5400000000	0.2618014728
0.5450000000	0.2619807332
0.5500000000	0.2637464984
0.5550000000	0.2669620083
0.5600000000	0.2715543774
0.5650000000	0.2774887700
0.5700000000	0.2847315872
0.5750000000	0.2933323182
0.5800000000	0.3033710505
0.5850000000	0.3148989833
0.5900000000	0.3280188736
0.5950000000	0.3428623011
0.6000000000	0.3595962546
0.6050000000	0.3784671277
0.6100000000	0.3997068657
0.6150000000	0.4236349395
0.6200000000	0.4506778418
0.6250000000	0.4812440185
0.6300000000	0.5159384386
0.6350000000	0.5555148690
0.6400000000	0.6007566065
0.6450000000	0.6527962124
0.6500000000	0.7131216114
0.6550000000	0.7832808120
0.6600000000	0.8656552085
0.6650000000	0.9632971177
0.6700000000	1.0797943506
0.6750000000	1.2206209102
0.6800000000	1.3931345526
0.6850000000	1.6069701574
0.6900000000	1.8770495910
0.6950000000	2.2242375823
0.7000000000	2.6816720388
0.7050000000	3.2999989547
0.7100000000	4.1650155043
0.7150000000	5.4294291212
0.7200000000	7.3774545570
0.7250000000	10.6097665551
0.7300000000	16.5403308688
0.7350000000	29.2247794487
0.7400000000	63.9973907275
0.7450000000	212.1415438955
0.7500000000	656.6928438403
0.7550000000	165.0736587254
0.7600000000	54.6248559350
0.7650000000	26.1521519266
0.7700000000	15.1969358510
0.7750000000	9.9106280789
0.7800000000	6.9688980985
0.7850000000	5.1716171867
0.7900000000	3.9922533956
0.7950000000	3.1791822955
0.8000000000	2.5949127746
0.8050000000	2.1599239114
0.8100000000	1.8283417463
0.8150000000	1.5656055390
0.8200000000	1.3583147132
0.8250000000	1.1914606282
0.8300000000	1.0548286250
0.8350000000	0.9425198218
0.8400000000	0.8483998492
0.8450000000	0.7694390980
0.8500000000	0.7027028161
0.8550000000	0.6451292706
0.8600000000	0.5959829529
0.8650000000	0.5539978540
0.8700000000	0.5169110341
0.8750000000	0.4853487105
0.8800000000	0.4585465955
0.8850000000	0.4345193423
0.8900000000	0.4151983179
0.8950000000	0.3976234102
0.9000000000	0.3836422560
0.9050000000	0.3739157050
0.9100000000	0.3649956433
0.9150000000	0.3594626531
0.9200000000	0.3585044820
0.9250000000	0.3577279709
0.9300000000	0.3522381511
0.9350000000	0.3364184470
0.9400000000	0.2494952628
0.9450000000	-0.1444963526
0.9500000000	-2.2214599287
0.9550000000	-12.7479393648
0.9600000000	3.0066355411
0.9650000000	5.2771915613
0.9700000000	2.3395214131
0.9750000000	1.2280377126
0.9800000000	0.7697511543
0.9850000000	0.5554666215
0.9900000000	0.4320592946
0.9950000000	0.3572503970
1.0000000000	0.3094909438
1.0050000000	0.2791985113
1.0100000000	0.2557373897
1.0150000000	0.2386046722
1.0200000000	0.2270575491
1.0250000000	0.2173871203
1.0300000000	0.2100532581
1.0350000000	0.2045207872
1.0400000000	0.2010148317
1.0450000000	0.1981270967
1.0500000000	0.1962539761
1.0550000000	0.1952813486
1.0600000000	0.1954612432
1.0650000000	0.1960912536
1.0700000000	0.1974596860
1.0750000000	0.1995725473
1.0800000000	0.2026201676
1.0850000000	0.2064849602
1.0900000000	0.2121492955
1.0950000000	0.2188674966
1.1000000000	0.2268578987
1.1050000000	0.2360826601
1.1100000000	0.2468247037
1.1150000000	0.2593280666
1.1200000000	0.2738729919
1.1250000000	0.2908648786
1.1300000000	0.3108009188
1.1350000000	0.3343156516
1.1400000000	0.3621215378
1.1450000000	0.3955614749
1.1500000000	0.4360609864
1.1550000000	0.4856967614
1.1600000000	0.5473988546
1.1650000000	0.6249590183
1.1700000000	0.7255272236
1.1750000000	0.8585537175
1.1800000000	1.0396758418
1.1850000000	1.2946075773
1.1900000000	1.6717547633
1.1950000000	2.2641797129
1.2000000000	3.2694131966
1.2050000000	5.1694089609
1.2100000000	9.3490190965
1.2150000000	20.6434331639
1.2200000000	50.6702963327
1.2250000000	45.4806806762
1.2300000000	18.1006243795
1.2350000000	8.4569227933
1.2400000000	4.8035302501
1.2450000000	3.1242004183
1.2500000000	2.2359779833
1.2550000000	1.7206888845
1.2600000000	1.4040515597
1.2650000000	1.2021589136
1.2700000000	1.0771199407
1.2750000000	1.0043060641
1.2800000000	0.9716062933
1.2850000000	0.9732225918
1.2900000000	1.0076683445
1.2950000000	1.0764609946
1.3000000000	1.1888401421
1.3050000000	1.3564969479
1.3100000000	1.6019676260
1.3150000000	1.9644335881
1.3200000000	2.5146245166
1.3250000000	3.3871387919
1.3300000000	4.8777205943
1.3350000000	7.6711146371
1.3400000000	13.6418849697
1.3450000000	28.4609986441
1.3500000000	60.3369265499
1.3550000000	56.2348395212
1.3600000000	25.9230203665
1.3650000000	12.7356288127
1.3700000000	7.3043692142
1.3750000000	4.6983819690
1.3800000000	3.2775462514
1.3850000000	2.4215517945
1.3900000000	1.8696072488
1.3950000000	1.4928369979
1.4000000000	1.2244458464
1.4050000000	1.0268201149
1.4100000000	0.8769762171
1.4150000000	0.7608378990
1.4200000000	0.6679303968
1.4250000000	0.5935159232
1.4300000000	0.5333154727
1.4350000000	0.4721047067
1.4400000000	0.2783166206
1.4450000000	-0.2235330285
1.4500000000	-1.1416066021
1.4550000000	-0.4146110282
1.4600000000	1.0416190208
1.4650000000	0.6338525210
1.4700000000	-0.2704827513
1.4750000000	-1.6529387306
1.4800000000	-0.7204817917
1.4850000000	1.2975606371
1.4900000000	1.0497389457
1.4950000000	0.6839771411
1.5000000000	0.4837737126
1.5050000000	0.3750166277
1.5100000000	0.3126671747
1.5150000000	0.2742907137
1.5200000000	0.2490477500
1.5250000000	0.2329805916
1.5300000000	0.2202157469
1.5350000000	0.2108732963
1.5400000000	0.2040314919
1.5450000000	0.1991272907
1.5500000000	0.1957914761
1.5550000000	0.1938374060
1.5600000000	0.1935791394
1.5650000000	0.1942964050
1.5700000000	0.1966457449
1.5750000000	0.2010744211
1.5800000000	0.2084897347
1.5850000000	0.2206785929
1.5900000000	0.2414096132
1.5950000000	0.2789642046
1.6000000000	0.3505999473
1.6050000000	0.4665702547
1.6100000000	0.5180131278
1.6150000000	0.4183704332
1.6200000000	0.3282736324
1.6250000000	0.2835901551
1.6300000000	0.2640554195
1.6350000000	0.2570643086
1.6400000000	0.2569722877
1.6450000000	0.2612261846
1.6500000000	0.2686204488
1.6550000000	0.2786513147
1.6600000000	0.2911234807
1.6650000000	0.3060594143
1.6700000000	0.3236286267
1.6750000000	0.3441261956
1.6800000000	0.3679710423
1.6850000000	0.3957208594
1.6900000000	0.4280911939
1.6950000000	0.4657620530
1.7000000000	0.5101684980
1.7050000000	0.5639269934
1.7100000000	0.6301397941
1.7150000000	0.7241494490
1.7200000000	0.8544198093
1.7250000000	1.0123337250
1.7300000000	1.2106556452
1.7350000000	1.4225855317
1.7400000000	1.6096871555
1.7450000000	1.8423523004
1.7500000000	2.2033182642
1.7550000000	2.7482168425
1.7600000000	3.5675836893
1.7650000000	4.8324216257
1.7700000000	6.8698676891
1.7750000000	10.3004152265
1.7800000000	16.1402842966
1.7850000000	24.7388987095
1.7900000000	30.7009898792
1.7950000000	26.1010186408
1.8000000000	17.3390882847
1.8050000000	10.9266515698
1.8100000000	7.1863363881
1.8150000000	4.9954063015
1.8200000000	3.6474990808
1.8250000000	2.7735610352
1.8300000000	2.1797812854
1.8350000000	1.7600254961
1.8400000000	1.4533903411
1.8450000000	1.2228549078
1.8500000000	1.0450555464
1.8550000000	0.9053345862
1.8600000000	0.7933269942
1.8650000000	0.7018701242
1.8700000000	0.6256761140
1.8750000000	0.5605990639
1.8800000000	0.5029934892
1.8850000000	0.4491622624
1.8900000000	0.3944069337
1.8950000000	0.3315832810
1.9000000000	0.2486680049
1.9050000000	0.1075408904
1.9100000000	-0.0973856629
1.9150000000	-0.3180894194
1.9200000000	-0.2194007257
1.9250000000	0.4253949108
1.9300000000	0.9433201329
1.9350000000	0.9853555907
1.9400000000	0.8122518759
1.9450000000	0.6373463617
1.9500000000	0.5115844591
1.9550000000	0.4272068799
1.9600000000	0.3702783208
1.9650000000	0.3325886359
1.9700000000	0.3040471596
1.9750000000	0.2831000379
1.9800000000	0.2673225915
1.9850000000	0.2550019839
1.9900000000	0.2449176545
1.9950000000	0.2360808959
2.0000000000	0.2282532425
2.0050000000	0.2242647642
2.0100000000	0.2279236649
2.0150000000	0.2366718391
2.0200000000	0.2435579321
2.0250000000	0.2482528338
2.0300000000	0.2532654334
2.0350000000	0.2596780782
2.0400000000	0.2683167125
2.0450000000	0.2797189860
2.0500000000	0.2945312311
2.0550000000	0.3134089353
2.0600000000	0.3363833224
2.0650000000	0.3612717895
2.0700000000	0.3826596734
2.0750000000	0.3962464924
2.0800000000	0.4049681194
2.0850000000	0.4153816786
2.0900000000	0.4315464304
2.0950000000	0.4547030814
2.1000000000	0.4855189921
2.1050000000	0.5232892714
2.1100000000	0.5706491435
2.1150000000	0.6294280102
2.1200000000	0.7023409647
2.1250000000	0.7932909868
2.1300000000	0.9078431388
2.1350000000	1.0539793910
2.1400000000	1.2432373794
2.1450000000	1.4924814799
2.1500000000	1.8262614048
2.1550000000	2.2792760622
2.1600000000	2.8958900560
2.1650000000	3.7136211080
2.1700000000	4.7182578447
2.1750000000	5.7208948276
2.1800000000	6.3548306278
2.1850000000	6.4261975026
2.1900000000	6.2079687227
2.1950000000	6.0630881823
2.2000000000	6.0213659002
2.2050000000	5.7317774247
2.2100000000	5.0471604617
2.2150000000	4.1775452089
2.2200000000	3.3818740772
2.2250000000	2.7445890882
2.2300000000	2.2429943672
2.2350000000	1.8445942983
2.2400000000	1.5285089353
2.2450000000	1.2817984932
2.2500000000	1.0893936136
2.2550000000	0.9375881604
2.2600000000	0.8149415126
2.2650000000	0.7119349129
2.2700000000	0.6205705087
2.2750000000	0.5352349839
2.2800000000	0.4563255719
2.2850000000	0.3937487262
2.2900000000	0.3621783337
2.2950000000	0.3666719489
2.3000000000	0.3927541081
2.3050000000	0.4182435828
2.3100000000	0.4292458440
2.3150000000	0.4264662877
2.3200000000	0.4159883478
2.3250000000	0.4040223995
2.3300000000	0.3939245164
2.3350000000	0.3868578891
2.3400000000	0.3825816191
2.3450000000	0.3798507128
2.3500000000	0.3770029800
2.3550000000	0.3729754842
2.3600000000	0.3680630247
2.3650000000	0.3635548574
2.3700000000	0.3607291055
2.3750000000	0.3602103553
2.3800000000	0.3618926409
2.3850000000	0.3651351277
2.3900000000	0.3692239136
2.3950000000	0.3735484311
2.4000000000	0.3784731093
2.4050000000	0.3853555918
2.4100000000	0.3948860390
2.4150000000	0.4079395812
2.4200000000	0.4251114365
2.4250000000	0.4469431085
2.4300000000	0.4740419903
2.4350000000	0.5071694248
2.4400000000	0.5473049857
2.4450000000	0.5957124594
2.4500000000	0.6540002686
2.4550000000	0.7242032850
2.4600000000	0.8088342457
2.4650000000	0.9109334938
2.4700000000	1.0340227977
2.4750000000	1.1816870393
2.4800000000	1.3578038291
2.4850000000	1.5641168131
2.4900000000	1.7989184157
2.4950000000	2.0537159532
2.5000000000	2.3096421205
2.5050000000	2.5461792818
2.5100000000	2.6989885898
2.5150000000	2.7324431594
2.5200000000	2.6419363721
2.5250000000	2.4557859567
2.5300000000	2.2170736627
2.5350000000	1.9635882509
2.5400000000	1.7192648653
2.5450000000	1.4959332325
2.5500000000	1.2980137809
2.5550000000	1.1260681389
2.5600000000	0.9776016219
2.5650000000	0.8522887870
2.5700000000	0.7476292728
2.5750000000	0.6621430708
2.5800000000	0.5946743078
2.5850000000	0.5437910424
2.5900000000	0.5069082571
2.5950000000	0.4802836975
2.6000000000	0.4600032326
2.6050000000	0.4455389105
2.6100000000	0.4325513294
2.6150000000	0.4208807701
2.6200000000	0.4108188679
2.6250000000	0.4026523471
2.6300000000	0.3965543370
2.6350000000	0.3925999014
2.6400000000	0.3908284199
2.6450000000	0.3912843800
2.6500000000	0.3940633064
2.6550000000	0.3991812726
2.6600000000	0.4067725527
2.6650000000	0.4169557630
2.6700000000	0.4298706667
2.6750000000	0.4456830893
2.6800000000	0.4645775911
2.6850000000	0.4867557433
2.6900000000	0.5124123344
2.6950000000	0.5417239178
2.7000000000	0.5748127983
2.7050000000	0.6156633144
2.7100000000	0.6614485544
2.7150000000	0.7118541901
2.7200000000	0.7662008496
2.7250000000	0.8233568036
2.7300000000	0.8816576085
2.7350000000	0.9388356423
2.7400000000	0.9919833035
2.7450000000	1.0380311584
2.7500000000	1.0725234853
2.7550000000	1.0923997357
2.7600000000	1.0953612821
2.7650000000	1.0808168498
2.7700000000	1.0500911411
2.7750000000	1.0061564475
2.7800000000	0.9529547756
2.7850000000	0.8946797439
2.7900000000	0.8350777128
2.7950000000	0.7771480889
2.8000000000	0.7230065217
2.8050000000	0.6679527343
2.8100000000	0.6204281050
2.8150000000	0.5803242253
2.8200000000	0.5470107208
2.8250000000	0.5196497827
2.8300000000	0.4974009650
2.8350000000	0.4795479844
2.8400000000	0.4653293845
2.8450000000	0.4547964562
2.8500000000	0.4473911647
2.8550000000	0.4429055870
2.8600000000	0.4411926281
2.8650000000	0.4421360787
2.8700000000	0.4456324899
2.8750000000	0.4515759997
2.8800000000	0.4598441386
2.8850000000	0.4702846297
2.8900000000	0.4827099876
2.8950000000	0.4968912271
2.9000000000	0.5125567444
2.9050000000	0.5331352041
2.9100000000	0.5542627064
2.9150000000	0.5751244857
2.9200000000	0.5947407733
2.9250000000	0.6119755514
2.9300000000	0.6257611196
2.9350000000	0.6346760344
2.9400000000	0.6380082904
2.9450000000	0.6353932898
2.9500000000	0.6270456521
2.9550000000	0.6137269422
2.9600000000	0.5965970952
2.9650000000	0.5770017533
2.9700000000	0.5562613809
2.9750000000	0.5355216933
2.9800000000	0.5156712523
2.9850000000	0.4973299239
2.9900000000	0.4808791645
2.9950000000	0.4665132805
3.0000000000	0.4542949208
