# energy (eV)    P(omega), $W$ = 300 nm, $h$ = 300 nm, $s$ = 20 nm, $d/W = 5$, $E_{\rm e}$ = 200 keV
0.2000000000	0.0828678459
0.2050000000	0.0840582709
0.2100000000	0.0851772425
0.2150000000	0.0862269950
0.2200000000	0.0872094547
0.2250000000	0.0881262143
0.2300000000	0.0889784437
0.2350000000	0.0897668739
0.2400000000	0.0904917140
0.2450000000	0.0911524721
0.2500000000	0.0917480555
0.2550000000	0.0922763645
0.2600000000	0.0927343308
0.2650000000	0.0931176770
0.2700000000	0.0934205401
0.2750000000	0.0936352442
0.2800000000	0.0937518402
0.2850000000	0.0937576070
0.2900000000	0.0936362007
0.2950000000	0.0933670132
0.3000000000	0.0929235058
0.3050000000	0.0922721516
0.3100000000	0.0913699087
0.3150000000	0.0962926103
0.3200000000	0.1021398471
0.3250000000	0.1095314366
0.3300000000	0.1194226385
0.3350000000	0.1317386704
0.3400000000	0.1478683865
0.3450000000	0.1674494562
0.3500000000	0.1930756065
0.3550000000	0.2270006767
0.3600000000	0.2713296139
0.3650000000	0.3331580028
0.3700000000	0.4147630826
0.3750000000	0.5283651769
0.3800000000	0.6927840843
0.3850000000	0.9491372324
0.3900000000	1.3544256042
0.3950000000	2.0433609524
0.4000000000	3.3575982743
0.4050000000	6.3060516333
0.4100000000	14.3570464462
0.4150000000	46.1136406793
0.4200000000	29.3525285003
0.4250000000	-55.4082911539
0.4300000000	15.4404732903
0.4350000000	9.6342006703
0.4400000000	5.8983045323
0.4450000000	3.8859078707
0.4500000000	2.7266628404
0.4550000000	2.0128405726
0.4600000000	1.5476673685
0.4650000000	1.2305155954
0.4700000000	1.0062559974
0.4750000000	0.8440142976
0.4800000000	0.7237000611
0.4850000000	0.6331658126
0.4900000000	0.5640745422
0.4950000000	0.5108271539
0.5000000000	0.4695976250
0.5050000000	0.4375754841
0.5100000000	0.4129546956
0.5150000000	0.3944063406
0.5200000000	0.3805331370
0.5250000000	0.3707127438
0.5300000000	0.3642716532
0.5350000000	0.3607186674
0.5400000000	0.3596922614
0.5450000000	0.3608906130
0.5500000000	0.3642238134
0.5550000000	0.3695234998
0.5600000000	0.3767076382
0.5650000000	0.3857415816
0.5700000000	0.3965960072
0.5750000000	0.4093485829
0.5800000000	0.4241255614
0.5850000000	0.4410098981
0.5900000000	0.4601594315
0.5950000000	0.4817699000
0.6000000000	0.5060903271
0.6050000000	0.5334776766
0.6100000000	0.5642758085
0.6150000000	0.5989514014
0.6200000000	0.6381273653
0.6250000000	0.6824001134
0.6300000000	0.7326511655
0.6350000000	0.7899792929
0.6400000000	0.8555282314
0.6450000000	0.9309480778
0.6500000000	1.0184091295
0.6550000000	1.1201710955
0.6600000000	1.2397057032
0.6650000000	1.3814710780
0.6700000000	1.5507083993
0.6750000000	1.7554068068
0.6800000000	2.0063228992
0.6850000000	2.3175374112
0.6900000000	2.7108767393
0.6950000000	3.2168567991
0.7000000000	3.8839807110
0.7050000000	4.7863947670
0.7100000000	6.0497699479
0.7150000000	7.8978432270
0.7200000000	10.7472343317
0.7250000000	15.4787865370
0.7300000000	24.1668844293
0.7350000000	42.7640282438
0.7400000000	93.7875462634
0.7450000000	311.3652311509
0.7500000000	965.3240112036
0.7550000000	243.0304285487
0.7600000000	80.5473471714
0.7650000000	38.6234841008
0.7700000000	22.4796363163
0.7750000000	14.6834668234
0.7800000000	10.3416839318
0.7850000000	7.6870304572
0.7900000000	5.9437682738
0.7950000000	4.7410473738
0.8000000000	3.8761601642
0.8050000000	3.2317945007
0.8100000000	2.7402621713
0.8150000000	2.3504636481
0.8200000000	2.0427278856
0.8250000000	1.7948731870
0.8300000000	1.5917735868
0.8350000000	1.4247516717
0.8400000000	1.2847058771
0.8450000000	1.1671638218
0.8500000000	1.0677987126
0.8550000000	0.9820268365
0.8600000000	0.9088049397
0.8650000000	0.8462757265
0.8700000000	0.7910093949
0.8750000000	0.7440220298
0.8800000000	0.7041882288
0.8850000000	0.6684712751
0.8900000000	0.6398960686
0.8950000000	0.6138983457
0.9000000000	0.5933770600
0.9050000000	0.5794007107
0.9100000000	0.5666004110
0.9150000000	0.5590277416
0.9200000000	0.5585779668
0.9250000000	0.5583411529
0.9300000000	0.5505333717
0.9350000000	0.5260875538
0.9400000000	0.3880921927
0.9450000000	-0.2407320737
0.9500000000	-3.5626032618
0.9550000000	-20.4237085834
0.9600000000	4.8240583981
0.9650000000	8.4788067279
0.9700000000	3.7632077601
0.9750000000	1.9764867569
0.9800000000	1.2389895390
0.9850000000	0.8939645367
0.9900000000	0.6950676716
0.9950000000	0.5744210466
1.0000000000	0.4973735083
1.0050000000	0.4485481921
1.0100000000	0.4106540209
1.0150000000	0.3829537288
1.0200000000	0.3643043688
1.0250000000	0.3486101526
1.0300000000	0.3366610421
1.0350000000	0.3275892230
1.0400000000	0.3217946860
1.0450000000	0.3169228416
1.0500000000	0.3136443198
1.0550000000	0.3117713640
1.0600000000	0.3117370922
1.0650000000	0.3123363318
1.0700000000	0.3140557013
1.0750000000	0.3169009044
1.0800000000	0.3211909010
1.0850000000	0.3266448132
1.0900000000	0.3347740883
1.0950000000	0.3444415108
1.1000000000	0.3559864370
1.1050000000	0.3692606755
1.1100000000	0.3846977899
1.1150000000	0.4026398982
1.1200000000	0.4235067743
1.1250000000	0.4477775848
1.1300000000	0.4761763854
1.1350000000	0.5095775998
1.1400000000	0.5489933538
1.1450000000	0.5961975591
1.1500000000	0.6531802930
1.1550000000	0.7227898230
1.1600000000	0.8090438936
1.1650000000	0.9171711246
1.1700000000	1.0568878081
1.1750000000	1.2411611828
1.1800000000	1.4913974138
1.1850000000	1.8427621145
1.1900000000	2.3616290129
1.1950000000	3.1752143918
1.2000000000	4.5540678485
1.2050000000	7.1583971012
1.2100000000	12.8860493988
1.2150000000	28.3697840011
1.2200000000	69.5795006699
1.2250000000	62.5743473065
1.2300000000	25.0345099173
1.2350000000	11.8033856376
1.2400000000	6.7943293199
1.2450000000	4.4987750828
1.2500000000	3.2927535668
1.2550000000	2.6023385960
1.2600000000	2.1885922882
1.2650000000	1.9367546926
1.2700000000	1.7961163587
1.2750000000	1.7339616018
1.2800000000	1.7354963321
1.2850000000	1.7952960322
1.2900000000	1.9149859470
1.2950000000	2.1013856750
1.3000000000	2.3759190695
1.3050000000	2.7664754543
1.3100000000	3.3234997069
1.3150000000	4.1339039976
1.3200000000	5.3532941132
1.3250000000	7.2788263407
1.3300000000	10.5590855358
1.3350000000	16.6999832125
1.3400000000	29.8239179699
1.3450000000	62.4115001143
1.3500000000	132.5838805150
1.3550000000	123.7337729929
1.3600000000	57.0812907372
1.3650000000	28.0502616348
1.3700000000	16.0864698652
1.3750000000	10.3440804088
1.3800000000	7.2129024387
1.3850000000	5.3270267027
1.3900000000	4.1121968109
1.3950000000	3.2838939460
1.4000000000	2.6957034732
1.4050000000	2.2649972561
1.4100000000	1.9422264922
1.4150000000	1.6986733327
1.4200000000	1.5155215398
1.4250000000	1.3928502413
1.4300000000	1.3479254981
1.4350000000	1.3729140707
1.4400000000	1.0574329529
1.4450000000	0.0911511443
1.4500000000	-1.4776398435
1.4550000000	-0.4143240690
1.4600000000	1.7892296463
1.4650000000	0.9686959548
1.4700000000	-0.9146946054
1.4750000000	-4.0033004886
1.4800000000	-1.7817236224
1.4850000000	2.9284532394
1.4900000000	2.3738153033
1.4950000000	1.5365045226
1.5000000000	1.0795767338
1.5050000000	0.8335369925
1.5100000000	0.6933015815
1.5150000000	0.6081365160
1.5200000000	0.5531212207
1.5250000000	0.5189384724
1.5300000000	0.4928266992
1.5350000000	0.4748279560
1.5400000000	0.4629720388
1.5450000000	0.4562018317
1.5500000000	0.4538348732
1.5550000000	0.4558884688
1.5600000000	0.4635782330
1.5650000000	0.4762800143
1.5700000000	0.4968466818
1.5750000000	0.5287580622
1.5800000000	0.5785480339
1.5850000000	0.6589351609
1.5900000000	0.7967155116
1.5950000000	1.0511867150
1.6000000000	1.5476027190
1.6050000000	2.3684067617
1.6100000000	2.7485408638
1.6150000000	2.0359202916
1.6200000000	1.3674043584
1.6250000000	1.0145217772
1.6300000000	0.8373403016
1.6350000000	0.7461221362
1.6400000000	0.6998881457
1.6450000000	0.6795921314
1.6500000000	0.6756963911
1.6550000000	0.6837329636
1.6600000000	0.7010353432
1.6650000000	0.7263858972
1.6700000000	0.7593217079
1.6750000000	0.7998455500
1.6800000000	0.8483197169
1.6850000000	0.9053062064
1.6900000000	0.9713019505
1.6950000000	1.0453695608
1.7000000000	1.1262661709
1.7050000000	1.2091726895
1.7100000000	1.3037762582
1.7150000000	1.5388723942
1.7200000000	1.9513405443
1.7250000000	2.3292669385
1.7300000000	2.7348621902
1.7350000000	3.1805256431
1.7400000000	3.6178204225
1.7450000000	4.1794976373
1.7500000000	5.0288974479
1.7550000000	6.2931444354
1.7600000000	8.1846940243
1.7650000000	11.1005346659
1.7700000000	15.7974421496
1.7750000000	23.7105091727
1.7800000000	37.1942168464
1.7850000000	57.0795295176
1.7900000000	70.9345358334
1.7950000000	60.4021202266
1.8000000000	40.1992921746
1.8050000000	25.3867694729
1.8100000000	16.7381007965
1.8150000000	11.6687765416
1.8200000000	8.5490456928
1.8250000000	6.5265142527
1.8300000000	5.1532857802
1.8350000000	4.1840042121
1.8400000000	3.4778372461
1.8450000000	2.9493532076
1.8500000000	2.5447113211
1.8550000000	2.2302220600
1.8600000000	1.9823839328
1.8650000000	1.7852248834
1.8700000000	1.6273851982
1.8750000000	1.5005250197
1.8800000000	1.3980289500
1.8850000000	1.3140513961
1.8900000000	1.2418564425
1.8950000000	1.1713925180
1.9000000000	1.0853026493
1.9050000000	0.9223320635
1.9100000000	0.6980401653
1.9150000000	0.5792241340
1.9200000000	1.4165514783
1.9250000000	3.7308743832
1.9300000000	5.5662906007
1.9350000000	5.4806828425
1.9400000000	4.3107126591
1.9450000000	3.1763919885
1.9500000000	2.3799683294
1.9550000000	1.8581263858
1.9600000000	1.5132766763
1.9650000000	1.2824632007
1.9700000000	1.1158338429
1.9750000000	0.9936882110
1.9800000000	0.9004350570
1.9850000000	0.8247625829
1.9900000000	0.7580150939
1.9950000000	0.6926383510
2.0000000000	0.6275310115
2.0050000000	0.5859366177
2.0100000000	0.6097689957
2.0150000000	0.6754205252
2.0200000000	0.7159023972
2.0250000000	0.7266591328
2.0300000000	0.7290851941
2.0350000000	0.7334956854
2.0400000000	0.7437235585
2.0450000000	0.7607461621
2.0500000000	0.7851976501
2.0550000000	0.8176539239
2.0600000000	0.8581154398
2.0650000000	0.9041311931
2.0700000000	0.9496227803
2.0750000000	0.9900349035
2.0800000000	1.0293867791
2.0850000000	1.0759905842
2.0900000000	1.1354180336
2.0950000000	1.2100153046
2.1000000000	1.3023059805
2.1050000000	1.4114541951
2.1100000000	1.5451309949
2.1150000000	1.7089440108
2.1200000000	1.9107574444
2.1250000000	2.1616021150
2.1300000000	2.4770271257
2.1350000000	2.8792318533
2.1400000000	3.4002714457
2.1450000000	4.0870107844
2.1500000000	5.0077336908
2.1550000000	6.2590803470
2.1600000000	7.9647350093
2.1650000000	10.2294428311
2.1700000000	13.0113028120
2.1750000000	15.7770571518
2.1800000000	17.4859605073
2.1850000000	17.5747983698
2.1900000000	16.7978810824
2.1950000000	16.1933348992
2.2000000000	15.9252704421
2.2050000000	15.1804433053
2.2100000000	13.5990476215
2.2150000000	11.6546879525
2.2200000000	9.9091969925
2.2250000000	8.4666431548
2.2300000000	7.1964924979
2.2350000000	6.0481761476
2.2400000000	5.0618624314
2.2450000000	4.2726942472
2.2500000000	3.6677260863
2.2550000000	3.2132604642
2.2600000000	2.8729737618
2.2650000000	2.6104684699
2.2700000000	2.3864004549
2.2750000000	2.1620089579
2.2800000000	1.9204386127
2.2850000000	1.6905810885
2.2900000000	1.5317517066
2.2950000000	1.4775228605
2.3000000000	1.4969471821
2.3050000000	1.5265872214
2.3100000000	1.5290905469
2.3150000000	1.5047610813
2.3200000000	1.4697680419
2.3250000000	1.4408122543
2.3300000000	1.4264392116
2.3350000000	1.4281173464
2.3400000000	1.4410614184
2.3450000000	1.4544407715
2.3500000000	1.4546174013
2.3550000000	1.4328903792
2.3600000000	1.3917221302
2.3650000000	1.3418728099
2.3700000000	1.2944336299
2.3750000000	1.2560286568
2.3800000000	1.2288093060
2.3850000000	1.2121662144
2.3900000000	1.2047108524
2.3950000000	1.2048350380
2.4000000000	1.2129769792
2.4050000000	1.2318178406
2.4100000000	1.2622564959
2.4150000000	1.3055371417
2.4200000000	1.3624076266
2.4250000000	1.4341764174
2.4300000000	1.5227516603
2.4350000000	1.6306930365
2.4400000000	1.7613035880
2.4450000000	1.9188007504
2.4500000000	2.1085054805
2.4550000000	2.3371057517
2.4600000000	2.6128186026
2.4650000000	2.9455028732
2.4700000000	3.3464656276
2.4750000000	3.8270330988
2.4800000000	4.3989027960
2.4850000000	5.0667055279
2.4900000000	5.8239144387
2.4950000000	6.6434321690
2.5000000000	7.4679515782
2.5050000000	8.2392529284
2.5100000000	8.7603184898
2.5150000000	8.9175152242
2.5200000000	8.6837654322
2.5250000000	8.1312251712
2.5300000000	7.3855979463
2.5350000000	6.5681181882
2.5400000000	5.7644342041
2.5450000000	5.0229370478
2.5500000000	4.3651447736
2.5550000000	3.7959555348
2.5600000000	3.3075433084
2.5650000000	2.8969120914
2.5700000000	2.5543944132
2.5750000000	2.2739383901
2.5800000000	2.0510234791
2.5850000000	1.8807355160
2.5900000000	1.7549920026
2.5950000000	1.6624296762
2.6000000000	1.5912169373
2.6050000000	1.5406072045
2.6100000000	1.4967855604
2.6150000000	1.4590573842
2.6200000000	1.4281680955
2.6250000000	1.4049434829
2.6300000000	1.3899349657
2.6350000000	1.3834239059
2.6400000000	1.3855736949
2.6450000000	1.3965364025
2.6500000000	1.4166096471
2.6550000000	1.4458767850
2.6600000000	1.4847869820
2.6650000000	1.5337939659
2.6700000000	1.5934551135
2.6750000000	1.6644458918
2.6800000000	1.7475149406
2.6850000000	1.8434281076
2.6900000000	1.9528127422
2.6950000000	2.0760327428
2.7000000000	2.2129634448
2.7050000000	2.3791787255
2.7100000000	2.5605806006
2.7150000000	2.7536370563
2.7200000000	2.9532108738
2.7250000000	3.1528482303
2.7300000000	3.3452666504
2.7350000000	3.5227746483
2.7400000000	3.6773727569
2.7450000000	3.8019599159
2.7500000000	3.8855212662
2.7550000000	3.9213884209
2.7600000000	3.9045015018
2.7650000000	3.8342718835
2.7700000000	3.7154064103
2.7750000000	3.5573357295
2.7800000000	3.3723520941
2.7850000000	3.1734959236
2.7900000000	2.9724676269
2.7950000000	2.7786498592
2.8000000000	2.5986770684
2.8050000000	2.4165867172
2.8100000000	2.2607410761
2.8150000000	2.1307221148
2.8200000000	2.0244368891
2.8250000000	1.9391268935
2.8300000000	1.8720133997
2.8350000000	1.8207183427
2.8400000000	1.7827383067
2.8450000000	1.7581604642
2.8500000000	1.7451654824
2.8550000000	1.7430601514
2.8600000000	1.7513268424
2.8650000000	1.7694992554
2.8700000000	1.7970557930
2.8750000000	1.8333347177
2.8800000000	1.8774684931
2.8850000000	1.9283288822
2.8900000000	1.9845596825
2.8950000000	2.0446270196
2.9000000000	2.1069178309
2.9050000000	2.1817732805
2.9100000000	2.2535842285
2.9150000000	2.3200917514
2.9200000000	2.3789250356
2.9250000000	2.4273940125
2.9300000000	2.4630216741
2.9350000000	2.4819560801
2.9400000000	2.4825346230
2.9450000000	2.4640490313
2.9500000000	2.4275659083
2.9550000000	2.3758581682
2.9600000000	2.3129282558
2.9650000000	2.2433112861
2.9700000000	2.1713927053
2.9750000000	2.1009203462
2.9800000000	2.0347659383
2.9850000000	1.9748887916
2.9900000000	1.9224673746
2.9950000000	1.8780549034
3.0000000000	1.8417677921
