# energy (eV)    P(omega), $W$ = 400 nm, $h$ = 300 nm, $s$ = 20 nm, $d/W = 5$, $E_{\rm e}$ = 200 keV
0.2000000000	0.0453559794
0.2050000000	0.0457685581
0.2100000000	0.0460590241
0.2150000000	0.0462224855
0.2200000000	0.0462521019
0.2250000000	0.0461385799
0.2300000000	0.0458696910
0.2350000000	0.0454295133
0.2400000000	0.0447975699
0.2450000000	0.0439474708
0.2500000000	0.0428454755
0.2550000000	0.0414481704
0.2600000000	0.0396996101
0.2650000000	0.0415316131
0.2700000000	0.0461852545
0.2750000000	0.0528444678
0.2800000000	0.0621226294
0.2850000000	0.0758010548
0.2900000000	0.0927495620
0.2950000000	0.1170466477
0.3000000000	0.1497088216
0.3050000000	0.1997720852
0.3100000000	0.2695085479
0.3150000000	0.4044454191
0.3200000000	0.6151902748
0.3250000000	0.7594743960
0.3300000000	0.9590657076
0.3350000000	1.2420147516
0.3400000000	1.6861873247
0.3450000000	2.4482444898
0.3500000000	3.9678516713
0.3550000000	7.4855507417
0.3600000000	18.3966382474
0.3650000000	0.0831496803
0.3700000000	8.5261595030
0.3750000000	11.2115583316
0.3800000000	5.2241909872
0.3850000000	2.9428289748
0.3900000000	1.8875609328
0.3950000000	1.3301223254
0.4000000000	1.0073659027
0.4050000000	0.7969514457
0.4100000000	0.6599669905
0.4150000000	0.5696181098
0.4200000000	0.5125156594
0.4250000000	0.4676689015
0.4300000000	0.4146764069
0.4350000000	0.3727359708
0.4400000000	0.3395657544
0.4450000000	0.3131914873
0.4500000000	0.2923690998
0.4550000000	0.2758574778
0.4600000000	0.2629769892
0.4650000000	0.2530088125
0.4700000000	0.2454770762
0.4750000000	0.2400488270
0.4800000000	0.2364335150
0.4850000000	0.2343763759
0.4900000000	0.2337267475
0.4950000000	0.2343687164
0.5000000000	0.2362032395
0.5050000000	0.2391861680
0.5100000000	0.2432813344
0.5150000000	0.2484672412
0.5200000000	0.2547546318
0.5250000000	0.2621523148
0.5300000000	0.2707688971
0.5350000000	0.2806526550
0.5400000000	0.2918905279
0.5450000000	0.3045965305
0.5500000000	0.3189319747
0.5550000000	0.3350733113
0.5600000000	0.3532353095
0.5650000000	0.3736941421
0.5700000000	0.3968310536
0.5750000000	0.4229286052
0.5800000000	0.4525155053
0.5850000000	0.4863141448
0.5900000000	0.5248117776
0.5950000000	0.5690337271
0.6000000000	0.6203345769
0.6050000000	0.6797295469
0.6100000000	0.7495459170
0.6150000000	0.8317135883
0.6200000000	0.9295454966
0.6250000000	1.0477945866
0.6300000000	1.1913080239
0.6350000000	1.3691940995
0.6400000000	1.5915016382
0.6450000000	1.8764657163
0.6500000000	2.2473796772
0.6550000000	2.7437001767
0.6600000000	3.4320489969
0.6650000000	4.4176825613
0.6700000000	5.9101654049
0.6750000000	8.3098499026
0.6800000000	12.5517397034
0.6850000000	21.0633564353
0.6900000000	42.2142441317
0.6950000000	118.5014370048
0.7000000000	574.7407947163
0.7050000000	279.4238492665
0.7100000000	71.7780236119
0.7150000000	30.5240175303
0.7200000000	16.6695368360
0.7250000000	10.4714377109
0.7300000000	7.1819520634
0.7350000000	5.2373751240
0.7400000000	3.9921397504
0.7450000000	3.1469238971
0.7500000000	2.5481893503
0.7550000000	2.1083168492
0.7600000000	1.7767753403
0.7650000000	1.5196698405
0.7700000000	1.3167115452
0.7750000000	1.1537741282
0.7800000000	1.0213657691
0.7850000000	0.9123411192
0.7900000000	0.8210038391
0.7950000000	0.7447204674
0.8000000000	0.6798590691
0.8050000000	0.6242895030
0.8100000000	0.5769831425
0.8150000000	0.5355211288
0.8200000000	0.4994240291
0.8250000000	0.4691322183
0.8300000000	0.4426168468
0.8350000000	0.4195655682
0.8400000000	0.4012085511
0.8450000000	0.3851910443
0.8500000000	0.3716098501
0.8550000000	0.3630250369
0.8600000000	0.3561483485
0.8650000000	0.3512244207
0.8700000000	0.3529375108
0.8750000000	0.3535370368
0.8800000000	0.3516335066
0.8850000000	0.3363441997
0.8900000000	0.2610166166
0.8950000000	-0.1164861060
0.9000000000	-2.1407535904
0.9050000000	-14.0663694099
0.9100000000	2.6785136443
0.9150000000	6.3448860553
0.9200000000	2.6338840390
0.9250000000	1.3702235506
0.9300000000	0.8364185218
0.9350000000	0.5813844138
0.9400000000	0.4438046767
0.9450000000	0.3675452557
0.9500000000	0.3133891214
0.9550000000	0.2771379244
0.9600000000	0.2547185067
0.9650000000	0.2362204000
0.9700000000	0.2230214799
0.9750000000	0.2140270941
0.9800000000	0.2085526570
0.9850000000	0.2075520752
0.9900000000	0.2095546631
0.9950000000	0.2176278116
1.0000000000	0.2369235586
1.0050000000	0.2819690044
1.0100000000	0.4000182027
1.0150000000	0.8046044539
1.0200000000	1.5452898875
1.0250000000	0.7024438293
1.0300000000	0.3597179390
1.0350000000	0.2575697372
1.0400000000	0.2174000372
1.0450000000	0.1985544251
1.0500000000	0.1891062453
1.0550000000	0.1841479547
1.0600000000	0.1819202820
1.0650000000	0.1814999390
1.0700000000	0.1823750411
1.0750000000	0.1843652395
1.0800000000	0.1871132328
1.0850000000	0.1908540214
1.0900000000	0.1962604440
1.0950000000	0.2025637426
1.1000000000	0.2098256489
1.1050000000	0.2180592041
1.1100000000	0.2273946935
1.1150000000	0.2379563197
1.1200000000	0.2498914999
1.1250000000	0.2633222314
1.1300000000	0.2785964497
1.1350000000	0.2959486985
1.1400000000	0.3157301996
1.1450000000	0.3383875830
1.1500000000	0.3642684186
1.1550000000	0.3944548785
1.1600000000	0.4296312801
1.1650000000	0.4706939322
1.1700000000	0.5178285651
1.1750000000	0.5656308786
1.1800000000	0.6108661647
1.1850000000	0.8490193383
1.1900000000	1.0536406416
1.1950000000	1.4443898948
1.2000000000	1.9671674725
1.2050000000	1.7255281803
1.2100000000	1.6513462195
1.2150000000	1.8384145898
1.2200000000	2.1987563496
1.2250000000	2.7521295829
1.2300000000	3.5935738676
1.2350000000	4.9246511853
1.2400000000	7.1668511907
1.2450000000	11.3888983246
1.2500000000	20.5326600293
1.2550000000	44.4467450869
1.2600000000	107.3573643511
1.2650000000	108.7485009467
1.2700000000	45.2371382055
1.2750000000	20.8814964899
1.2800000000	11.5645413518
1.2850000000	7.2724686643
1.2900000000	4.9846111657
1.2950000000	3.6328571147
1.3000000000	2.7718496040
1.3050000000	2.1921359845
1.3100000000	1.7833444138
1.3150000000	1.4879721229
1.3200000000	1.2690120821
1.3250000000	1.1042364390
1.3300000000	0.9801440514
1.3350000000	0.8884504090
1.3400000000	0.8248543204
1.3450000000	0.7881760017
1.3500000000	0.7837649788
1.3550000000	0.8238001005
1.3600000000	0.9392701543
1.3650000000	1.2090334223
1.3700000000	1.8532690814
1.3750000000	3.4561834329
1.3800000000	5.6454178133
1.3850000000	3.9437573622
1.3900000000	2.0097717874
1.3950000000	1.1661421808
1.4000000000	0.7637084042
1.4050000000	0.5163702720
1.4100000000	0.2925049818
1.4150000000	-0.0414617986
1.4200000000	-0.7891660740
1.4250000000	-2.7703864642
1.4300000000	-3.7249608615
1.4350000000	1.7065501892
1.4400000000	2.1829405662
1.4450000000	1.3087661186
1.4500000000	0.8143661911
1.4550000000	0.5613777577
1.4600000000	0.4145443944
1.4650000000	0.2985020364
1.4700000000	0.1743793103
1.4750000000	0.2049209485
1.4800000000	0.3004193413
1.4850000000	0.2727908190
1.4900000000	0.2415502488
1.4950000000	0.2213435848
1.5000000000	0.2080694429
1.5050000000	0.1992926100
1.5100000000	0.1933219120
1.5150000000	0.1900641572
1.5200000000	0.1876627761
1.5250000000	0.1867966026
1.5300000000	0.1875454771
1.5350000000	0.1902520823
1.5400000000	0.1957713211
1.5450000000	0.2060017876
1.5500000000	0.2252108090
1.5550000000	0.2619043855
1.5600000000	0.3169841466
1.5650000000	0.3258110977
1.5700000000	0.2761061379
1.5750000000	0.2412266648
1.5800000000	0.2261796085
1.5850000000	0.2214443860
1.5900000000	0.2220569994
1.5950000000	0.2258616955
1.6000000000	0.2319192560
1.6050000000	0.2399063145
1.6100000000	0.2495814230
1.6150000000	0.2609086055
1.6200000000	0.2740682858
1.6250000000	0.2892161090
1.6300000000	0.3066078973
1.6350000000	0.3265734625
1.6400000000	0.3495345470
1.6450000000	0.3760298012
1.6500000000	0.4067353587
1.6550000000	0.4425080732
1.6600000000	0.4844580872
1.6650000000	0.5340183581
1.6700000000	0.5925821605
1.6750000000	0.6635686374
1.6800000000	0.7500000137
1.6850000000	0.8566308092
1.6900000000	0.9902115613
1.6950000000	1.1606484147
1.7000000000	1.3828539305
1.7050000000	1.6893922765
1.7100000000	2.1170675803
1.7150000000	2.7387023177
1.7200000000	3.6860940574
1.7250000000	5.1890926302
1.7300000000	7.4987910202
1.7350000000	10.4628952650
1.7400000000	14.2100137886
1.7450000000	20.7855787074
1.7500000000	29.3212557892
1.7550000000	29.7929297591
1.7600000000	20.9016374812
1.7650000000	13.0197681856
1.7700000000	8.3461815859
1.7750000000	5.6886085061
1.7800000000	4.1180968645
1.7850000000	3.1520383402
1.7900000000	2.5529364249
1.7950000000	2.2101392849
1.8000000000	2.0717802043
1.8050000000	2.0279785483
1.8100000000	1.8043188444
1.8150000000	1.3980874012
1.8200000000	1.0735360778
1.8250000000	0.9061979856
1.8300000000	0.7889381583
1.8350000000	0.6847271159
1.8400000000	0.5997509089
1.8450000000	0.5323169686
1.8500000000	0.4779722400
1.8550000000	0.4330772355
1.8600000000	0.3917798215
1.8650000000	0.3568663205
1.8700000000	0.3215805044
1.8750000000	0.2707133056
1.8800000000	0.1547651184
1.8850000000	-0.0993549178
1.8900000000	-0.4411608569
1.8950000000	-0.4998070340
1.9000000000	0.0534834857
1.9050000000	0.5693467567
1.9100000000	0.6295414667
1.9150000000	0.5318459461
1.9200000000	0.4360953537
1.9250000000	0.3681505048
1.9300000000	0.3270030072
1.9350000000	0.2955888360
1.9400000000	0.2746916146
1.9450000000	0.2608590894
1.9500000000	0.2511905392
1.9550000000	0.2430995169
1.9600000000	0.2361126198
1.9650000000	0.2311509814
1.9700000000	0.2285011527
1.9750000000	0.2279868599
1.9800000000	0.2294651578
1.9850000000	0.2329789208
1.9900000000	0.2387588178
1.9950000000	0.2470934327
2.0000000000	0.2577660040
2.0050000000	0.2698733717
2.0100000000	0.2785580890
2.0150000000	0.2843501207
2.0200000000	0.2913341916
2.0250000000	0.3021148602
2.0300000000	0.3174585715
2.0350000000	0.3377489733
2.0400000000	0.3636827144
2.0450000000	0.3964685916
2.0500000000	0.4378426915
2.0550000000	0.4897343484
2.0600000000	0.5530793277
2.0650000000	0.6268817441
2.0700000000	0.7122502254
2.0750000000	0.8187078543
2.0800000000	0.9619771303
2.0850000000	1.1573876311
2.0900000000	1.4138546250
2.0950000000	1.7129520871
2.1000000000	1.9795315459
2.1050000000	2.1087063140
2.1100000000	2.0473630240
2.1150000000	1.9062033535
2.1200000000	1.8064302809
2.1250000000	1.8021734230
2.1300000000	1.9094919387
2.1350000000	2.1411141047
2.1400000000	2.5225341105
2.1450000000	3.0988551633
2.1500000000	3.9332366989
2.1550000000	5.0731213441
2.1600000000	6.4265848826
2.1650000000	7.5641469252
2.1700000000	7.8329354894
2.1750000000	7.0117424240
2.1800000000	5.6607629871
2.1850000000	4.3675434410
2.1900000000	3.3564373222
2.1950000000	2.6259434491
2.2000000000	2.1134416652
2.2050000000	1.7598581095
2.2100000000	1.5143991155
2.2150000000	1.3261299381
2.2200000000	1.1574289924
2.2250000000	0.9969672759
2.2300000000	0.8516803778
2.2350000000	0.7269315077
2.2400000000	0.6212736267
2.2450000000	0.5300420645
2.2500000000	0.4485937585
2.2550000000	0.3743319983
2.2600000000	0.3000689158
2.2650000000	0.2460445310
2.2700000000	0.2166986831
2.2750000000	0.2240867195
2.2800000000	0.2667102443
2.2850000000	0.3209863232
2.2900000000	0.3607154015
2.2950000000	0.3783241191
2.3000000000	0.3803385865
2.3050000000	0.3742632799
2.3100000000	0.3662602075
2.3150000000	0.3591687191
2.3200000000	0.3541113908
2.3250000000	0.3517048787
2.3300000000	0.3524482192
2.3350000000	0.3567547870
2.3400000000	0.3649776610
2.3450000000	0.3774740429
2.3500000000	0.3946223337
2.3550000000	0.4169897987
2.3600000000	0.4442091484
2.3650000000	0.4764496933
2.3700000000	0.5136217421
2.3750000000	0.5561287932
2.3800000000	0.6055052552
2.3850000000	0.6635718561
2.3900000000	0.7307312243
2.3950000000	0.8039928741
2.4000000000	0.8756689633
2.4050000000	0.9374379282
2.4100000000	0.9716749372
2.4150000000	0.9749474684
2.4200000000	0.9556258279
2.4250000000	0.9279836424
2.4300000000	0.9046890616
2.4350000000	0.8933891386
2.4400000000	0.8971353733
2.4450000000	0.9164207740
2.4500000000	0.9513069321
2.4550000000	1.0025712024
2.4600000000	1.0735002038
2.4650000000	1.1674631291
2.4700000000	1.2882118122
2.4750000000	1.4380895666
2.4800000000	1.6159138856
2.4850000000	1.8140974576
2.4900000000	2.0152844372
2.4950000000	2.1906737026
2.5000000000	2.3042248954
2.5050000000	2.3188228824
2.5100000000	2.2196478885
2.5150000000	2.0337698500
2.5200000000	1.8044417500
2.5250000000	1.5696625102
2.5300000000	1.3525947928
2.5350000000	1.1629707733
2.5400000000	1.0022232352
2.5450000000	0.8679672078
2.5500000000	0.7567465308
2.5550000000	0.6654558747
2.5600000000	0.5891213909
2.5650000000	0.5319943517
2.5700000000	0.4909470605
2.5750000000	0.4645156402
2.5800000000	0.4497662445
2.5850000000	0.4426863405
2.5900000000	0.4395102480
2.5950000000	0.4378931071
2.6000000000	0.4370788577
2.6050000000	0.4405643526
2.6100000000	0.4460865848
2.6150000000	0.4544910741
2.6200000000	0.4662270385
2.6250000000	0.4813221558
2.6300000000	0.4993503402
2.6350000000	0.5194072685
2.6400000000	0.5401111843
2.6450000000	0.5597099165
2.6500000000	0.5763478231
2.6550000000	0.5885034776
2.6600000000	0.5954701655
2.6650000000	0.5976629990
2.6700000000	0.5965310908
2.6750000000	0.5941926915
2.6800000000	0.5927003534
2.6850000000	0.5939717628
2.6900000000	0.5993424045
2.6950000000	0.6096330034
2.7000000000	0.6252370684
2.7050000000	0.6485948365
2.7100000000	0.6786556362
2.7150000000	0.7149334571
2.7200000000	0.7564236751
2.7250000000	0.8014209259
2.7300000000	0.8473506584
2.7350000000	0.8907418438
2.7400000000	0.9274657608
2.7450000000	0.9533303367
2.7500000000	0.9649567161
2.7550000000	0.9606425574
2.7600000000	0.9408228139
2.7650000000	0.9079126797
2.7700000000	0.8656079483
2.7750000000	0.8180032980
2.7800000000	0.7688534118
2.7850000000	0.7211619106
2.7900000000	0.6766701385
2.7950000000	0.6372836147
2.8000000000	0.6033965376
2.8050000000	0.5720108702
2.8100000000	0.5472654938
2.8150000000	0.5281861815
2.8200000000	0.5137145924
2.8250000000	0.5028795555
2.8300000000	0.4948556589
2.8350000000	0.4889582537
2.8400000000	0.4846088270
2.8450000000	0.4813162150
2.8500000000	0.4786860176
2.8550000000	0.4764564095
2.8600000000	0.4745387561
2.8650000000	0.4730307049
2.8700000000	0.4721913832
2.8750000000	0.4723771778
2.8800000000	0.4739628269
2.8850000000	0.4772702312
2.8900000000	0.4825188984
2.8950000000	0.4897960413
2.9000000000	0.4990418808
2.9050000000	0.5128718926
2.9100000000	0.5280382174
2.9150000000	0.5435282477
2.9200000000	0.5580622646
2.9250000000	0.5702655395
2.9300000000	0.5788616748
2.9350000000	0.5828963200
2.9400000000	0.5819218545
2.9450000000	0.5760828620
2.9500000000	0.5660620678
2.9550000000	0.5529063293
2.9600000000	0.5378059971
2.9650000000	0.5218886008
2.9700000000	0.5060814074
2.9750000000	0.4910512983
2.9800000000	0.4772088458
2.9850000000	0.4647526498
2.9900000000	0.4537288945
2.9950000000	0.4440892439
3.0000000000	0.4357380879
