# energy (eV)    P(omega), $W$ = 300 nm, $h$ = 300 nm, $s$ = 20 nm, $d/W = 5$, $E_{\rm e}$ = 200 keV
0.2000000000	0.0815460705
0.2050000000	0.0827174441
0.2100000000	0.0838185374
0.2150000000	0.0848515475
0.2200000000	0.0858183684
0.2250000000	0.0867205661
0.2300000000	0.0875592902
0.2350000000	0.0883352592
0.2400000000	0.0890486775
0.2450000000	0.0896990603
0.2500000000	0.0902853316
0.2550000000	0.0908054247
0.2600000000	0.0912563196
0.2650000000	0.0916338072
0.2700000000	0.0919321179
0.2750000000	0.0921436984
0.2800000000	0.0922587589
0.2850000000	0.0922647820
0.2900000000	0.0921456857
0.2950000000	0.0918811920
0.3000000000	0.0914451879
0.3050000000	0.0908046841
0.3100000000	0.0899173283
0.3150000000	0.0947610774
0.3200000000	0.1005145337
0.3250000000	0.1077875508
0.3300000000	0.1175200437
0.3350000000	0.1296384718
0.3400000000	0.1455093991
0.3450000000	0.1647763767
0.3500000000	0.1899915114
0.3550000000	0.2233725294
0.3600000000	0.2669907097
0.3650000000	0.3278278861
0.3700000000	0.4081250364
0.3750000000	0.5199067312
0.3800000000	0.6816914351
0.3850000000	0.9339381434
0.3900000000	1.3327356266
0.3950000000	2.0106394976
0.4000000000	3.3038365395
0.4050000000	6.2050949565
0.4100000000	14.1272446289
0.4150000000	45.3757149797
0.4200000000	28.8827561810
0.4250000000	-54.5220966027
0.4300000000	15.1936390538
0.4350000000	9.4802361638
0.4400000000	5.8040778678
0.4450000000	3.8238539233
0.4500000000	2.6831388616
0.4550000000	1.9807249036
0.4600000000	1.5229849965
0.4650000000	1.2109005091
0.4700000000	0.9902236019
0.4750000000	0.8305735985
0.4800000000	0.7121811909
0.4850000000	0.6230930781
0.4900000000	0.5551054888
0.4950000000	0.5027088019
0.5000000000	0.4621381366
0.5050000000	0.4306279249
0.5100000000	0.4064009971
0.5150000000	0.3881496787
0.5200000000	0.3744989929
0.5250000000	0.3648365611
0.5300000000	0.3584996325
0.5350000000	0.3550048640
0.5400000000	0.3539965126
0.5450000000	0.3551775827
0.5500000000	0.3584596256
0.5550000000	0.3636769772
0.5600000000	0.3707489354
0.5650000000	0.3796414248
0.5700000000	0.3903256148
0.5750000000	0.4028779629
0.5800000000	0.4174227495
0.5850000000	0.4340416399
0.5900000000	0.4528900013
0.5950000000	0.4741605008
0.6000000000	0.4980982528
0.6050000000	0.5250546042
0.6100000000	0.5553680127
0.6150000000	0.5894978176
0.6200000000	0.6280571325
0.6250000000	0.6716329877
0.6300000000	0.7210930386
0.6350000000	0.7775187679
0.6400000000	0.8420359236
0.6450000000	0.9162686431
0.6500000000	1.0023530832
0.6550000000	1.1025134089
0.6600000000	1.2201667260
0.6650000000	1.3597010566
0.6700000000	1.5262751264
0.6750000000	1.7277524247
0.6800000000	1.9747203703
0.6850000000	2.2810382484
0.6900000000	2.6681891897
0.6950000000	3.1662092295
0.7000000000	3.8228387375
0.7050000000	4.7110580646
0.7100000000	5.9545621420
0.7150000000	7.7735699184
0.7200000000	10.5781505573
0.7250000000	15.2352984914
0.7300000000	23.7867852388
0.7350000000	42.0915311154
0.7400000000	92.3128838199
0.7450000000	306.4702298820
0.7500000000	950.1503278108
0.7550000000	239.2108652185
0.7600000000	79.2816219724
0.7650000000	38.0166435066
0.7700000000	22.1264960321
0.7750000000	14.4528339076
0.7800000000	10.1792717337
0.7850000000	7.5663268073
0.7900000000	5.8504518659
0.7950000000	4.6666247827
0.8000000000	3.8153233560
0.8050000000	3.1810787836
0.8100000000	2.6972664651
0.8150000000	2.3135896384
0.8200000000	2.0106864871
0.8250000000	1.7667238242
0.8300000000	1.5668132599
0.8350000000	1.4024137881
0.8400000000	1.2645667540
0.8450000000	1.1488700696
0.8500000000	1.0510649208
0.8550000000	0.9666395313
0.8600000000	0.8945670869
0.8650000000	0.8330195089
0.8700000000	0.7786207409
0.8750000000	0.7323710412
0.8800000000	0.6931626893
0.8850000000	0.6580065338
0.8900000000	0.6298801927
0.8950000000	0.6042908413
0.9000000000	0.5840921278
0.9050000000	0.5703358928
0.9100000000	0.5577372122
0.9150000000	0.5502843523
0.9200000000	0.5498429998
0.9250000000	0.5496111924
0.9300000000	0.5419265183
0.9350000000	0.5178632885
0.9400000000	0.3820225474
0.9450000000	-0.2369879716
0.9500000000	-3.5070257479
0.9550000000	-20.1050692892
0.9600000000	4.7488037398
0.9650000000	8.3465550573
0.9700000000	3.7045147816
0.9750000000	1.9456616531
0.9800000000	1.2196663381
0.9850000000	0.8800220782
0.9900000000	0.6842268176
0.9950000000	0.5654614766
1.0000000000	0.4896153457
1.0050000000	0.4415514293
1.0100000000	0.4042481050
1.0150000000	0.3769796916
1.0200000000	0.3586211321
1.0250000000	0.3431715521
1.0300000000	0.3314086551
1.0350000000	0.3224781529
1.0400000000	0.3167738442
1.0450000000	0.3119777537
1.0500000000	0.3087500933
1.0550000000	0.3069060310
1.0600000000	0.3068719624
1.0650000000	0.3074614228
1.0700000000	0.3091534672
1.0750000000	0.3119537095
1.0800000000	0.3161761504
1.0850000000	0.3215441844
1.0900000000	0.3295456106
1.0950000000	0.3390610228
1.1000000000	0.3504244734
1.1050000000	0.3634899829
1.1100000000	0.3786843310
1.1150000000	0.3963442452
1.1200000000	0.4168829196
1.1250000000	0.4407718557
1.1300000000	0.4687237338
1.1350000000	0.5015991824
1.1400000000	0.5403943961
1.1450000000	0.5868551912
1.1500000000	0.6429402812
1.1550000000	0.7114529724
1.1600000000	0.7963475868
1.1650000000	0.9027702458
1.1700000000	1.0402837611
1.1750000000	1.2216506779
1.1800000000	1.4679392220
1.1850000000	1.8137597911
1.1900000000	2.3244384254
1.1950000000	3.1251827870
1.2000000000	4.4822715325
1.2050000000	7.0454904256
1.2100000000	12.6827287878
1.2150000000	27.9220563918
1.2200000000	68.4813601697
1.2250000000	61.5869480207
1.2300000000	24.6396555561
1.2350000000	11.6173612910
1.2400000000	6.6873675237
1.2450000000	4.4280547814
1.2500000000	3.2410840632
1.2550000000	2.5615873201
1.2600000000	2.1543980744
1.2650000000	1.9065680852
1.2700000000	1.7681899359
1.2750000000	1.7070657010
1.2800000000	1.7086371788
1.2850000000	1.7675688047
1.2900000000	1.8854649801
1.2950000000	2.0690439191
1.3000000000	2.3394028746
1.3050000000	2.7240066122
1.3100000000	3.2725295627
1.3150000000	4.0705558694
1.3200000000	5.2713125990
1.3250000000	7.1674142159
1.3300000000	10.3975291957
1.3350000000	16.4445476620
1.3400000000	29.3678482825
1.3450000000	61.4572549919
1.3500000000	130.5569532662
1.3550000000	121.8422781742
1.3600000000	56.2087346130
1.3650000000	27.6214851357
1.3700000000	15.8405705329
1.3750000000	10.1859569809
1.3800000000	7.1026405772
1.3850000000	5.2455917954
1.3900000000	4.0493323182
1.3950000000	3.2336919897
1.4000000000	2.6544947853
1.4050000000	2.2303757693
1.4100000000	1.9125443771
1.4150000000	1.6727234625
1.4200000000	1.4923876530
1.4250000000	1.3716228348
1.4300000000	1.3274514250
1.4350000000	1.3521796537
1.4400000000	1.0416085609
1.4450000000	0.0902120901
1.4500000000	-1.4542370882
1.4550000000	-0.4075994073
1.4600000000	1.7614782829
1.4650000000	0.9535492570
1.4700000000	-0.9009657935
1.4750000000	-3.9423933762
1.4800000000	-1.7546437758
1.4850000000	2.8837420072
1.4900000000	2.3375753704
1.4950000000	1.5130387460
1.5000000000	1.0630828833
1.5050000000	0.8207988189
1.5100000000	0.6827045591
1.5150000000	0.5988405736
1.5200000000	0.5446663973
1.5250000000	0.5110067525
1.5300000000	0.4852952543
1.5350000000	0.4675731265
1.5400000000	0.4559002990
1.5450000000	0.4492359213
1.5500000000	0.4469080130
1.5550000000	0.4489338702
1.5600000000	0.4565108150
1.5650000000	0.4690247977
1.5700000000	0.4892858746
1.5750000000	0.5207221057
1.5800000000	0.5697700921
1.5850000000	0.6489590258
1.5900000000	0.7846860122
1.5950000000	1.0353659376
1.6000000000	1.5243887120
1.6050000000	2.3329732233
1.6100000000	2.7074548129
1.6150000000	2.0054460009
1.6200000000	1.3468781807
1.6250000000	0.9992426033
1.6300000000	0.8246917630
1.6350000000	0.7348239608
1.6400000000	0.6892700035
1.6450000000	0.6692670654
1.6500000000	0.6654192247
1.6550000000	0.6733249067
1.6600000000	0.6903570506
1.6650000000	0.7153158937
1.6700000000	0.7477451024
1.6750000000	0.7876470266
1.6800000000	0.8353780619
1.6850000000	0.8914911933
1.6900000000	0.9564750285
1.6950000000	1.0294048101
1.7000000000	1.1090536400
1.7050000000	1.1906687429
1.7100000000	1.2837914067
1.7150000000	1.5153154731
1.7200000000	1.9215687624
1.7250000000	2.2937403262
1.7300000000	2.6931145266
1.7350000000	3.1319523318
1.7400000000	3.5625835747
1.7450000000	4.1157141506
1.7500000000	4.9521741526
1.7550000000	6.1971489473
1.7600000000	8.0598570263
1.7650000000	10.9312352532
1.7700000000	15.5565219016
1.7750000000	23.3489299517
1.7800000000	36.6270470872
1.7850000000	56.2091859235
1.7900000000	69.8530069409
1.7950000000	59.4812494597
1.8000000000	39.5864811259
1.8050000000	24.9998043676
1.8100000000	16.4829950386
1.8150000000	11.4909560484
1.8200000000	8.4187868425
1.8250000000	6.4270897741
1.8300000000	5.0747973048
1.8350000000	4.1202941933
1.8400000000	3.4248952766
1.8450000000	2.9044714996
1.8500000000	2.5060030565
1.8550000000	2.1963142118
1.8600000000	1.9522620741
1.8650000000	1.7581185034
1.8700000000	1.6026975557
1.8750000000	1.4777873714
1.8800000000	1.3768746379
1.8850000000	1.2942046967
1.8900000000	1.2231471042
1.8950000000	1.1538078929
1.9000000000	1.0691017570
1.9050000000	0.9087258477
1.9100000000	0.6880215547
1.9150000000	0.5712807982
1.9200000000	1.3962538931
1.9250000000	3.6758507913
1.9300000000	5.4837170647
1.9350000000	5.3992914745
1.9400000000	4.2466382916
1.9450000000	3.1291178578
1.9500000000	2.3444944700
1.9550000000	1.8303874883
1.9600000000	1.4906511009
1.9650000000	1.2632594065
1.9700000000	1.0991023940
1.9750000000	0.9787691205
1.9800000000	0.8868992955
1.9850000000	0.8123486149
1.9900000000	0.7465894065
1.9950000000	0.6821790444
2.0000000000	0.6180325982
2.0050000000	0.5770505192
2.0100000000	0.6005299395
2.0150000000	0.6652112041
2.0200000000	0.7050924450
2.0250000000	0.7156850843
2.0300000000	0.7180679272
2.0350000000	0.7224040750
2.0400000000	0.7324693387
2.0450000000	0.7492259420
2.0500000000	0.7732977792
2.0550000000	0.8052513066
2.0600000000	0.8450869342
2.0650000000	0.8903928952
2.0700000000	0.9351880980
2.0750000000	0.9749906013
2.0800000000	1.0137563435
2.0850000000	1.0596658171
2.0900000000	1.1182030600
2.0950000000	1.1916780880
2.1000000000	1.2825767238
2.1050000000	1.3900764200
2.1100000000	1.5217323934
2.1150000000	1.6830677555
2.1200000000	1.8818279297
2.1250000000	2.1288769876
2.1300000000	2.4395288772
2.1350000000	2.8356471516
2.1400000000	3.3488020745
2.1450000000	4.0251495772
2.1500000000	4.9319405580
2.1550000000	6.1643534362
2.1600000000	7.8442016736
2.1650000000	10.0746463473
2.1700000000	12.8144191216
2.1750000000	15.5383245124
2.1800000000	17.2213494728
2.1850000000	17.3087854558
2.1900000000	16.5435296897
2.1950000000	15.9480204484
2.2000000000	15.6839303803
2.2050000000	14.9504065972
2.2100000000	13.3931125639
2.2150000000	11.4784282356
2.2200000000	9.7596000699
2.2250000000	8.3390498563
2.2300000000	7.0881800303
2.2350000000	5.9572091953
2.2400000000	4.9857530374
2.2450000000	4.2084628048
2.2500000000	3.6126050054
2.2550000000	3.1649942576
2.2600000000	2.8298538317
2.2650000000	2.5713312302
2.2700000000	2.3506679749
2.2750000000	2.1296769208
2.2800000000	1.8917477730
2.2850000000	1.6653359002
2.2900000000	1.5088695661
2.2950000000	1.4554240392
2.3000000000	1.4745251350
2.3050000000	1.5036938852
2.3100000000	1.5061435000
2.3150000000	1.4821723320
2.3200000000	1.4477045710
2.3250000000	1.4191881024
2.3300000000	1.4050387350
2.3350000000	1.4067017506
2.3400000000	1.4194621703
2.3450000000	1.4326493881
2.3500000000	1.4328270998
2.3550000000	1.4114230408
2.3600000000	1.3708632101
2.3650000000	1.3217486540
2.3700000000	1.2750066433
2.3750000000	1.2371635456
2.3800000000	1.2103395034
2.3850000000	1.1939350306
2.3900000000	1.1865829435
2.3950000000	1.1866994642
2.4000000000	1.1947158760
2.4050000000	1.2132722131
2.4100000000	1.2432531531
2.4150000000	1.2858834594
2.4200000000	1.3418991990
2.4250000000	1.4125889570
2.4300000000	1.4998321753
2.4350000000	1.6061500604
2.4400000000	1.7347960189
2.4450000000	1.8899241141
2.4500000000	2.0767753032
2.4550000000	2.3019369907
2.4600000000	2.5735026319
2.4650000000	2.9011827440
2.4700000000	3.2961142500
2.4750000000	3.7694528063
2.4800000000	4.3327194960
2.4850000000	4.9904748925
2.4900000000	5.7362897403
2.4950000000	6.5434744391
2.5000000000	7.3555857040
2.5050000000	8.1152834759
2.5100000000	8.6285198225
2.5150000000	8.7833724360
2.5200000000	8.5531658212
2.5250000000	8.0089615137
2.5300000000	7.2745654425
2.5350000000	6.4693872041
2.5400000000	5.6777901812
2.5450000000	4.9474417047
2.5500000000	4.2995392863
2.5550000000	3.7389087445
2.5600000000	3.2578419122
2.5650000000	2.8533869882
2.5700000000	2.5160212565
2.5750000000	2.2397833493
2.5800000000	2.0202203813
2.5850000000	1.8524920236
2.5900000000	1.7286375231
2.5950000000	1.6374649307
2.6000000000	1.5673210478
2.6050000000	1.5174709366
2.6100000000	1.4743076499
2.6150000000	1.4371469666
2.6200000000	1.4067229733
2.6250000000	1.3838490092
2.6300000000	1.3690682047
2.6350000000	1.3626576927
2.6400000000	1.3647784528
2.6450000000	1.3755802476
2.6500000000	1.3953562488
2.6550000000	1.4241885900
2.6600000000	1.4625197152
2.6650000000	1.5107965989
2.6700000000	1.5695683229
2.6750000000	1.6395002529
2.6800000000	1.7213298496
2.6850000000	1.8158114745
2.6900000000	1.9235629990
2.6950000000	2.0449427080
2.7000000000	2.1798275543
2.7050000000	2.3435583570
2.7100000000	2.5222468993
2.7150000000	2.7124131646
2.7200000000	2.9089958665
2.7250000000	3.1056369886
2.7300000000	3.2951627568
2.7350000000	3.4699972316
2.7400000000	3.6222619269
2.7450000000	3.7449639086
2.7500000000	3.8272555559
2.7550000000	3.8625702640
2.7600000000	3.8459253507
2.7650000000	3.7767416386
2.7700000000	3.6596553573
2.7750000000	3.5039552016
2.7800000000	3.3217482990
2.7850000000	3.1258786468
2.7900000000	2.9278704711
2.7950000000	2.7369651412
2.8000000000	2.5596972125
2.8050000000	2.3803439009
2.8100000000	2.2268413540
2.8150000000	2.0987778514
2.8200000000	1.9940919041
2.8250000000	1.9100664972
2.8300000000	1.8439646879
2.8350000000	1.7934441371
2.8400000000	1.7560390865
2.8450000000	1.7318353506
2.8500000000	1.7190409564
2.8550000000	1.7169731000
2.8600000000	1.7251219101
2.8650000000	1.7430280471
2.8700000000	1.7701776671
2.8750000000	1.8059188233
2.8800000000	1.8493968194
2.8850000000	1.8995001062
2.8900000000	1.9548925211
2.8950000000	2.0140629152
2.9000000000	2.0754221607
2.9050000000	2.1491555242
2.9100000000	2.2198879716
2.9150000000	2.2853947321
2.9200000000	2.3433409845
2.9250000000	2.3910775928
2.9300000000	2.4261652497
2.9350000000	2.4448103003
2.9400000000	2.4453754444
2.9450000000	2.4271632707
2.9500000000	2.3912245332
2.9550000000	2.3402905779
2.9600000000	2.2783037548
2.9650000000	2.2097310623
2.9700000000	2.1388920305
2.9750000000	2.0694781394
2.9800000000	2.0043179253
2.9850000000	1.9453412108
2.9900000000	1.8937087115
2.9950000000	1.8499652744
3.0000000000	1.8142255246
