# energy (eV)    P(omega), $W$ = 400 nm, $h$ = 300 nm, $s$ = 20 nm, $d/W = 5$, $E_{\rm e}$ = 200 keV
0.2000000000	0.0934559101
0.2050000000	0.0943060053
0.2100000000	0.0949044617
0.2150000000	0.0952412010
0.2200000000	0.0953021287
0.2250000000	0.0950680969
0.2300000000	0.0945139090
0.2350000000	0.0936067581
0.2400000000	0.0923044510
0.2450000000	0.0905526108
0.2500000000	0.0882817142
0.2550000000	0.0854023058
0.2600000000	0.0817991078
0.2650000000	0.0855740733
0.2700000000	0.0951633028
0.2750000000	0.1088851673
0.2800000000	0.1280035575
0.2850000000	0.1561889979
0.2900000000	0.1911125888
0.2950000000	0.2411783574
0.3000000000	0.3084807983
0.3050000000	0.4116391213
0.3100000000	0.5553349244
0.3150000000	0.8333795856
0.3200000000	1.2676297965
0.3250000000	1.5649322669
0.3300000000	1.9761965987
0.3350000000	2.5592214540
0.3400000000	3.4744513249
0.3450000000	5.0446898473
0.3500000000	8.1758771632
0.3550000000	15.4241736322
0.3600000000	37.9066862214
0.3650000000	0.1713980011
0.3700000000	17.5682582446
0.3750000000	23.1015195914
0.3800000000	10.7644701843
0.3850000000	6.0636990709
0.3900000000	3.8893100673
0.3950000000	2.7407039133
0.4000000000	2.0756623983
0.4050000000	1.6421024755
0.4100000000	1.3598453965
0.4150000000	1.1736809600
0.4200000000	1.0560206238
0.4250000000	0.9636132252
0.4300000000	0.8544222024
0.4350000000	0.7680039446
0.4400000000	0.6996566941
0.4450000000	0.6453124449
0.4500000000	0.6024077767
0.4550000000	0.5683853719
0.4600000000	0.5418448383
0.4650000000	0.5213050475
0.4700000000	0.5057854625
0.4750000000	0.4946000296
0.4800000000	0.4871500665
0.4850000000	0.4829106295
0.4900000000	0.4815712748
0.4950000000	0.4828931601
0.5000000000	0.4866721972
0.5050000000	0.4928174099
0.5100000000	0.5012542691
0.5150000000	0.5119384674
0.5200000000	0.5248921325
0.5250000000	0.5401333991
0.5300000000	0.5578860332
0.5350000000	0.5782494859
0.5400000000	0.6014028772
0.5450000000	0.6275811093
0.5500000000	0.6571165304
0.5550000000	0.6903726828
0.5600000000	0.7277920518
0.5650000000	0.7699436430
0.5700000000	0.8176129331
0.5750000000	0.8713820823
0.5800000000	0.9323403935
0.5850000000	1.0019762204
0.5900000000	1.0812934435
0.5950000000	1.1724045531
0.6000000000	1.2781004112
0.6050000000	1.4004726648
0.6100000000	1.5443162473
0.6150000000	1.7136073272
0.6200000000	1.9151715704
0.6250000000	2.1588015190
0.6300000000	2.4544837573
0.6350000000	2.8209841953
0.6400000000	3.2790064122
0.6450000000	3.8661202561
0.6500000000	4.6303170526
0.6550000000	5.6528894290
0.6600000000	7.0710984858
0.6650000000	9.1018040537
0.6700000000	12.1767723470
0.6750000000	17.1208495407
0.6800000000	25.8604239927
0.6850000000	43.3969177089
0.6900000000	86.9740950869
0.6950000000	244.1485310124
0.7000000000	1184.1374877878
0.7050000000	575.6959652042
0.7100000000	147.8838762500
0.7150000000	62.8884139419
0.7200000000	34.3440972797
0.7250000000	21.5741908328
0.7300000000	14.7968862892
0.7350000000	10.7904896718
0.7400000000	8.2249421249
0.7450000000	6.4835520816
0.7500000000	5.2499856206
0.7550000000	4.3437213203
0.7600000000	3.6606504186
0.7650000000	3.1309393248
0.7700000000	2.7127871789
0.7750000000	2.3770896176
0.7800000000	2.1042907159
0.7850000000	1.8796690133
0.7900000000	1.6914883716
0.7950000000	1.5343230867
0.8000000000	1.4006903347
0.8050000000	1.2862014138
0.8100000000	1.1887370361
0.8150000000	1.1033136852
0.8200000000	1.0289435803
0.8250000000	0.9665339751
0.8300000000	0.9119048951
0.8350000000	0.8644128149
0.8400000000	0.8265921618
0.8450000000	0.7935915516
0.8500000000	0.7656104088
0.8550000000	0.7479230721
0.8600000000	0.7337549300
0.8650000000	0.7236099834
0.8700000000	0.7271388907
0.8750000000	0.7283736306
0.8800000000	0.7244515591
0.8850000000	0.6929518497
0.8900000000	0.5377600342
0.8950000000	-0.2399792902
0.9000000000	-4.4104156665
0.9050000000	-28.9797916518
0.9100000000	5.5183250412
0.9150000000	13.0718413262
0.9200000000	5.4263733146
0.9250000000	2.8229606888
0.9300000000	1.7232083783
0.9350000000	1.1977843508
0.9400000000	0.9143417028
0.9450000000	0.7572321912
0.9500000000	0.6456605026
0.9550000000	0.5709771657
0.9600000000	0.5247906804
0.9650000000	0.4866836495
0.9700000000	0.4594950043
0.9750000000	0.4409699821
0.9800000000	0.4296989021
0.9850000000	0.4276482348
0.9900000000	0.4317904473
0.9950000000	0.4484496954
1.0000000000	0.4882513628
1.0050000000	0.5811541443
1.0100000000	0.8246137343
1.0150000000	1.6590020299
1.0200000000	3.1865306745
1.0250000000	1.4483157180
1.0300000000	0.7415072752
1.0350000000	0.5308450377
1.0400000000	0.4480010781
1.0450000000	0.4091332283
1.0500000000	0.3896445683
1.0550000000	0.3794150795
1.0600000000	0.3748161153
1.0650000000	0.3739435085
1.0700000000	0.3757415665
1.0750000000	0.3798381054
1.0800000000	0.3854966435
1.0850000000	0.3932010549
1.0900000000	0.4043373364
1.0950000000	0.4173216390
1.1000000000	0.4322810562
1.1050000000	0.4492423893
1.1100000000	0.4684740088
1.1150000000	0.4902317518
1.1200000000	0.5148192980
1.1250000000	0.5424879628
1.1300000000	0.5739545182
1.1350000000	0.6097021605
1.1400000000	0.6504544291
1.1450000000	0.6971314321
1.1500000000	0.7504492117
1.1550000000	0.8126371483
1.1600000000	0.8851049561
1.1650000000	0.9696988977
1.1700000000	1.0668005069
1.1750000000	1.1652713446
1.1800000000	1.2584378733
1.1850000000	1.7491049007
1.1900000000	2.1706603445
1.1950000000	2.9756609873
1.2000000000	4.0526637469
1.2050000000	3.5548369616
1.2100000000	3.4019994191
1.2150000000	3.7873788231
1.2200000000	4.5297258468
1.2250000000	5.6697428264
1.2300000000	7.4032223431
1.2350000000	10.1454066683
1.2400000000	14.7646161801
1.2450000000	23.4625543509
1.2500000000	42.2998284026
1.2550000000	91.5657749023
1.2600000000	221.1693213505
1.2650000000	224.0351511134
1.2700000000	93.1939793685
1.2750000000	43.0183961237
1.2800000000	23.8243400251
1.2850000000	14.9821524133
1.2900000000	10.2688909004
1.2950000000	7.4841156875
1.3000000000	5.7103375935
1.3050000000	4.5160588196
1.3100000000	3.6739000758
1.3150000000	3.0653987705
1.3200000000	2.6143159637
1.3250000000	2.2748597247
1.3300000000	2.0192161191
1.3350000000	1.8303181751
1.3400000000	1.6993052053
1.3450000000	1.6237470426
1.3500000000	1.6146650215
1.3550000000	1.6971503386
1.3600000000	1.9350464143
1.3650000000	2.4908176120
1.3700000000	3.8180781406
1.3750000000	7.1204121400
1.3800000000	11.6306828351
1.3850000000	8.1249143698
1.3900000000	4.1405112669
1.3950000000	2.4024651143
1.4000000000	1.5733734120
1.4050000000	1.0638126438
1.4100000000	0.6026163641
1.4150000000	-0.0853962391
1.4200000000	-1.6257481239
1.4250000000	-5.7072672500
1.4300000000	-7.6737879714
1.4350000000	3.5156744808
1.4400000000	4.4970842203
1.4450000000	2.6961953046
1.4500000000	1.6776806952
1.4550000000	1.1564978836
1.4600000000	0.8540040623
1.4650000000	0.6149390521
1.4700000000	0.3592210818
1.4750000000	0.4221497490
1.4800000000	0.6189045086
1.4850000000	0.5619853341
1.4900000000	0.4976237864
1.4950000000	0.4559944602
1.5000000000	0.4286475781
1.5050000000	0.4105660079
1.5100000000	0.3982656140
1.5150000000	0.3915543377
1.5200000000	0.3866074692
1.5250000000	0.3848234968
1.5300000000	0.3863669950
1.5350000000	0.3919441000
1.5400000000	0.4033163685
1.5450000000	0.4243958686
1.5500000000	0.4639754654
1.5550000000	0.5395818690
1.5600000000	0.6530730758
1.5650000000	0.6712605293
1.5700000000	0.5688421079
1.5750000000	0.4969709879
1.5800000000	0.4659642811
1.5850000000	0.4562048512
1.5900000000	0.4574643389
1.5950000000	0.4653007736
1.6000000000	0.4777788433
1.6050000000	0.4942321734
1.6100000000	0.5141632290
1.6150000000	0.5374978267
1.6200000000	0.5646076222
1.6250000000	0.5958132259
1.6300000000	0.6316416395
1.6350000000	0.6727722931
1.6400000000	0.7200740053
1.6450000000	0.7746564392
1.6500000000	0.8379124839
1.6550000000	0.9116073317
1.6600000000	0.9980279743
1.6650000000	1.1001264330
1.6700000000	1.2207729832
1.6750000000	1.3670113649
1.6800000000	1.5450676435
1.6850000000	1.7647365721
1.6900000000	2.0399249268
1.6950000000	2.3910403008
1.7000000000	2.8488040679
1.7050000000	3.4803016691
1.7100000000	4.3613535544
1.7150000000	5.6419818523
1.7200000000	7.5937042075
1.7250000000	10.6900365977
1.7300000000	15.4482513654
1.7350000000	21.5545620187
1.7400000000	29.2738521088
1.7450000000	42.8199239173
1.7500000000	60.4039868140
1.7550000000	61.3756366217
1.7600000000	43.0589158218
1.7650000000	26.8216901363
1.7700000000	17.1937633012
1.7750000000	11.7189732038
1.7800000000	8.4836114014
1.7850000000	6.4934713353
1.7900000000	5.2592961071
1.7950000000	4.5531404473
1.8000000000	4.2681607349
1.8050000000	4.1779796595
1.8100000000	3.7172180242
1.8150000000	2.8802894853
1.8200000000	2.2116386511
1.8250000000	1.8668884648
1.8300000000	1.6253124918
1.8350000000	1.4106196690
1.8400000000	1.2355546365
1.8450000000	1.0966302739
1.8500000000	0.9846721840
1.8550000000	0.8921821613
1.8600000000	0.8071039627
1.8650000000	0.7351772219
1.8700000000	0.6624833290
1.8750000000	0.5576904955
1.8800000000	0.3188272147
1.8850000000	-0.2046768049
1.8900000000	-0.9088177774
1.8950000000	-1.0296314499
1.9000000000	0.1101835043
1.9050000000	1.1728960420
1.9100000000	1.2969017780
1.9150000000	1.0956432991
1.9200000000	0.8983915387
1.9250000000	0.7584215856
1.9300000000	0.6736562317
1.9350000000	0.6089427369
1.9400000000	0.5658956416
1.9450000000	0.5374030106
1.9500000000	0.5174878162
1.9550000000	0.5008195042
1.9600000000	0.4864232142
1.9650000000	0.4761989005
1.9700000000	0.4707379011
1.9750000000	0.4696770168
1.9800000000	0.4727215060
1.9850000000	0.4799594862
1.9900000000	0.4918660019
1.9950000000	0.5090354763
2.0000000000	0.5310214032
2.0050000000	0.5559635270
2.0100000000	0.5738555779
2.0150000000	0.5857891837
2.0200000000	0.6001786666
2.0250000000	0.6223894154
2.0300000000	0.6540004185
2.0350000000	0.6958021612
2.0400000000	0.7492299319
2.0450000000	0.8167741185
2.0500000000	0.9020114494
2.0550000000	1.0089169160
2.0600000000	1.1394187754
2.0650000000	1.2914657891
2.0700000000	1.4673423669
2.0750000000	1.6866680080
2.0800000000	1.9818341030
2.0850000000	2.3844227871
2.0900000000	2.9128014071
2.0950000000	3.5290076565
2.1000000000	4.0782168876
2.1050000000	4.3443362132
2.1100000000	4.2179380111
2.1150000000	3.9270939088
2.1200000000	3.7215105263
2.1250000000	3.7127061072
2.1300000000	3.9337634532
2.1350000000	4.4109013295
2.1400000000	5.1966372794
2.1450000000	6.3838855443
2.1500000000	8.1027587761
2.1550000000	10.4509933408
2.1600000000	13.2392193241
2.1650000000	15.5826748685
2.1700000000	16.1363964720
2.1750000000	14.4446798322
2.1800000000	11.6615662415
2.1850000000	8.9974414346
2.1900000000	6.9144888743
2.1950000000	5.4096157669
2.2000000000	4.3538198750
2.2050000000	3.6254048432
2.2100000000	3.1197336990
2.2150000000	2.7318806181
2.2200000000	2.3843455829
2.2250000000	2.0537893630
2.2300000000	1.7544963150
2.2350000000	1.4975124005
2.2400000000	1.2798557853
2.2450000000	1.0919170258
2.2500000000	0.9241314976
2.2550000000	0.7711503034
2.2600000000	0.6181665333
2.2650000000	0.5068761472
2.2700000000	0.4464251239
2.2750000000	0.4616475450
2.2800000000	0.5494564252
2.2850000000	0.6612700297
2.2900000000	0.7431163320
2.2950000000	0.7793940358
2.3000000000	0.7835472005
2.3050000000	0.7710352968
2.3100000000	0.7545516417
2.3150000000	0.7399447906
2.3200000000	0.7295271048
2.3250000000	0.7245693648
2.3300000000	0.7261003464
2.3350000000	0.7349722244
2.3400000000	0.7519126988
2.3450000000	0.7776577973
2.3500000000	0.8129871260
2.3550000000	0.8590693247
2.3600000000	0.9151477071
2.3650000000	0.9815709673
2.3700000000	1.0581542324
2.3750000000	1.1457287418
2.3800000000	1.2474557644
2.3850000000	1.3670865009
2.3900000000	1.5054505036
2.3950000000	1.6563865786
2.4000000000	1.8040557428
2.4050000000	1.9313131171
2.4100000000	2.0018469483
2.4150000000	2.0085853198
2.4200000000	1.9687731173
2.4250000000	1.9118176480
2.4300000000	1.8638184204
2.4350000000	1.8405300299
2.4400000000	1.8482389641
2.4450000000	1.8879604391
2.4500000000	1.9598207797
2.4550000000	2.0654209857
2.4600000000	2.2115317927
2.4650000000	2.4050941396
2.4700000000	2.6538373567
2.4750000000	2.9625891873
2.4800000000	3.3289138611
2.4850000000	3.7371812269
2.4900000000	4.1516371467
2.4950000000	4.5129492556
2.5000000000	4.7468718053
2.5050000000	4.7769448534
2.5100000000	4.5726383617
2.5150000000	4.1897179356
2.5200000000	3.7172874564
2.5250000000	3.2336272116
2.5300000000	2.7864538417
2.5350000000	2.3958163134
2.5400000000	2.0646663202
2.5450000000	1.7880906556
2.5500000000	1.5589694681
2.5550000000	1.3709056098
2.5600000000	1.2136526475
2.5650000000	1.0959685201
2.5700000000	1.0114099923
2.5750000000	0.9569613867
2.5800000000	0.9265787599
2.5850000000	0.9119959777
2.5900000000	0.9054554050
2.5950000000	0.9021264166
2.6000000000	0.9004514650
2.6050000000	0.9076347065
2.6100000000	0.9190140696
2.6150000000	0.9363315664
2.6200000000	0.9605127190
2.6250000000	0.9916145471
2.6300000000	1.0287591558
2.6350000000	1.0700833084
2.6400000000	1.1127400611
2.6450000000	1.1531192918
2.6500000000	1.1873976951
2.6550000000	1.2124405894
2.6600000000	1.2267918941
2.6650000000	1.2313068994
2.6700000000	1.2289712675
2.6750000000	1.2241492919
2.6800000000	1.2210698933
2.6850000000	1.2236840808
2.6900000000	1.2347433371
2.6950000000	1.2559385592
2.7000000000	1.2880804485
2.7050000000	1.3361956856
2.7100000000	1.3981202305
2.7150000000	1.4728528140
2.7200000000	1.5583237788
2.7250000000	1.6510199105
2.7300000000	1.7456373974
2.7350000000	1.8350256076
2.7400000000	1.9106790809
2.7450000000	1.9639617774
2.7500000000	1.9879129972
2.7550000000	1.9790257350
2.7600000000	1.9381960352
2.7650000000	1.8703993401
2.7700000000	1.7832492507
2.7750000000	1.6851810657
2.7800000000	1.5839297749
2.7850000000	1.4856830063
2.7900000000	1.3940280609
2.7950000000	1.3128904479
2.8000000000	1.2430822120
2.8050000000	1.1784273851
2.8100000000	1.1274520874
2.8150000000	1.0881492605
2.8200000000	1.0583385709
2.8250000000	1.0360192607
2.8300000000	1.0194908597
2.8350000000	1.0073428898
2.8400000000	0.9983835310
2.8450000000	0.9916009125
2.8500000000	0.9861825181
2.8550000000	0.9815889543
2.8600000000	0.9776376502
2.8650000000	0.9745298187
2.8700000000	0.9727993698
2.8750000000	0.9731805831
2.8800000000	0.9764455580
2.8850000000	0.9832575173
2.8900000000	0.9940687425
2.8950000000	1.0090589405
2.9000000000	1.0281050030
2.9050000000	1.0565949061
2.9100000000	1.0878380233
2.9150000000	1.1197482844
2.9200000000	1.1496893417
2.9250000000	1.1748291140
2.9300000000	1.1925380883
2.9350000000	1.2008501869
2.9400000000	1.1988432405
2.9450000000	1.1868150674
2.9500000000	1.1661721060
2.9550000000	1.1390709353
2.9600000000	1.1079637444
2.9650000000	1.0751733069
2.9700000000	1.0426098437
2.9750000000	1.0116471602
2.9800000000	0.9831310516
2.9850000000	0.9574706389
2.9900000000	0.9347610495
2.9950000000	0.9149027039
3.0000000000	0.8976986387
