# energy (eV)    P(omega), $W$ = 300 nm, $h$ = 300 nm, $s$ = 20 nm, $d/W = 5$, $E_{\rm e}$ = 200 keV
0.2000000000	0.4027621227
0.2050000000	0.4087967009
0.2100000000	0.4144375489
0.2150000000	0.4196975147
0.2200000000	0.4245875927
0.2250000000	0.4291171091
0.2300000000	0.4332932100
0.2350000000	0.4371206298
0.2400000000	0.4406012026
0.2450000000	0.4437336261
0.2500000000	0.4465127740
0.2550000000	0.4489287848
0.2600000000	0.4509668449
0.2650000000	0.4526054351
0.2700000000	0.4538153754
0.2750000000	0.4545580009
0.2800000000	0.4547830974
0.2850000000	0.4544260984
0.2900000000	0.4534042976
0.2950000000	0.4516127361
0.3000000000	0.4489173544
0.3050000000	0.4451473027
0.3100000000	0.4400838671
0.3150000000	0.4651239060
0.3200000000	0.4948622577
0.3250000000	0.5324765244
0.3300000000	0.5828522425
0.3350000000	0.6455564925
0.3400000000	0.7276688113
0.3450000000	0.8272594562
0.3500000000	0.9575376215
0.3550000000	1.1299131425
0.3600000000	1.3549720485
0.3650000000	1.6687165663
0.3700000000	2.0823856793
0.3750000000	2.6577856583
0.3800000000	3.4899375945
0.3850000000	4.7865355353
0.3900000000	6.8347766297
0.3950000000	10.3137994834
0.4000000000	16.9457832669
0.4050000000	31.8139541932
0.4100000000	72.3819451292
0.4150000000	232.2795186092
0.4200000000	147.9981156646
0.4250000000	-278.5403349835
0.4300000000	77.4480780136
0.4350000000	48.2593159430
0.4400000000	29.4988060316
0.4450000000	19.4006317963
0.4500000000	13.5875724259
0.4550000000	10.0103736262
0.4600000000	7.6806356859
0.4650000000	6.0930985571
0.4700000000	4.9710790147
0.4750000000	4.1596220396
0.4800000000	3.5579982668
0.4850000000	3.1052901826
0.4900000000	2.7597199789
0.4950000000	2.4932427148
0.5000000000	2.2866886602
0.5050000000	2.1259936434
0.5100000000	2.0021009026
0.5150000000	1.9083422120
0.5200000000	1.8377503086
0.5250000000	1.7871837323
0.5300000000	1.7532726771
0.5350000000	1.7335519383
0.5400000000	1.7262039262
0.5450000000	1.7297105395
0.5500000000	1.7435897358
0.5550000000	1.7669853815
0.5600000000	1.7994589419
0.5650000000	1.8408128915
0.5700000000	1.8908667791
0.5750000000	1.9499698822
0.5800000000	2.0186902866
0.5850000000	2.0973980711
0.5900000000	2.1868118983
0.5950000000	2.2878363799
0.6000000000	2.4016237529
0.6050000000	2.5298452719
0.6100000000	2.6740944707
0.6150000000	2.8365493878
0.6200000000	3.0201154302
0.6250000000	3.2275779564
0.6300000000	3.4630545068
0.6350000000	3.7316769302
0.6400000000	4.0387844687
0.6450000000	4.3920849194
0.6500000000	4.8017121894
0.6550000000	5.2782149444
0.6600000000	5.8378070726
0.6650000000	6.5012915615
0.6700000000	7.2931255369
0.6750000000	8.2506038148
0.6800000000	9.4238817313
0.6850000000	10.8786597373
0.6900000000	12.7166961761
0.6950000000	15.0803058194
0.7000000000	18.1955572607
0.7050000000	22.4080462045
0.7100000000	28.3033384207
0.7150000000	36.9238022760
0.7200000000	50.2099936546
0.7250000000	72.2639244660
0.7300000000	112.7436749550
0.7350000000	199.3575363909
0.7400000000	436.8954847952
0.7450000000	1449.3584310333
0.7500000000	4490.0144959804
0.7550000000	1129.5341404749
0.7600000000	374.0669117353
0.7650000000	179.2274301842
0.7700000000	104.2298712974
0.7750000000	68.0263448062
0.7800000000	47.8719145514
0.7850000000	35.5536887190
0.7900000000	27.4675048365
0.7950000000	21.8907065249
0.8000000000	17.8817936990
0.8050000000	14.8960795189
0.8100000000	12.6193308199
0.8150000000	10.8145390776
0.8200000000	9.3901602527
0.8250000000	8.2432790063
0.8300000000	7.3038123030
0.8350000000	6.5314033750
0.8400000000	5.8839052972
0.8450000000	5.3405739566
0.8500000000	4.8813044656
0.8550000000	4.4849777331
0.8600000000	4.1466476403
0.8650000000	3.8576562421
0.8700000000	3.6023105708
0.8750000000	3.3851006879
0.8800000000	3.2007906684
0.8850000000	3.0355469305
0.8900000000	2.9029868850
0.8950000000	2.7823981616
0.9000000000	2.6868199560
0.9050000000	2.6209838781
0.9100000000	2.5606504446
0.9150000000	2.5240398159
0.9200000000	2.5196012663
0.9250000000	2.5163022088
0.9300000000	2.4793643017
0.9350000000	2.3685963333
0.9400000000	1.7516555986
0.9450000000	-1.0523800358
0.9500000000	-15.8501141236
0.9550000000	-90.9054047632
0.9600000000	21.4503389444
0.9650000000	37.6799267660
0.9700000000	16.7123260186
0.9750000000	8.7735575031
0.9800000000	5.4985324769
0.9850000000	3.9668025901
0.9900000000	3.0842601827
0.9950000000	2.5491101358
1.0000000000	2.2074157059
1.0050000000	1.9907876186
1.0100000000	1.8228494955
1.0150000000	1.7001603055
1.0200000000	1.6175210452
1.0250000000	1.5481595027
1.0300000000	1.4954673735
1.0350000000	1.4556073289
1.0400000000	1.4302662739
1.0450000000	1.4091974541
1.0500000000	1.3953017520
1.0550000000	1.3877561556
1.0600000000	1.3884199346
1.0650000000	1.3921179579
1.0700000000	1.4009603290
1.0750000000	1.4149836047
1.0800000000	1.4355725680
1.0850000000	1.4617011011
1.0900000000	1.5002418505
1.0950000000	1.5460104868
1.1000000000	1.6005420143
1.1050000000	1.6633927877
1.1100000000	1.7365471816
1.1150000000	1.8216503022
1.1200000000	1.9206514881
1.1250000000	2.0361023347
1.1300000000	2.1714165062
1.1350000000	2.3308450844
1.1400000000	2.5192281010
1.1450000000	2.7454063651
1.1500000000	3.0189888382
1.1550000000	3.3538693164
1.1600000000	3.7696492592
1.1650000000	4.2917612179
1.1700000000	4.9678537306
1.1750000000	5.8611752614
1.1800000000	7.0762896798
1.1850000000	8.7850707712
1.1900000000	11.3114378093
1.1950000000	15.2773532546
1.2000000000	22.0041306166
1.2050000000	34.7159613726
1.2100000000	62.6793769400
1.2150000000	138.2637242848
1.2200000000	339.3262694729
1.2250000000	304.8586284066
1.2300000000	121.6021689602
1.2350000000	57.0302029766
1.2400000000	32.5719352252
1.2450000000	21.3417893228
1.2500000000	15.4172337177
1.2550000000	11.9978169512
1.2600000000	9.9168121714
1.2650000000	8.6130040116
1.2700000000	7.8351694979
1.2750000000	7.4204203286
1.2800000000	7.2911843219
1.2850000000	7.4135422790
1.2900000000	7.7846740009
1.2950000000	8.4238598585
1.3000000000	9.4100776861
1.3050000000	10.8446011748
1.3100000000	12.9163025166
1.3150000000	15.9519933506
1.3200000000	20.5392170497
1.3250000000	27.7978094544
1.3300000000	40.1804111450
1.3350000000	63.3733855580
1.3400000000	112.9435749030
1.3450000000	236.0021719661
1.3500000000	500.8480465345
1.3550000000	467.1099494947
1.3600000000	215.4061102424
1.3650000000	105.8368571941
1.3700000000	60.6963292115
1.3750000000	39.0333956384
1.3800000000	27.2215995616
1.3850000000	20.1062948996
1.3900000000	15.5203772073
1.3950000000	12.3915373096
1.4000000000	10.1659081847
1.4050000000	8.5312123230
1.4100000000	7.2983022768
1.4150000000	6.3541643622
1.4200000000	5.6190383807
1.4250000000	5.0716222898
1.4300000000	4.7224230743
1.4350000000	4.4900122609
1.4400000000	3.0830116717
1.4450000000	-0.8119432663
1.4500000000	-7.5929138060
1.4550000000	-2.5398659146
1.4600000000	7.7128276220
1.4650000000	4.4707856957
1.4700000000	-2.8404827535
1.4750000000	-14.4022257512
1.4800000000	-6.3530664229
1.4850000000	10.8917353022
1.4900000000	8.8171603101
1.4950000000	5.7209167391
1.5000000000	4.0281309820
1.5050000000	3.1117132198
1.5100000000	2.5871289899
1.5150000000	2.2654917842
1.5200000000	2.0548253744
1.5250000000	1.9211216713
1.5300000000	1.8157629547
1.5350000000	1.7392391403
1.5400000000	1.6838213896
1.5450000000	1.6449017938
1.5500000000	1.6192988803
1.5550000000	1.6056889303
1.5600000000	1.6068269783
1.5650000000	1.6171799893
1.5700000000	1.6426870432
1.5750000000	1.6880327983
1.5800000000	1.7625412223
1.5850000000	1.8845691327
1.5900000000	2.0929467603
1.5950000000	2.4735092304
1.6000000000	3.2071235533
1.6050000000	4.4110214237
1.6100000000	4.9718783830
1.6150000000	3.9563719255
1.6200000000	3.0149996620
1.6250000000	2.5364279796
1.6300000000	2.3166550052
1.6350000000	2.2258999334
1.6400000000	2.2053817771
1.6450000000	2.2282122576
1.6500000000	2.2813039567
1.6550000000	2.3592694516
1.6600000000	2.4593650346
1.6650000000	2.5812107396
1.6700000000	2.7258105966
1.6750000000	2.8952456696
1.6800000000	3.0925650008
1.6850000000	3.3218396870
1.6900000000	3.5878073699
1.6950000000	3.8932291307
1.7000000000	4.2448629376
1.7050000000	4.6518166563
1.7100000000	5.1450873598
1.7150000000	5.9733468094
1.7200000000	7.2238877377
1.7250000000	8.5766368242
1.7300000000	10.1856945207
1.7350000000	11.9263817408
1.7400000000	13.5327190081
1.7450000000	15.5569696466
1.7500000000	18.6604102007
1.7550000000	23.3155133381
1.7600000000	30.2998206688
1.7650000000	41.0748987417
1.7700000000	58.4323406005
1.7750000000	87.6672422116
1.7800000000	137.4590787162
1.7850000000	210.8322409418
1.7900000000	261.8322821829
1.7950000000	222.7758361809
1.8000000000	148.1195344721
1.8050000000	93.4313494503
1.8100000000	61.5153918481
1.8150000000	42.8133794477
1.8200000000	31.3048068684
1.8250000000	23.8424580625
1.8300000000	18.7730217870
1.8350000000	15.1909396703
1.8400000000	12.5764520410
1.8450000000	10.6138668201
1.8500000000	9.1040212662
1.8550000000	7.9220437905
1.8600000000	6.9801004573
1.8650000000	6.2178172649
1.8700000000	5.5911991353
1.8750000000	5.0664960316
1.8800000000	4.6149761321
1.8850000000	4.2086218484
1.8900000000	3.8127519552
1.8950000000	3.3748308067
1.9000000000	2.8058433816
1.9050000000	1.8153586664
1.9100000000	0.3929043162
1.9150000000	-0.9774747270
1.9200000000	0.6712873985
1.9250000000	7.2763977880
1.9300000000	12.5528971901
1.9350000000	12.6723742797
1.9400000000	10.1737506048
1.9450000000	7.7117196538
1.9500000000	5.9666166035
1.9550000000	4.8122479311
1.9600000000	4.0429532558
1.9650000000	3.5303566294
1.9700000000	3.1529763075
1.9750000000	2.8762482909
1.9800000000	2.6662210130
1.9850000000	2.4985477507
1.9900000000	2.3551083793
1.9950000000	2.2205450924
2.0000000000	2.0920942444
2.0050000000	2.0157499757
2.0100000000	2.0671199801
2.0150000000	2.2010461591
2.0200000000	2.2915910140
2.0250000000	2.3310469065
2.0300000000	2.3612174327
2.0350000000	2.4014413457
2.0400000000	2.4611417681
2.0450000000	2.5443297989
2.0500000000	2.6550892868
2.0550000000	2.7974818063
2.0600000000	2.9717381610
2.0650000000	3.1639229963
2.0700000000	3.3393512675
2.0750000000	3.4709311778
2.0800000000	3.5787852605
2.0850000000	3.7066557478
2.0900000000	3.8823571073
2.0950000000	4.1155175586
2.1000000000	4.4134885563
2.1050000000	4.7717598866
2.1100000000	5.2152936033
2.1150000000	5.7619768792
2.1200000000	6.4375437461
2.1250000000	7.2785103131
2.1300000000	8.3366220965
2.1350000000	9.6859148000
2.1400000000	11.4333190772
2.1450000000	13.7351354557
2.1500000000	16.8189724264
2.1550000000	21.0067579725
2.1600000000	26.7103733559
2.1650000000	34.2788584748
2.1700000000	43.5791396472
2.1750000000	52.8529572714
2.1800000000	58.6770722151
2.1850000000	59.2231477573
2.1900000000	57.0124743240
2.1950000000	55.4445138541
2.2000000000	54.8969295930
2.2050000000	52.3167734851
2.2100000000	46.3978817177
2.2150000000	38.9502472843
2.2200000000	32.1759814404
2.2250000000	26.6872404306
2.2300000000	22.1824646517
2.2350000000	18.4135747060
2.2400000000	15.3196680245
2.2450000000	12.8768281214
2.2500000000	10.9837012179
2.2550000000	9.5183826119
2.2600000000	8.3680958806
2.2650000000	7.4312320448
2.2700000000	6.6116618495
2.2750000000	5.8282068118
2.2800000000	5.0621061835
2.2850000000	4.4069152816
2.2900000000	4.0218664515
2.2950000000	3.9782513838
2.3000000000	4.1529809665
2.3050000000	4.3370056935
2.3100000000	4.4021539352
2.3150000000	4.3524763823
2.3200000000	4.2433980687
2.3250000000	4.1318809272
2.3300000000	4.0481662053
2.3350000000	4.0010932526
2.3400000000	3.9840433633
2.3450000000	3.9777343342
2.3500000000	3.9573259422
2.3550000000	3.9069497240
2.3600000000	3.8309958810
2.3650000000	3.7488200451
2.3700000000	3.6800931753
2.3750000000	3.6357439895
2.3800000000	3.6175156802
2.3850000000	3.6209966121
2.3900000000	3.6405565801
2.3950000000	3.6708045957
2.4000000000	3.7144289489
2.4050000000	3.7828286193
2.4100000000	3.8808580774
2.4150000000	4.0152119570
2.4200000000	4.1905039727
2.4250000000	4.4116772251
2.4300000000	4.6847934712
2.4350000000	5.0176225305
2.4400000000	5.4201657112
2.4450000000	5.9052477552
2.4500000000	6.4891231338
2.4550000000	7.1922996943
2.4600000000	8.0399981955
2.4650000000	9.0626201605
2.4700000000	10.2951557681
2.4750000000	11.7728841512
2.4800000000	13.5330467213
2.4850000000	15.5911206653
2.4900000000	17.9278430421
2.4950000000	20.4579860670
2.5000000000	22.9975070267
2.5050000000	25.3512025821
2.5100000000	26.8943976667
2.5150000000	27.2767040436
2.5200000000	26.4396171684
2.5250000000	24.6427677028
2.5300000000	22.2986062147
2.5350000000	19.7812414295
2.5400000000	17.3375133489
2.5450000000	15.0961985381
2.5500000000	13.1091341623
2.5550000000	11.3852137915
2.5600000000	9.8998443497
2.5650000000	8.6476277550
2.5700000000	7.6019850877
2.5750000000	6.7468562703
2.5800000000	6.0699626841
2.5850000000	5.5568129680
2.5900000000	5.1820646023
2.5950000000	4.9093424502
2.6000000000	4.7006247336
2.6050000000	4.5516968871
2.6100000000	4.4196505949
2.6150000000	4.3027148626
2.6200000000	4.2036357663
2.6250000000	4.1252266669
2.6300000000	4.0692909953
2.6350000000	4.0366915293
2.6400000000	4.0278843963
2.6450000000	4.0433320764
2.6500000000	4.0839853469
2.6550000000	4.1500571090
2.6600000000	4.2429986410
2.6650000000	4.3641896305
2.6700000000	4.5152567175
2.6750000000	4.6981009631
2.6800000000	4.9147543614
2.6850000000	5.1672999164
2.6900000000	5.4575801089
2.6950000000	5.7870069502
2.7000000000	6.1561036257
2.7050000000	6.6080636994
2.7100000000	7.1085404447
2.7150000000	7.6514387782
2.7200000000	8.2265085911
2.7250000000	8.8191667734
2.7300000000	9.4105239323
2.7350000000	9.9774477646
2.7400000000	10.4924096127
2.7450000000	10.9279310797
2.7500000000	11.2432137413
2.7550000000	11.4112468462
2.7600000000	11.4116321686
2.7650000000	11.2398746086
2.7700000000	10.9096629505
2.7750000000	10.4505590105
2.7800000000	9.9015794822
2.7850000000	9.3042224726
2.7900000000	8.6956651734
2.7950000000	8.1057049334
2.8000000000	7.5554253613
2.8050000000	6.9964851252
2.8100000000	6.5153272474
2.8150000000	6.1108726808
2.8200000000	5.7768026671
2.8250000000	5.5047164378
2.8300000000	5.2861407541
2.8350000000	5.1138627259
2.8400000000	4.9802113909
2.8450000000	4.8856507772
2.8500000000	4.8245471239
2.8550000000	4.7947683605
2.8600000000	4.7947443918
2.8650000000	4.8231435091
2.8700000000	4.8786670079
2.8750000000	4.9598313354
2.8800000000	5.0648286773
2.8850000000	5.1913651526
2.8900000000	5.3366999631
2.8950000000	5.4975912902
2.9000000000	5.6704648628
2.9050000000	5.8891142809
2.9100000000	6.1076652167
2.9150000000	6.3183115746
2.9200000000	6.5120872684
2.9250000000	6.6786471662
2.9300000000	6.8083526743
2.9350000000	6.8876924690
2.9400000000	6.9102243726
2.9450000000	6.8728004095
2.9500000000	6.7779901008
2.9550000000	6.6338575569
2.9600000000	6.4523997162
2.9650000000	6.2474305645
2.9700000000	6.0324587032
2.9750000000	5.8191345974
2.9800000000	5.6164670042
2.9850000000	5.4306820134
2.9900000000	5.2656146932
2.9950000000	5.1231268245
3.0000000000	5.0037575372
