# energy (eV)    P(omega), $W$ = 300 nm, $h$ = 300 nm, $s$ = 20 nm, $d/W = 5$, $E_{\rm e}$ = 200 keV
0.2000000000	0.1272778300
0.2050000000	0.1291848759
0.2100000000	0.1309678015
0.2150000000	0.1326306533
0.2200000000	0.1341768870
0.2250000000	0.1356094365
0.2300000000	0.1369305444
0.2350000000	0.1381416977
0.2400000000	0.1392434617
0.2450000000	0.1402354184
0.2500000000	0.1411159359
0.2550000000	0.1418818926
0.2600000000	0.1425286025
0.2650000000	0.1430492574
0.2700000000	0.1434346360
0.2750000000	0.1436725149
0.2800000000	0.1437470269
0.2850000000	0.1436377692
0.2900000000	0.1433186094
0.2950000000	0.1427563867
0.3000000000	0.1419087425
0.3050000000	0.1407216994
0.3100000000	0.1391261528
0.3150000000	0.1470372332
0.3200000000	0.1564326709
0.3250000000	0.1683161536
0.3300000000	0.1842309477
0.3350000000	0.2040407221
0.3400000000	0.2299819439
0.3450000000	0.2614456883
0.3500000000	0.3026049463
0.3550000000	0.3570648374
0.3600000000	0.4281706836
0.3650000000	0.5272973893
0.3700000000	0.6579981515
0.3750000000	0.8398020253
0.3800000000	1.1027342458
0.3850000000	1.5124223407
0.3900000000	2.1596207374
0.3950000000	3.2589348573
0.4000000000	5.3545690763
0.4050000000	10.0528283750
0.4100000000	22.8723251200
0.4150000000	73.4009506811
0.4200000000	46.7674304294
0.4250000000	-88.0241417597
0.4300000000	24.4761577623
0.4350000000	15.2520141484
0.4400000000	9.3232083414
0.4450000000	6.1318658812
0.4500000000	4.2947246087
0.4550000000	3.1641801072
0.4600000000	2.4278751357
0.4650000000	1.9261331407
0.4700000000	1.5715143578
0.4750000000	1.3150479306
0.4800000000	1.1248997218
0.4850000000	0.9818175100
0.4900000000	0.8725977312
0.4950000000	0.7883769044
0.5000000000	0.7230965343
0.5050000000	0.6723116471
0.5100000000	0.6331599047
0.5150000000	0.6035339469
0.5200000000	0.5812315580
0.5250000000	0.5652600856
0.5300000000	0.5545544240
0.5350000000	0.5483355145
0.5400000000	0.5460289871
0.5450000000	0.5471550398
0.5500000000	0.5515615955
0.5550000000	0.5589781168
0.5600000000	0.5692662155
0.5650000000	0.5823636265
0.5700000000	0.5982135501
0.5750000000	0.6169266635
0.5800000000	0.6386829205
0.5850000000	0.6635996435
0.5900000000	0.6919044436
0.5950000000	0.7238837344
0.6000000000	0.7599023549
0.6050000000	0.8004892903
0.6100000000	0.8461490945
0.6150000000	0.8975712174
0.6200000000	0.9556753693
0.6250000000	1.0213433072
0.6300000000	1.0958783999
0.6350000000	1.1809051128
0.6400000000	1.2781136498
0.6450000000	1.3899438363
0.6500000000	1.5196035519
0.6550000000	1.6704320404
0.6600000000	1.8475617378
0.6650000000	2.0575779011
0.6700000000	2.3082225886
0.6750000000	2.6113016818
0.6800000000	2.9826918933
0.6850000000	3.4431911262
0.6900000000	4.0250117701
0.6950000000	4.7732050966
0.7000000000	5.7593351972
0.7050000000	7.0928042738
0.7100000000	8.9589806497
0.7150000000	11.6878404158
0.7200000000	15.8936956325
0.7250000000	22.8751064830
0.7300000000	35.6895066328
0.7350000000	63.1084924452
0.7400000000	138.3054950342
0.7450000000	458.8221651342
0.7500000000	1421.4219104788
0.7550000000	357.5866230299
0.7600000000	118.4234831680
0.7650000000	56.7413422379
0.7700000000	32.9984779814
0.7750000000	21.5370081686
0.7800000000	15.1563825589
0.7850000000	11.2565661307
0.7900000000	8.6965488468
0.7950000000	6.9309689199
0.8000000000	5.6617627415
0.8050000000	4.7164906809
0.8100000000	3.9956707068
0.8150000000	3.4242677821
0.8200000000	2.9733020605
0.8250000000	2.6101911116
0.8300000000	2.3127472822
0.8350000000	2.0681941773
0.8400000000	1.8631880704
0.8450000000	1.6911617837
0.8500000000	1.5457502641
0.8550000000	1.4202666029
0.8600000000	1.3131455142
0.8650000000	1.2216460626
0.8700000000	1.1407989904
0.8750000000	1.0720269207
0.8800000000	1.0136722064
0.8850000000	0.9613540226
0.8900000000	0.9193856423
0.8950000000	0.8812073380
0.9000000000	0.8509493239
0.9050000000	0.8301107203
0.9100000000	0.8110141034
0.9150000000	0.7994308650
0.9200000000	0.7980377099
0.9250000000	0.7970048002
0.9300000000	0.7853147175
0.9350000000	0.7502338699
0.9400000000	0.5547972823
0.9450000000	-0.3335186367
0.9500000000	-5.0215188787
0.9550000000	-28.7997519104
0.9600000000	6.7957215635
0.9650000000	11.9376314270
0.9700000000	5.2947831623
0.9750000000	2.7796337251
0.9800000000	1.7420361391
0.9850000000	1.2567495269
0.9900000000	0.9771381914
0.9950000000	0.8075887001
1.0000000000	0.6993308900
1.0050000000	0.6306980515
1.0100000000	0.5774906085
1.0150000000	0.5386191647
1.0200000000	0.5124371091
1.0250000000	0.4904610673
1.0300000000	0.4737661921
1.0350000000	0.4611365989
1.0400000000	0.4531071901
1.0450000000	0.4464306321
1.0500000000	0.4420263761
1.0550000000	0.4396336236
1.0600000000	0.4398417081
1.0650000000	0.4410103139
1.0700000000	0.4438081852
1.0750000000	0.4482469392
1.0800000000	0.4547654044
1.0850000000	0.4630376308
1.0900000000	0.4752403952
1.0950000000	0.4897318773
1.1000000000	0.5069983160
1.1050000000	0.5268983670
1.1100000000	0.5500606165
1.1150000000	0.5770058681
1.1200000000	0.6083515336
1.1250000000	0.6449045232
1.1300000000	0.6877458312
1.1350000000	0.7382211416
1.1400000000	0.7978628861
1.1450000000	0.8694688272
1.1500000000	0.9560810316
1.1550000000	1.0620974619
1.1600000000	1.1937228272
1.1650000000	1.3590080597
1.1700000000	1.5730350410
1.1750000000	1.8558250476
1.1800000000	2.2404766862
1.1850000000	2.7813954453
1.1900000000	3.5811171833
1.1950000000	4.8365183327
1.2000000000	6.9658552841
1.2050000000	10.9897355039
1.2100000000	19.8414614435
1.2150000000	43.7675849380
1.2200000000	107.4144041933
1.2250000000	96.5052816538
1.2300000000	38.4954743886
1.2350000000	18.0550482987
1.2400000000	10.3127190173
1.2450000000	6.7578371385
1.2500000000	4.8824967697
1.2550000000	3.8002048241
1.2600000000	3.1416311586
1.2650000000	2.7291235790
1.2700000000	2.4831684812
1.2750000000	2.3522117874
1.2800000000	2.3117141218
1.2850000000	2.3509607338
1.2900000000	2.4690921092
1.2950000000	2.6722530859
1.3000000000	2.9855243095
1.3050000000	3.4410703153
1.3100000000	4.0988552542
1.3150000000	5.0626305603
1.3200000000	6.5189132396
1.3250000000	8.8232023671
1.3300000000	12.7540777104
1.3350000000	20.1166752511
1.3400000000	35.8526949929
1.3450000000	74.9176603385
1.3500000000	158.9935548589
1.3550000000	148.2845890244
1.3600000000	68.3811999511
1.3650000000	33.5982051876
1.3700000000	19.2681957194
1.3750000000	12.3912111123
1.3800000000	8.6415055885
1.3850000000	6.3827236282
1.3900000000	4.9269122190
1.3950000000	3.9336585117
1.4000000000	3.2271403097
1.4050000000	2.7082244889
1.4100000000	2.3168718358
1.4150000000	2.0172179750
1.4200000000	1.7839657027
1.4250000000	1.6104082873
1.4300000000	1.5000256665
1.4350000000	1.4271126845
1.4400000000	0.9811515215
1.4450000000	-0.2542675921
1.4500000000	-2.4039135719
1.4550000000	-0.8032104499
1.4600000000	2.4451572661
1.4650000000	1.4164816605
1.4700000000	-0.9037886056
1.4750000000	-4.5743393616
1.4800000000	-2.0180906399
1.4850000000	3.4579379622
1.4900000000	2.7993074827
1.4950000000	1.8162023822
1.5000000000	1.2787218971
1.5050000000	0.9877562690
1.5100000000	0.8211998295
1.5150000000	0.7190812728
1.5200000000	0.6521959383
1.5250000000	0.6097439489
1.5300000000	0.5762916718
1.5350000000	0.5519926041
1.5400000000	0.5343924986
1.5450000000	0.5220280431
1.5500000000	0.5138878903
1.5550000000	0.5095510336
1.5600000000	0.5098902621
1.5650000000	0.5131470030
1.5700000000	0.5212024022
1.5750000000	0.5355368759
1.5800000000	0.5590981959
1.5850000000	0.5976906925
1.5900000000	0.6635933320
1.5950000000	0.7839509155
1.6000000000	1.0159686654
1.6050000000	1.3967606836
1.6100000000	1.5742892556
1.6150000000	1.2532771557
1.6200000000	0.9556387159
1.6250000000	0.8043453662
1.6300000000	0.7349039410
1.6350000000	0.7062763238
1.6400000000	0.6998741907
1.6450000000	0.7071949611
1.6500000000	0.7241000006
1.6550000000	0.7488886508
1.6600000000	0.7806943635
1.6650000000	0.8193994355
1.6700000000	0.8653243680
1.6750000000	0.9191307971
1.6800000000	0.9817868008
1.6850000000	1.0545846772
1.6900000000	1.1390264155
1.6950000000	1.2359829001
1.7000000000	1.3475895709
1.7050000000	1.4767126060
1.7100000000	1.6332098679
1.7150000000	1.8962965727
1.7200000000	2.2937010321
1.7250000000	2.7232467907
1.7300000000	3.2339784381
1.7350000000	3.7865578643
1.7400000000	4.2966894184
1.7450000000	4.9396094611
1.7500000000	5.9251830942
1.7550000000	7.4034401826
1.7600000000	9.6213065490
1.7650000000	13.0429147276
1.7700000000	18.5547456054
1.7750000000	27.8382829624
1.7800000000	43.6497543327
1.7850000000	66.9497130927
1.7900000000	83.1454129825
1.7950000000	70.7435294241
1.8000000000	47.0364725788
1.8050000000	29.6701047620
1.8100000000	19.5350558074
1.8150000000	13.5961243502
1.8200000000	9.9415011657
1.8250000000	7.5717783294
1.8300000000	5.9619419481
1.8350000000	4.8244280878
1.8400000000	3.9941845849
1.8450000000	3.3709624375
1.8500000000	2.8915168002
1.8550000000	2.5161944461
1.8600000000	2.2171049392
1.8650000000	1.9750777008
1.8700000000	1.7761444347
1.8750000000	1.6095914008
1.8800000000	1.4663000984
1.8850000000	1.3373813249
1.8900000000	1.2118345146
1.8950000000	1.0729956345
1.9000000000	0.8926282664
1.9050000000	0.5785828914
1.9100000000	0.1276188466
1.9150000000	-0.3063781670
1.9200000000	0.2190734911
1.9250000000	2.3191762359
1.9300000000	3.9967993804
1.9350000000	4.0341965274
1.9400000000	3.2383608025
1.9450000000	2.4542621489
1.9500000000	1.8985222093
1.9550000000	1.5309285491
1.9600000000	1.2859703559
1.9650000000	1.1227449534
1.9700000000	1.0025918976
1.9750000000	0.9144857197
1.9800000000	0.8476137656
1.9850000000	0.7942218945
1.9900000000	0.7485379296
1.9950000000	0.7056688321
2.0000000000	0.6647352826
2.0050000000	0.6403941640
2.0100000000	0.6567552662
2.0150000000	0.6994233806
2.0200000000	0.7282505778
2.0250000000	0.7407780810
2.0300000000	0.7503285500
2.0350000000	0.7630664712
2.0400000000	0.7819894123
2.0450000000	0.8083692292
2.0500000000	0.8434986240
2.0550000000	0.8886630367
2.0600000000	0.9439358799
2.0650000000	1.0049062925
2.0700000000	1.0605947193
2.0750000000	1.1024270273
2.0800000000	1.1367782688
2.0850000000	1.1775021547
2.0900000000	1.2334107262
2.0950000000	1.3075585741
2.1000000000	1.4022852919
2.1050000000	1.5161630164
2.1100000000	1.6571260470
2.1150000000	1.8308612891
2.1200000000	2.0455479210
2.1250000000	2.3127915435
2.1300000000	2.6490362807
2.1350000000	3.0778100954
2.1400000000	3.6330939358
2.1450000000	4.3645575043
2.1500000000	5.3445319166
2.1550000000	6.6753216704
2.1600000000	8.4878188084
2.1650000000	10.8929477984
2.1700000000	13.8484226173
2.1750000000	16.7954858097
2.1800000000	18.6462446272
2.1850000000	18.8196086887
2.1900000000	18.1167818435
2.1950000000	17.6181291723
2.2000000000	17.4438711508
2.2050000000	16.6242164325
2.2100000000	14.7441902469
2.2150000000	12.3787138752
2.2200000000	10.2271899302
2.2250000000	8.4837981667
2.2300000000	7.0525098385
2.2350000000	5.8546031320
2.2400000000	4.8710110369
2.2450000000	4.0943411265
2.2500000000	3.4924665050
2.2550000000	3.0266569771
2.2600000000	2.6610583833
2.2650000000	2.3633512021
2.2700000000	2.1029404701
2.2750000000	1.8539687473
2.2800000000	1.6104279658
2.2850000000	1.4020525418
2.2900000000	1.2794926556
2.2950000000	1.2654546377
2.3000000000	1.3208442768
2.3050000000	1.3792184689
2.3100000000	1.3998450935
2.3150000000	1.3840053347
2.3200000000	1.3493107112
2.3250000000	1.3138619654
2.3300000000	1.2872684284
2.3350000000	1.2723352409
2.3400000000	1.2669512148
2.3450000000	1.2649747870
2.3500000000	1.2584952196
2.3550000000	1.2424589198
2.3600000000	1.2182640067
2.3650000000	1.1920747139
2.3700000000	1.1701563460
2.3750000000	1.1559912558
2.3800000000	1.1501385830
2.3850000000	1.1511994653
2.3900000000	1.1573869761
2.3950000000	1.1669886492
2.4000000000	1.1808572940
2.4050000000	1.2026133291
2.4100000000	1.2337957450
2.4150000000	1.2765291787
2.4200000000	1.3322784684
2.4250000000	1.4026144051
2.4300000000	1.4894645953
2.4350000000	1.5953003317
2.4400000000	1.7233021189
2.4450000000	1.8775482285
2.4500000000	2.0632075556
2.4550000000	2.2868016253
2.4600000000	2.5563499185
2.4650000000	2.8815197389
2.4700000000	3.2734360500
2.4750000000	3.7433159781
2.4800000000	4.3029975009
2.4850000000	4.9573977022
2.4900000000	5.7003862296
2.4950000000	6.5048610308
2.5000000000	7.3123100658
2.5050000000	8.0606817957
2.5100000000	8.5513863487
2.5150000000	8.6730251747
2.5200000000	8.4069754254
2.5250000000	7.8357500095
2.5300000000	7.0904614294
2.5350000000	6.2900564721
2.5400000000	5.5130345778
2.5450000000	4.8003596981
2.5500000000	4.1685274573
2.5550000000	3.6203710881
2.5600000000	3.1480714298
2.5650000000	2.7499088439
2.5700000000	2.4174292491
2.5750000000	2.1455244451
2.5800000000	1.9302892587
2.5850000000	1.7671156857
2.5900000000	1.6479464867
2.5950000000	1.5612174716
2.6000000000	1.4948405577
2.6050000000	1.4474776251
2.6100000000	1.4054860549
2.6150000000	1.3683025291
2.6200000000	1.3367998840
2.6250000000	1.3118729025
2.6300000000	1.2940953979
2.6350000000	1.2837422830
2.6400000000	1.2809584934
2.6450000000	1.2858911354
2.6500000000	1.2988424613
2.6550000000	1.3198800972
2.6600000000	1.3494658066
2.6650000000	1.3880388215
2.6700000000	1.4361166321
2.6750000000	1.4943042053
2.6800000000	1.5632482712
2.6850000000	1.6436110647
2.6900000000	1.7359783292
2.6950000000	1.8407983669
2.7000000000	1.9582361291
2.7050000000	2.1020327389
2.7100000000	2.2612555558
2.7150000000	2.4339613351
2.7200000000	2.6168849507
2.7250000000	2.8053832362
2.7300000000	2.9934459749
2.7350000000	3.1737166998
2.7400000000	3.3374443785
2.7450000000	3.4758966628
2.7500000000	3.5761065333
2.7550000000	3.6294908166
2.7600000000	3.6295675298
2.7650000000	3.5749092380
2.7700000000	3.4698693812
2.7750000000	3.3238478546
2.7800000000	3.1492507313
2.7850000000	2.9592732877
2.7900000000	2.7657369192
2.7950000000	2.5781169022
2.8000000000	2.4031176526
2.8050000000	2.2253641066
2.8100000000	2.0723485077
2.8150000000	1.9437283173
2.8200000000	1.8374941193
2.8250000000	1.7509745538
2.8300000000	1.6814752646
2.8350000000	1.6267026343
2.8400000000	1.5842170019
2.8450000000	1.5541666321
2.8500000000	1.5347593838
2.8550000000	1.5253175191
2.8600000000	1.5253413102
2.8650000000	1.5344069071
2.8700000000	1.5521008650
2.8750000000	1.5779510284
2.8800000000	1.6113809144
2.8850000000	1.6516597514
2.8900000000	1.6979151904
2.8950000000	1.7491138002
2.9000000000	1.8041184225
2.9050000000	1.8736740547
2.9100000000	1.9431890220
2.9150000000	2.0101813391
2.9200000000	2.0718013341
2.9250000000	2.1247608075
2.9300000000	2.1659965253
2.9350000000	2.1912126886
2.9400000000	2.1983619597
2.9450000000	2.1864441846
2.9500000000	2.1562766974
2.9550000000	2.1104249485
2.9600000000	2.0527046885
2.9650000000	1.9875090983
2.9700000000	1.9191349992
2.9750000000	1.8512874948
2.9800000000	1.7868316305
2.9850000000	1.7277473980
2.9900000000	1.6752547383
2.9950000000	1.6299453457
3.0000000000	1.5919907056
