# energy (eV)    P(omega), $W$ = 400 nm, $h$ = 300 nm, $s$ = 20 nm, $d/W = 5$, $E_{\rm e}$ = 200 keV
0.2000000000	0.0566240580
0.2050000000	0.0571391313
0.2100000000	0.0575017463
0.2150000000	0.0577057964
0.2200000000	0.0577427416
0.2250000000	0.0576009801
0.2300000000	0.0572652453
0.2350000000	0.0567156598
0.2400000000	0.0559266592
0.2450000000	0.0548652971
0.2500000000	0.0534894502
0.2550000000	0.0517449187
0.2600000000	0.0495618572
0.2650000000	0.0518490417
0.2700000000	0.0576589584
0.2750000000	0.0659727591
0.2800000000	0.0775562164
0.2850000000	0.0946332342
0.2900000000	0.1157927989
0.2950000000	0.1461267573
0.3000000000	0.1869041537
0.3050000000	0.2494060583
0.3100000000	0.3364690385
0.3150000000	0.5049318807
0.3200000000	0.7680374430
0.3250000000	0.9481690931
0.3300000000	1.1973488920
0.3350000000	1.5505964231
0.3400000000	2.1051230990
0.3450000000	3.0565119644
0.3500000000	4.9536619422
0.3550000000	9.3453226835
0.3600000000	22.9672294627
0.3650000000	0.1038290795
0.3700000000	10.6444324130
0.3750000000	13.9969914024
0.3800000000	6.5220972306
0.3850000000	3.6739456789
0.3900000000	2.3565038470
0.3950000000	1.6605739025
0.4000000000	1.2576312392
0.4050000000	0.9949410947
0.4100000000	0.8239240126
0.4150000000	0.7111286658
0.4200000000	0.6398394443
0.4250000000	0.5838507466
0.4300000000	0.5176927920
0.4350000000	0.4653326706
0.4400000000	0.4239216339
0.4450000000	0.3909949169
0.4500000000	0.3649993684
0.4550000000	0.3443855313
0.4600000000	0.3283049222
0.4650000000	0.3158601364
0.4700000000	0.3064570758
0.4750000000	0.2996800669
0.4800000000	0.2951663743
0.4850000000	0.2925979395
0.4900000000	0.2917866683
0.4950000000	0.2925878489
0.5000000000	0.2948778288
0.5050000000	0.2986014886
0.5100000000	0.3037136732
0.5150000000	0.3101875408
0.5200000000	0.3180365008
0.5250000000	0.3272715456
0.5300000000	0.3380282583
0.5350000000	0.3503669026
0.5400000000	0.3643960107
0.5450000000	0.3802579155
0.5500000000	0.3981539942
0.5550000000	0.4183045241
0.5600000000	0.4409776174
0.5650000000	0.4665180436
0.5700000000	0.4954017398
0.5750000000	0.5279814483
0.5800000000	0.5649171988
0.5850000000	0.6071108110
0.5900000000	0.6551705591
0.5950000000	0.7103764385
0.6000000000	0.7744194853
0.6050000000	0.8485670735
0.6100000000	0.9357245385
0.6150000000	1.0383011231
0.6200000000	1.1604326288
0.6250000000	1.3080525387
0.6300000000	1.4872119373
0.6350000000	1.7092814369
0.6400000000	1.9868057599
0.6450000000	2.3425491979
0.6500000000	2.8055906444
0.6550000000	3.4251869236
0.6600000000	4.2845072243
0.6650000000	5.5149512892
0.6700000000	7.3781348430
0.6750000000	10.3738487481
0.6800000000	15.6693304107
0.6850000000	26.2950423859
0.6900000000	52.6993308869
0.6950000000	147.9345065530
0.7000000000	717.4930285497
0.7050000000	348.8260610487
0.7100000000	89.6059282021
0.7150000000	38.1054185780
0.7200000000	20.8098223792
0.7250000000	13.0722683272
0.7300000000	8.9657565738
0.7350000000	6.5381958505
0.7400000000	4.9836758339
0.7450000000	3.9285302135
0.7500000000	3.1810856553
0.7550000000	2.6319604416
0.7600000000	2.2180728695
0.7650000000	1.8971092932
0.7700000000	1.6437416825
0.7750000000	1.4403350868
0.7800000000	1.2750401582
0.7850000000	1.1389368348
0.7900000000	1.0249139500
0.7950000000	0.9296839537
0.8000000000	0.8487128377
0.8050000000	0.7793413914
0.8100000000	0.7202854977
0.8150000000	0.6685255273
0.8200000000	0.6234629655
0.8250000000	0.5856475492
0.8300000000	0.5525465303
0.8350000000	0.5237699827
0.8400000000	0.5008535919
0.8450000000	0.4808577754
0.8500000000	0.4639033739
0.8550000000	0.4531862621
0.8600000000	0.4446015156
0.8650000000	0.4384545253
0.8700000000	0.4405929063
0.8750000000	0.4413411745
0.8800000000	0.4389647625
0.8850000000	0.4198782102
0.8900000000	0.3258428241
0.8950000000	-0.1454131605
0.9000000000	-2.6724087043
0.9050000000	-17.5597528978
0.9100000000	3.3437227485
0.9150000000	7.9206350700
0.9200000000	3.2880077558
0.9250000000	1.7105184410
0.9300000000	1.0441437660
0.9350000000	0.7257725381
0.9400000000	0.5540253759
0.9450000000	0.4588273845
0.9500000000	0.3912220950
0.9550000000	0.3459685072
0.9600000000	0.3179819204
0.9650000000	0.2948907045
0.9700000000	0.2784149877
0.9750000000	0.2671883929
0.9800000000	0.2603565239
0.9850000000	0.2591105376
0.9900000000	0.2616151978
0.9950000000	0.2717010196
1.0000000000	0.2958027226
1.0050000000	0.3520637287
1.0100000000	0.4995028786
1.0150000000	1.0048123157
1.0200000000	1.9298910923
1.0250000000	0.8772173274
1.0300000000	0.4491700577
1.0350000000	0.3215920509
1.0400000000	0.2714217785
1.0450000000	0.2478839427
1.0500000000	0.2360826457
1.0550000000	0.2298888696
1.0600000000	0.2271052402
1.0650000000	0.2265786039
1.0700000000	0.2276696359
1.0750000000	0.2301530198
1.0800000000	0.2335826142
1.0850000000	0.2382517019
1.0900000000	0.2450001614
1.0950000000	0.2528683053
1.1000000000	0.2619331724
1.1050000000	0.2722110213
1.1100000000	0.2838644810
1.1150000000	0.2970485856
1.1200000000	0.3119473533
1.1250000000	0.3287130732
1.1300000000	0.3477800715
1.1350000000	0.3694411380
1.1400000000	0.3941347021
1.1450000000	0.4224183013
1.1500000000	0.4547258195
1.1550000000	0.4924081458
1.1600000000	0.5363195239
1.1650000000	0.5875788096
1.1700000000	0.6464176843
1.1750000000	0.7060890823
1.1800000000	0.7625531098
1.1850000000	1.0598492925
1.1900000000	1.3152853344
1.1950000000	1.8030710417
1.2000000000	2.4556722396
1.2050000000	2.1540200031
1.2100000000	2.0614104233
1.2150000000	2.2949283541
1.2200000000	2.7447477233
1.2250000000	3.4355319304
1.2300000000	4.4859200148
1.2350000000	6.1475248023
1.2400000000	8.9464982584
1.2450000000	14.2169454782
1.2500000000	25.6312443640
1.2550000000	55.4835618996
1.2600000000	134.0158333811
1.2650000000	135.7523792273
1.2700000000	56.4701828798
1.2750000000	26.0666723295
1.2800000000	14.4361799460
1.2850000000	9.0783230467
1.2900000000	6.2223574773
1.2950000000	4.5349435304
1.3000000000	3.4601356079
1.3050000000	2.7364708898
1.3100000000	2.2261705941
1.3150000000	1.8574531787
1.3200000000	1.5841222164
1.3250000000	1.3784303581
1.3300000000	1.2235239060
1.3350000000	1.1090611546
1.3400000000	1.0296728326
1.3450000000	0.9838861057
1.3500000000	0.9783787119
1.3550000000	1.0283533824
1.3600000000	1.1724931988
1.3650000000	1.5092364833
1.3700000000	2.3134316118
1.3750000000	4.3143398673
1.3800000000	7.0471477211
1.3850000000	4.9229738743
1.3900000000	2.5087903587
1.3950000000	1.4556919623
1.4000000000	0.9533356332
1.4050000000	0.6445839774
1.4100000000	0.3651325512
1.4150000000	-0.0517599883
1.4200000000	-0.9851245367
1.4250000000	-3.4582966579
1.4300000000	-4.6498980101
1.4350000000	2.1302977946
1.4400000000	2.7249789823
1.4450000000	1.6337407474
1.4500000000	1.0165779308
1.4550000000	0.7007708176
1.4600000000	0.5174778306
1.4650000000	0.3726215072
1.4700000000	0.2176784561
1.4750000000	0.2558036697
1.4800000000	0.3750147389
1.4850000000	0.3405259315
1.4900000000	0.3015282049
1.4950000000	0.2763041652
1.5000000000	0.2597340366
1.5050000000	0.2487779371
1.5100000000	0.2413247701
1.5150000000	0.2372582118
1.5200000000	0.2342607154
1.5250000000	0.2331796946
1.5300000000	0.2341148572
1.5350000000	0.2374940521
1.5400000000	0.2443846095
1.5450000000	0.2571568689
1.5500000000	0.2811384601
1.5550000000	0.3269488760
1.5600000000	0.3957138379
1.5650000000	0.4067337581
1.5700000000	0.3446782111
1.5750000000	0.3011315509
1.5800000000	0.2823448823
1.5850000000	0.2764320831
1.5900000000	0.2771957512
1.5950000000	0.2819444837
1.6000000000	0.2895056768
1.6050000000	0.2994755860
1.6100000000	0.3115527583
1.6150000000	0.3256922558
1.6200000000	0.3421192868
1.6250000000	0.3610281287
1.6300000000	0.3827381163
1.6350000000	0.4076609463
1.6400000000	0.4363230737
1.6450000000	0.4693968897
1.6500000000	0.5077264042
1.6550000000	0.5523812203
1.6600000000	0.6047471195
1.6650000000	0.6666128509
1.6700000000	0.7397176251
1.6750000000	0.8283295354
1.6800000000	0.9362211974
1.6850000000	1.0693276371
1.6900000000	1.2360754985
1.6950000000	1.4488305296
1.7000000000	1.7262079505
1.7050000000	2.1088573287
1.7100000000	2.6427209003
1.7150000000	3.4187022378
1.7200000000	4.6013229226
1.7250000000	6.4775022042
1.7300000000	9.3606775165
1.7350000000	13.0607456439
1.7400000000	17.7382524833
1.7450000000	25.9464905310
1.7500000000	36.6015188158
1.7550000000	37.1903036609
1.7600000000	26.0913635394
1.7650000000	16.2524813166
1.7700000000	10.4184768290
1.7750000000	7.1010482242
1.7800000000	5.1405910110
1.7850000000	3.9346687944
1.7900000000	3.1868167447
1.7950000000	2.7589096465
1.8000000000	2.5862033333
1.8050000000	2.5315327960
1.8100000000	2.2523395784
1.8150000000	1.7452367255
1.8200000000	1.3400955815
1.8250000000	1.1312056660
1.8300000000	0.9848293810
1.8350000000	0.8547422510
1.8400000000	0.7486661916
1.8450000000	0.6644882789
1.8500000000	0.5966496899
1.8550000000	0.5406072011
1.8600000000	0.4890555779
1.8650000000	0.4454728872
1.8700000000	0.4014253194
1.8750000000	0.3379275410
1.8800000000	0.1931900274
1.8850000000	-0.1240252060
1.8900000000	-0.5506972237
1.8950000000	-0.6239039953
1.9000000000	0.0667628278
1.9050000000	0.7107094723
1.9100000000	0.7858500470
1.9150000000	0.6638980039
1.9200000000	0.5443738257
1.9250000000	0.4595593085
1.9300000000	0.4081957287
1.9350000000	0.3689823330
1.9400000000	0.3428973821
1.9450000000	0.3256314416
1.9500000000	0.3135631341
1.9550000000	0.3034630877
1.9600000000	0.2947404916
1.9650000000	0.2885459531
1.9700000000	0.2852375021
1.9750000000	0.2845950818
1.9800000000	0.2864401804
1.9850000000	0.2908262680
1.9900000000	0.2980412643
1.9950000000	0.3084454051
2.0000000000	0.3217680991
2.0050000000	0.3368818545
2.0100000000	0.3477229779
2.0150000000	0.3549529682
2.0200000000	0.3636708984
2.0250000000	0.3771281307
2.0300000000	0.3962814352
2.0350000000	0.4216097093
2.0400000000	0.4539825612
2.0450000000	0.4949089182
2.0500000000	0.5465559350
2.0550000000	0.6113320285
2.0600000000	0.6904053786
2.0650000000	0.7825328777
2.0700000000	0.8890984661
2.0750000000	1.0219898097
2.0800000000	1.2008332916
2.0850000000	1.4447648411
2.0900000000	1.7649134121
2.0950000000	2.1382776681
2.1000000000	2.4710492795
2.1050000000	2.6322974834
2.1100000000	2.5557204025
2.1150000000	2.3795074820
2.1200000000	2.2549569889
2.1250000000	2.2496390035
2.1300000000	2.3835999148
2.1350000000	2.6727279471
2.1400000000	3.1488468267
2.1450000000	3.8682580093
2.1500000000	4.9098024261
2.1550000000	6.3327021169
2.1600000000	8.0222094588
2.1650000000	9.4422102309
2.1700000000	9.7777341067
2.1750000000	8.7526505132
2.1800000000	7.0662428341
2.1850000000	5.4519360314
2.1900000000	4.1897870449
2.1950000000	3.2779218658
2.2000000000	2.6381726033
2.2050000000	2.1967982207
2.2100000000	1.8903940238
2.2150000000	1.6553795468
2.2200000000	1.4447928992
2.2250000000	1.2444921394
2.2300000000	1.0631342371
2.2350000000	0.9074135300
2.2400000000	0.7755235496
2.2450000000	0.6616414792
2.2500000000	0.5599715309
2.2550000000	0.4672723647
2.2600000000	0.3745715947
2.2650000000	0.3071345252
2.2700000000	0.2705032571
2.2750000000	0.2797261305
2.2800000000	0.3329326786
2.2850000000	0.4006848527
2.2900000000	0.4502783539
2.2950000000	0.4722595568
2.3000000000	0.4747748613
2.3050000000	0.4671919223
2.3100000000	0.4572024695
2.3150000000	0.4483506455
2.3200000000	0.4420376890
2.3250000000	0.4390334626
2.3300000000	0.4399610763
2.3350000000	0.4453366745
2.3400000000	0.4556010709
2.3450000000	0.4712001839
2.3500000000	0.4926063723
2.3550000000	0.5205277412
2.3600000000	0.5545057946
2.3650000000	0.5947518546
2.3700000000	0.6411539350
2.3750000000	0.6942157083
2.3800000000	0.7558525899
2.3850000000	0.8283374236
2.3900000000	0.9121728281
2.3950000000	1.0036257556
2.4000000000	1.0930993987
2.4050000000	1.1702058338
2.4100000000	1.2129438008
2.4150000000	1.2170284417
2.4200000000	1.1929084572
2.4250000000	1.1584017391
2.4300000000	1.1293220306
2.4350000000	1.1152151634
2.4400000000	1.1198902754
2.4450000000	1.1439626930
2.4500000000	1.1875091923
2.4550000000	1.2515000706
2.4600000000	1.3400379775
2.4650000000	1.4573286619
2.4700000000	1.6080555263
2.4750000000	1.7951437480
2.4800000000	2.0171172681
2.4850000000	2.2645050285
2.4900000000	2.5156420833
2.4950000000	2.7345765501
2.5000000000	2.8763199593
2.5050000000	2.8945422075
2.5100000000	2.7707440420
2.5150000000	2.5387162849
2.5200000000	2.2524507313
2.5250000000	1.9593806563
2.5300000000	1.6884195323
2.5350000000	1.4517158363
2.5400000000	1.2510580897
2.5450000000	1.0834691737
2.5500000000	0.9446348455
2.5550000000	0.8306787902
2.5600000000	0.7353922581
2.5650000000	0.6640820263
2.5700000000	0.6128438586
2.5750000000	0.5798504253
2.5800000000	0.5614394589
2.5850000000	0.5526021857
2.5900000000	0.5486379671
2.5950000000	0.5466197505
2.6000000000	0.5456037582
2.6050000000	0.5499551059
2.6100000000	0.5568489170
2.6150000000	0.5673406743
2.6200000000	0.5819911494
2.6250000000	0.6008348936
2.6300000000	0.6233400102
2.6350000000	0.6483776022
2.6400000000	0.6742227727
2.6450000000	0.6986882262
2.6500000000	0.7194575034
2.6550000000	0.7346313620
2.6600000000	0.7433275908
2.6650000000	0.7460643922
2.6700000000	0.7446507342
2.6750000000	0.7417308833
2.6800000000	0.7398670901
2.6850000000	0.7414532386
2.6900000000	0.7481564371
2.6950000000	0.7610012037
2.7000000000	0.7804787540
2.7050000000	0.8096351130
2.7100000000	0.8471588255
2.7150000000	0.8924432049
2.7200000000	0.9442341885
2.7250000000	1.0004029998
2.7300000000	1.0577358724
2.7350000000	1.1118999830
2.7400000000	1.1577415427
2.7450000000	1.1900276661
2.7500000000	1.2045406011
2.7550000000	1.1991553415
2.7600000000	1.1744148375
2.7650000000	1.1333339177
2.7700000000	1.0805259624
2.7750000000	1.0211022622
2.7800000000	0.9597497223
2.7850000000	0.9002176848
2.7900000000	0.8446798314
2.7950000000	0.7955147792
2.8000000000	0.7532145890
2.8050000000	0.7140369165
2.8100000000	0.6831481787
2.8150000000	0.6593322525
2.8200000000	0.6412680190
2.8250000000	0.6277431717
2.8300000000	0.6177273562
2.8350000000	0.6103659318
2.8400000000	0.6049367478
2.8450000000	0.6008266907
2.8500000000	0.5975434373
2.8550000000	0.5947601561
2.8600000000	0.5923662117
2.8650000000	0.5904835052
2.8700000000	0.5894355160
2.8750000000	0.5896671310
2.8800000000	0.5916461476
2.8850000000	0.5957744018
2.8900000000	0.6023259147
2.8950000000	0.6114095589
2.9000000000	0.6229507210
2.9050000000	0.6402142221
2.9100000000	0.6591458706
2.9150000000	0.6784816474
2.9200000000	0.6966241024
2.9250000000	0.7118571865
2.9300000000	0.7225875948
2.9350000000	0.7276240252
2.9400000000	0.7264077164
2.9450000000	0.7191191423
2.9500000000	0.7066105283
2.9550000000	0.6901886376
2.9600000000	0.6713393525
2.9650000000	0.6514701378
2.9700000000	0.6317384758
2.9750000000	0.6129768147
2.9800000000	0.5956976598
2.9850000000	0.5801489170
2.9900000000	0.5663882341
2.9950000000	0.5543552741
3.0000000000	0.5439306900
