# energy (eV)    P(omega), $W$ = 300 nm, $h$ = 300 nm, $s$ = 20 nm, $d/W = 5$, $E_{\rm e}$ = 200 keV
0.2000000000	0.0495410976
0.2050000000	0.0502955092
0.2100000000	0.0509965765
0.2150000000	0.0516460809
0.2200000000	0.0522456261
0.2250000000	0.0527965359
0.2300000000	0.0532998678
0.2350000000	0.0537563580
0.2400000000	0.0541663812
0.2450000000	0.0545298851
0.2500000000	0.0548463391
0.2550000000	0.0551146012
0.2600000000	0.0553328947
0.2650000000	0.0554985785
0.2700000000	0.0556080633
0.2750000000	0.0556565421
0.2800000000	0.0556377466
0.2850000000	0.0555435865
0.2900000000	0.0553637137
0.2950000000	0.0550849433
0.3000000000	0.0546904474
0.3050000000	0.0541587805
0.3100000000	0.0534624748
0.3150000000	0.0566110651
0.3200000000	0.0603502365
0.3250000000	0.0650828301
0.3300000000	0.0714266920
0.3350000000	0.0793208333
0.3400000000	0.0896579646
0.3450000000	0.1021847574
0.3500000000	0.1185650913
0.3550000000	0.1402279665
0.3600000000	0.1684911823
0.3650000000	0.2078727917
0.3700000000	0.2597477093
0.3750000000	0.3318501109
0.3800000000	0.4360516163
0.3850000000	0.5983113710
0.3900000000	0.8544417829
0.3950000000	1.2891708804
0.4000000000	2.1173269142
0.4050000000	3.9727211966
0.4100000000	9.0315233444
0.4150000000	28.9562462020
0.4200000000	18.4615965160
0.4250000000	-34.6533370807
0.4300000000	9.6173020176
0.4350000000	5.9852690711
0.4400000000	3.6533519969
0.4450000000	2.3990527502
0.4500000000	1.6774859703
0.4550000000	1.2337244542
0.4600000000	0.9448783698
0.4650000000	0.7481541931
0.4700000000	0.6091779921
0.4750000000	0.5087014605
0.4800000000	0.4342214621
0.4850000000	0.3781768994
0.4900000000	0.3353852787
0.4950000000	0.3023690961
0.5000000000	0.2767509480
0.5050000000	0.2567883874
0.5100000000	0.2413575055
0.5150000000	0.2296300416
0.5200000000	0.2207457506
0.5250000000	0.2143122902
0.5300000000	0.2099125410
0.5350000000	0.2072401213
0.5400000000	0.2060688460
0.5450000000	0.2062098561
0.5500000000	0.2075996361
0.5550000000	0.2101305380
0.5600000000	0.2137451910
0.5650000000	0.2184161737
0.5700000000	0.2241170386
0.5750000000	0.2308867387
0.5800000000	0.2387883106
0.5850000000	0.2478620531
0.5900000000	0.2581888469
0.5950000000	0.2698722590
0.6000000000	0.2830437278
0.6050000000	0.2978971922
0.6100000000	0.3146152186
0.6150000000	0.3334492654
0.6200000000	0.3547350298
0.6250000000	0.3787940036
0.6300000000	0.4061023641
0.6350000000	0.4372534093
0.6400000000	0.4728636801
0.6450000000	0.5138246275
0.6500000000	0.5613074128
0.6550000000	0.6165304894
0.6600000000	0.6813682776
0.6650000000	0.7582232883
0.6700000000	0.8499195231
0.6750000000	0.9607656282
0.6800000000	1.0965529697
0.6850000000	1.2648652581
0.6900000000	1.4774476499
0.6950000000	1.7507229838
0.7000000000	2.1107744442
0.7050000000	2.5974660070
0.7100000000	3.2783294929
0.7150000000	4.2735624606
0.7200000000	5.8068731814
0.7250000000	8.3510587331
0.7300000000	13.0190656372
0.7350000000	23.0031218868
0.7400000000	50.3729890313
0.7450000000	166.9787081201
0.7500000000	516.8893372933
0.7550000000	129.9310613906
0.7600000000	42.9957406630
0.7650000000	20.5846023951
0.7700000000	11.9616476495
0.7750000000	7.8007449295
0.7800000000	5.4852817360
0.7850000000	4.0706252392
0.7900000000	3.1423371338
0.7950000000	2.5023614346
0.8000000000	2.0424775940
0.8050000000	1.7000939429
0.8100000000	1.4391026555
0.8150000000	1.2323006601
0.8200000000	1.0691402277
0.8250000000	0.9378079190
0.8300000000	0.8302636845
0.8350000000	0.7418644572
0.8400000000	0.6677818208
0.8450000000	0.6056311408
0.8500000000	0.5531024471
0.8550000000	0.5077858242
0.8600000000	0.4691023441
0.8650000000	0.4360555196
0.8700000000	0.4068641734
0.8750000000	0.3820212030
0.8800000000	0.3609250307
0.8850000000	0.3420129762
0.8900000000	0.3268052287
0.8950000000	0.3129718650
0.9000000000	0.3019671693
0.9050000000	0.2943112992
0.9100000000	0.2872902241
0.9150000000	0.2829351332
0.9200000000	0.2821809073
0.9250000000	0.2815696687
0.9300000000	0.2772485651
0.9350000000	0.2647967689
0.9400000000	0.1963791242
0.9450000000	-0.1137333425
0.9500000000	-1.7485197947
0.9550000000	-10.0339532185
0.9600000000	2.3665346691
0.9650000000	4.1536974604
0.9700000000	1.8414460491
0.9750000000	0.9665930680
0.9800000000	0.6058740283
0.9850000000	0.4372098871
0.9900000000	0.3400755318
0.9950000000	0.2811931768
1.0000000000	0.2436015365
1.0050000000	0.2197582486
1.0100000000	0.2012919118
1.0150000000	0.1878066842
1.0200000000	0.1787178963
1.0250000000	0.1711062623
1.0300000000	0.1653337482
1.0350000000	0.1609791158
1.0400000000	0.1582195601
1.0450000000	0.1559466086
1.0500000000	0.1544722639
1.0550000000	0.1537067007
1.0600000000	0.1538482908
1.0650000000	0.1543441698
1.0700000000	0.1554212634
1.0750000000	0.1570842994
1.0800000000	0.1594830873
1.0850000000	0.1625250752
1.0900000000	0.1669834906
1.0950000000	0.1722714076
1.1000000000	0.1785606783
1.1050000000	0.1858215180
1.1100000000	0.1942766160
1.1150000000	0.2041180549
1.1200000000	0.2155664143
1.1250000000	0.2289407862
1.1300000000	0.2446325120
1.1350000000	0.2631410393
1.1400000000	0.2850271483
1.1450000000	0.3113478395
1.1500000000	0.3432251464
1.1550000000	0.3822936386
1.1600000000	0.4308595722
1.1650000000	0.4919074474
1.1700000000	0.5710650331
1.1750000000	0.6757706493
1.1800000000	0.8183324995
1.1850000000	1.0189901472
1.1900000000	1.3158439841
1.1950000000	1.7821436627
1.2000000000	2.5733662943
1.2050000000	4.0688592106
1.2100000000	7.3586438574
1.2150000000	16.2485128455
1.2200000000	39.8827485312
1.2250000000	35.7979798840
1.2300000000	14.2470526951
1.2350000000	6.6564661826
1.2400000000	3.7808701553
1.2450000000	2.4590647487
1.2500000000	1.7599422734
1.2550000000	1.3543566759
1.2600000000	1.1051304278
1.2650000000	0.9462200060
1.2700000000	0.8478012791
1.2750000000	0.7904890169
1.2800000000	0.7647506130
1.2850000000	0.7660223927
1.2900000000	0.7931342094
1.2950000000	0.8472804193
1.3000000000	0.9357334615
1.3050000000	1.0676953935
1.3100000000	1.2609043877
1.3150000000	1.5461999830
1.3200000000	1.9792532650
1.3250000000	2.6660061461
1.3300000000	3.8392378313
1.3350000000	6.0379084797
1.3400000000	10.7374808538
1.3450000000	22.4015531554
1.3500000000	47.4909834424
1.3550000000	44.2622440475
1.3600000000	20.4039177483
1.3650000000	10.0241684451
1.3700000000	5.7492432378
1.3750000000	3.6980799294
1.3800000000	2.5797451909
1.3850000000	1.9059950083
1.3900000000	1.4715614314
1.3950000000	1.1750069230
1.4000000000	0.9637572249
1.4050000000	0.8082067458
1.4100000000	0.6902651919
1.4150000000	0.5988532050
1.4200000000	0.5257261666
1.4250000000	0.4671550481
1.4300000000	0.4197720188
1.4350000000	0.3715941632
1.4400000000	0.2190642239
1.4450000000	-0.1759411475
1.4500000000	-0.8985548028
1.4550000000	-0.3263387908
1.4600000000	0.8198556055
1.4650000000	0.4989038128
1.4700000000	-0.2128954344
1.4750000000	-1.3010216184
1.4800000000	-0.5670881341
1.4850000000	1.0213057182
1.4900000000	0.8262461491
1.4950000000	0.5383563605
1.5000000000	0.3807769826
1.5050000000	0.2951747035
1.5100000000	0.2460997082
1.5150000000	0.2158937766
1.5200000000	0.1960251827
1.5250000000	0.1833788425
1.5300000000	0.1733317558
1.5350000000	0.1659784406
1.5400000000	0.1605933968
1.5450000000	0.1567334624
1.5500000000	0.1541080373
1.5550000000	0.1525702309
1.5600000000	0.1523672588
1.5650000000	0.1529322324
1.5700000000	0.1547819678
1.5750000000	0.1582685963
1.5800000000	0.1641064200
1.5850000000	0.1737022314
1.5900000000	0.1900229739
1.5950000000	0.2195884074
1.6000000000	0.2759850350
1.6050000000	0.3672851892
1.6100000000	0.4077845430
1.6150000000	0.3293375765
1.6200000000	0.2584055402
1.6250000000	0.2232261547
1.6300000000	0.2078456298
1.6350000000	0.2023402454
1.6400000000	0.2022661723
1.6450000000	0.2056133336
1.6500000000	0.2114326013
1.6550000000	0.2193273369
1.6600000000	0.2291437436
1.6650000000	0.2408994603
1.6700000000	0.2547278801
1.6750000000	0.2708612366
1.6800000000	0.2896292461
1.6850000000	0.3114708495
1.6900000000	0.3369492320
1.6950000000	0.3665995862
1.7000000000	0.4015513745
1.7050000000	0.4438638450
1.7100000000	0.4959787753
1.7150000000	0.5699734726
1.7200000000	0.6725101513
1.7250000000	0.7968037816
1.7300000000	0.9529015621
1.7350000000	1.1197101541
1.7400000000	1.2669769601
1.7450000000	1.4501067796
1.7500000000	1.7342215060
1.7550000000	2.1631086450
1.7600000000	2.8080283982
1.7650000000	3.8035762802
1.7700000000	5.4072402880
1.7750000000	8.1074077394
1.7800000000	12.7039405533
1.7850000000	19.4718684639
1.7900000000	24.1646015706
1.7950000000	20.5439863001
1.8000000000	13.6475131551
1.8050000000	8.6003151917
1.8100000000	5.6563311928
1.8150000000	3.9318607371
1.8200000000	2.8709295192
1.8250000000	2.1830571516
1.8300000000	1.7156960370
1.8350000000	1.3853083473
1.8400000000	1.1439573743
1.8450000000	0.9625041345
1.8500000000	0.8225592201
1.8550000000	0.7125856509
1.8600000000	0.6244251665
1.8650000000	0.5524400887
1.8700000000	0.4924683775
1.8750000000	0.4412468298
1.8800000000	0.3959061236
1.8850000000	0.3535362999
1.8900000000	0.3104392797
1.8950000000	0.2609919571
1.9000000000	0.1957309759
1.9050000000	0.0846524251
1.9100000000	-0.0766413374
1.9150000000	-0.2503516340
1.9200000000	-0.1726674046
1.9250000000	0.3348569945
1.9300000000	0.7425202157
1.9350000000	0.7756039379
1.9400000000	0.6393462231
1.9450000000	0.5016708087
1.9500000000	0.4026786065
1.9550000000	0.3362617999
1.9600000000	0.2914512463
1.9650000000	0.2617842871
1.9700000000	0.2393183178
1.9750000000	0.2228301258
1.9800000000	0.2104111477
1.9850000000	0.2007131371
1.9900000000	0.1927753332
1.9950000000	0.1858194717
2.0000000000	0.1796578509
2.0050000000	0.1765181795
2.0100000000	0.1793982276
2.0150000000	0.1862843377
2.0200000000	0.1917045962
2.0250000000	0.1953999213
2.0300000000	0.1993452101
2.0350000000	0.2043924559
2.0400000000	0.2111917757
2.0450000000	0.2201663497
2.0500000000	0.2318248956
2.0550000000	0.2466833356
2.0600000000	0.2647662445
2.0650000000	0.2843557235
2.0700000000	0.3011899655
2.0750000000	0.3118841229
2.0800000000	0.3187489870
2.0850000000	0.3269455870
2.0900000000	0.3396689176
2.0950000000	0.3578955275
2.1000000000	0.3821506993
2.1050000000	0.4118796211
2.1100000000	0.4491564747
2.1150000000	0.4954211819
2.1200000000	0.5528107881
2.1250000000	0.6243973207
2.1300000000	0.7145610294
2.1350000000	0.8295845014
2.1400000000	0.9785489862
2.1450000000	1.1747283930
2.1500000000	1.4374457449
2.1550000000	1.7940124736
2.1600000000	2.2793478568
2.1650000000	2.9229819992
2.1700000000	3.7137291195
2.1750000000	4.5029020675
2.1800000000	5.0018707439
2.1850000000	5.0580420725
2.1900000000	4.8862726758
2.1950000000	4.7722351839
2.2000000000	4.7393938618
2.2050000000	4.5114599544
2.2100000000	3.9726029215
2.2150000000	3.2881358488
2.2200000000	2.6618699755
2.2250000000	2.1602679943
2.2300000000	1.7654653105
2.2350000000	1.4518851242
2.2400000000	1.2030939280
2.2450000000	1.0089076044
2.2500000000	0.8574653990
2.2550000000	0.7379792931
2.2600000000	0.6414443537
2.2650000000	0.5603682857
2.2700000000	0.4884558325
2.2750000000	0.4212885422
2.2800000000	0.3591789018
2.2850000000	0.3099242665
2.2900000000	0.2850745882
2.2950000000	0.2886108372
2.3000000000	0.3091394996
2.3050000000	0.3292017706
2.3100000000	0.3378613175
2.3150000000	0.3356733398
2.3200000000	0.3274260832
2.3250000000	0.3180077095
2.3300000000	0.3100597666
2.3350000000	0.3044977830
2.3400000000	0.3011321144
2.3450000000	0.2989827718
2.3500000000	0.2967413788
2.3550000000	0.2935712553
2.3600000000	0.2897044480
2.3650000000	0.2861557800
2.3700000000	0.2839313144
2.3750000000	0.2835226985
2.3800000000	0.2848465480
2.3850000000	0.2873984771
2.3900000000	0.2906165850
2.3950000000	0.2940202992
2.4000000000	0.2978964562
2.4050000000	0.3033136436
2.4100000000	0.3108150738
2.4150000000	0.3210895484
2.4200000000	0.3346055537
2.4250000000	0.3517893043
2.4300000000	0.3731188799
2.4350000000	0.3991935349
2.4400000000	0.4307842947
2.4450000000	0.4688858882
2.4500000000	0.5147643084
2.4550000000	0.5700212066
2.4600000000	0.6366343615
2.4650000000	0.7169968298
2.4700000000	0.8138806018
2.4750000000	0.9301073318
2.4800000000	1.0687290792
2.4850000000	1.2311182524
2.4900000000	1.4159307964
2.4950000000	1.6164820960
2.5000000000	1.8179217094
2.5050000000	2.0041002523
2.5100000000	2.1243766857
2.5150000000	2.1507091002
2.5200000000	2.0794715385
2.5250000000	1.9329527463
2.5300000000	1.7450622832
2.5350000000	1.5455437038
2.5400000000	1.3532364411
2.5450000000	1.1774517681
2.5500000000	1.0216690646
2.5550000000	0.8863304082
2.5600000000	0.7694722341
2.5650000000	0.6708383661
2.5700000000	0.5884607532
2.5750000000	0.5211744674
2.5800000000	0.4680697132
2.5850000000	0.4280194065
2.5900000000	0.3989888802
2.5950000000	0.3780326102
2.6000000000	0.3620697890
2.6050000000	0.3506848730
2.6100000000	0.3404623187
2.6150000000	0.3312764085
2.6200000000	0.3233566867
2.6250000000	0.3169288326
2.6300000000	0.3121291162
2.6350000000	0.3090166196
2.6400000000	0.3076223396
2.6450000000	0.3079812927
2.6500000000	0.3101686677
2.6550000000	0.3141971179
2.6600000000	0.3201723325
2.6650000000	0.3281876773
2.6700000000	0.3383531624
2.6750000000	0.3507993113
2.6800000000	0.3656713930
2.6850000000	0.3831280644
2.6900000000	0.4033226417
2.6950000000	0.4263940870
2.7000000000	0.4524386596
2.7050000000	0.4845924608
2.7100000000	0.5206303782
2.7150000000	0.5603049795
2.7200000000	0.6030815033
2.7250000000	0.6480691362
2.7300000000	0.6939577799
2.7350000000	0.7389625818
2.7400000000	0.7807949795
2.7450000000	0.8170390462
2.7500000000	0.8441877125
2.7550000000	0.8598320475
2.7600000000	0.8621628251
2.7650000000	0.8507146657
2.7700000000	0.8265302460
2.7750000000	0.7919490574
2.7800000000	0.7500738516
2.7850000000	0.7042054263
2.7900000000	0.6572925373
2.7950000000	0.6116960179
2.8000000000	0.5690810960
2.8050000000	0.5257481709
2.8100000000	0.4883414694
2.8150000000	0.4567756628
2.8200000000	0.4305545831
2.8250000000	0.4090187904
2.8300000000	0.3915067684
2.8350000000	0.3774547298
2.8400000000	0.3662633318
2.8450000000	0.3579729443
2.8500000000	0.3521443380
2.8550000000	0.3486138557
2.8600000000	0.3472657181
2.8650000000	0.3480084556
2.8700000000	0.3507606406
2.8750000000	0.3554389462
2.8800000000	0.3619469714
2.8850000000	0.3701648532
2.8900000000	0.3799450144
2.8950000000	0.3911072130
2.9000000000	0.4034376633
2.9050000000	0.4196350617
2.9100000000	0.4362645658
2.9150000000	0.4526848760
2.9200000000	0.4681248229
2.9250000000	0.4816902561
2.9300000000	0.4925407972
2.9350000000	0.4995576341
2.9400000000	0.5021803537
2.9450000000	0.5001219857
2.9500000000	0.4935514606
2.9550000000	0.4830682102
2.9600000000	0.4695852223
2.9650000000	0.4541616546
2.9700000000	0.4378368465
2.9750000000	0.4215125920
2.9800000000	0.4058882782
2.9850000000	0.3914518019
2.9900000000	0.3785034068
2.9950000000	0.3671960309
3.0000000000	0.3575789843
