# energy (eV)    P(omega), $W$ = 300 nm, $h$ = 300 nm, $s$ = 20 nm, $d/W = 5$, $E_{\rm e}$ = 200 keV
0.2000000000	0.0575712781
0.2050000000	0.0584479818
0.2100000000	0.0592626965
0.2150000000	0.0600174920
0.2200000000	0.0607142319
0.2250000000	0.0613544545
0.2300000000	0.0619393886
0.2350000000	0.0624698897
0.2400000000	0.0629463930
0.2450000000	0.0633688376
0.2500000000	0.0637366069
0.2550000000	0.0640483738
0.2600000000	0.0643020735
0.2650000000	0.0644946367
0.2700000000	0.0646218922
0.2750000000	0.0646782538
0.2800000000	0.0646564371
0.2850000000	0.0645470403
0.2900000000	0.0643380382
0.2950000000	0.0640141083
0.3000000000	0.0635556952
0.3050000000	0.0629378770
0.3100000000	0.0621287336
0.3150000000	0.0657876961
0.3200000000	0.0701329699
0.3250000000	0.0756326928
0.3300000000	0.0830048593
0.3350000000	0.0921785973
0.3400000000	0.1041913202
0.3450000000	0.1187486407
0.3500000000	0.1377841438
0.3550000000	0.1629584648
0.3600000000	0.1958030179
0.3650000000	0.2415682130
0.3700000000	0.3018518463
0.3750000000	0.3856417798
0.3800000000	0.5067339938
0.3850000000	0.6952955419
0.3900000000	0.9929439649
0.3950000000	1.4981415461
0.4000000000	2.4605398047
0.4050000000	4.6166898408
0.4100000000	10.4955153733
0.4150000000	33.6500087918
0.4200000000	21.4541945191
0.4250000000	-40.2706206091
0.4300000000	11.1762663426
0.4350000000	6.9554839516
0.4400000000	4.2455639785
0.4450000000	2.7879429032
0.4500000000	1.9494099942
0.4550000000	1.4337145295
0.4600000000	1.0980462892
0.4650000000	0.8694329429
0.4700000000	0.7079285454
0.4750000000	0.5911646425
0.4800000000	0.5046113363
0.4850000000	0.4394818736
0.4900000000	0.3897536758
0.4950000000	0.3513855339
0.5000000000	0.3216146642
0.5050000000	0.2984161688
0.5100000000	0.2804839520
0.5150000000	0.2668554922
0.5200000000	0.2565310962
0.5250000000	0.2490548239
0.5300000000	0.2439419399
0.5350000000	0.2408363986
0.5400000000	0.2394753500
0.5450000000	0.2396393208
0.5500000000	0.2412545013
0.5550000000	0.2441957941
0.5600000000	0.2483965291
0.5650000000	0.2538248412
0.5700000000	0.2604499971
0.5750000000	0.2683172652
0.5800000000	0.2774999035
0.5850000000	0.2880447448
0.5900000000	0.3000457831
0.5950000000	0.3136233771
0.6000000000	0.3289302750
0.6050000000	0.3461918581
0.6100000000	0.3656202916
0.6150000000	0.3875078023
0.6200000000	0.4122445120
0.6250000000	0.4402040347
0.6300000000	0.4719397482
0.6350000000	0.5081411389
0.6400000000	0.5495247048
0.6450000000	0.5971264234
0.6500000000	0.6523073307
0.6550000000	0.7164834223
0.6600000000	0.7918330098
0.6650000000	0.8811481110
0.6700000000	0.9877105720
0.6750000000	1.1165275778
0.6800000000	1.2743294222
0.6850000000	1.4699293313
0.6900000000	1.7169766490
0.6950000000	2.0345567795
0.7000000000	2.4529816611
0.7050000000	3.0185782452
0.7100000000	3.8098270038
0.7150000000	4.9664126242
0.7200000000	6.7483122907
0.7250000000	9.7049757678
0.7300000000	15.1297871344
0.7350000000	26.7325178421
0.7400000000	58.5397533857
0.7450000000	194.0503115124
0.7500000000	600.6906898474
0.7550000000	150.9963302165
0.7600000000	49.9664986702
0.7650000000	23.9219204613
0.7700000000	13.9009550789
0.7750000000	9.0654587545
0.7800000000	6.3745967979
0.7850000000	4.7305863507
0.7900000000	3.6517976224
0.7950000000	2.9080644817
0.8000000000	2.3736209321
0.8050000000	1.9757275228
0.8100000000	1.6724223832
0.8150000000	1.4320920813
0.8200000000	1.2424788294
0.8250000000	1.0898539100
0.8300000000	0.9648737608
0.8350000000	0.8621425512
0.8400000000	0.7760490452
0.8450000000	0.7038219961
0.8500000000	0.6427769244
0.8550000000	0.5901131993
0.8600000000	0.5451580356
0.8650000000	0.5067533884
0.8700000000	0.4728292993
0.8750000000	0.4439585824
0.8800000000	0.4194421277
0.8850000000	0.3974638971
0.8900000000	0.3797905522
0.8950000000	0.3637144167
0.9000000000	0.3509255625
0.9050000000	0.3420284825
0.9100000000	0.3338691151
0.9150000000	0.3288079725
0.9200000000	0.3279315122
0.9250000000	0.3272212201
0.9300000000	0.3221995666
0.9350000000	0.3077289535
0.9400000000	0.2282185103
0.9450000000	-0.1321738045
0.9500000000	-2.0320155208
0.9550000000	-11.6608048342
0.9600000000	2.7502319586
0.9650000000	4.8271566734
0.9700000000	2.1400088007
0.9750000000	1.1233115874
0.9800000000	0.7041073600
0.9850000000	0.5080968502
0.9900000000	0.3952136070
0.9950000000	0.3267843557
1.0000000000	0.2830977926
1.0050000000	0.2553886758
1.0100000000	0.2339283009
1.0150000000	0.2182566486
1.0200000000	0.2076942552
1.0250000000	0.1988485132
1.0300000000	0.1921400772
1.0350000000	0.1870794112
1.0400000000	0.1838724407
1.0450000000	0.1812309695
1.0500000000	0.1795175872
1.0550000000	0.1786279046
1.0600000000	0.1787924578
1.0650000000	0.1793687414
1.0700000000	0.1806204749
1.0750000000	0.1825531529
1.0800000000	0.1853408745
1.0850000000	0.1888760805
1.0900000000	0.1940573657
1.0950000000	0.2002026438
1.1000000000	0.2075116305
1.1050000000	0.2159497114
1.1100000000	0.2257756819
1.1150000000	0.2372127677
1.1200000000	0.2505173132
1.1250000000	0.2660601450
1.1300000000	0.2842960553
1.1350000000	0.3058054702
1.1400000000	0.3312400922
1.1450000000	0.3618282977
1.1500000000	0.3988740427
1.1550000000	0.4442769179
1.1600000000	0.5007171052
1.1650000000	0.5716629993
1.1700000000	0.6636548274
1.1750000000	0.7853369269
1.1800000000	0.9510130995
1.1850000000	1.1842044579
1.1900000000	1.5291888296
1.1950000000	2.0710922467
1.2000000000	2.9906002111
1.2050000000	4.7285658317
1.2100000000	8.5517420979
1.2150000000	18.8829773829
1.2200000000	46.3491730984
1.2250000000	41.6021236337
1.2300000000	16.5570171274
1.2350000000	7.7357228961
1.2400000000	4.3938888267
1.2450000000	2.8577709366
1.2500000000	2.0452954184
1.2550000000	1.5739497697
1.2600000000	1.2843150244
1.2650000000	1.0996396189
1.2700000000	0.9852638627
1.2750000000	0.9186594846
1.2800000000	0.8887483093
1.2850000000	0.8902267513
1.2900000000	0.9217349718
1.2950000000	0.9846610059
1.3000000000	1.0874565045
1.3050000000	1.2408156113
1.3100000000	1.4653526623
1.3150000000	1.7969076970
1.3200000000	2.3001786044
1.3250000000	3.0982852797
1.3300000000	4.4617509819
1.3350000000	7.0169257244
1.3400000000	12.4785116353
1.3450000000	26.0338584204
1.3500000000	55.1914224934
1.3550000000	51.4391594194
1.3600000000	23.7123176293
1.3650000000	11.6495404981
1.3700000000	6.6814561138
1.3750000000	4.2977062122
1.3800000000	2.9980386841
1.3850000000	2.2150430247
1.3900000000	1.7101680456
1.3950000000	1.3655285815
1.4000000000	1.1200256989
1.4050000000	0.9392533952
1.4100000000	0.8021881134
1.4150000000	0.6959540154
1.4200000000	0.6109696206
1.4250000000	0.5429011782
1.4300000000	0.4878345942
1.4350000000	0.4318438535
1.4400000000	0.2545819049
1.4450000000	-0.2044703028
1.4500000000	-1.0442511037
1.4550000000	-0.3792532718
1.4600000000	0.9527903538
1.4650000000	0.5797979675
1.4700000000	-0.2474160478
1.4750000000	-1.5119768380
1.4800000000	-0.6590394059
1.4850000000	1.1869052888
1.4900000000	0.9602177137
1.4950000000	0.6256479058
1.5000000000	0.4425177328
1.5050000000	0.3430354019
1.5100000000	0.2860030819
1.5150000000	0.2508993486
1.5200000000	0.2278090942
1.5250000000	0.2131121371
1.5300000000	0.2014358742
1.5350000000	0.1928901458
1.5400000000	0.1866318102
1.5450000000	0.1821458406
1.5500000000	0.1790945074
1.5550000000	0.1773070856
1.5600000000	0.1770708519
1.5650000000	0.1777269602
1.5700000000	0.1798759645
1.5750000000	0.1839269870
1.5800000000	0.1907099589
1.5850000000	0.2018594093
1.5900000000	0.2208225872
1.5950000000	0.2551747059
1.6000000000	0.3207017083
1.6050000000	0.4267826505
1.6100000000	0.4738387275
1.6150000000	0.3826930314
1.6200000000	0.3002791971
1.6250000000	0.2594060675
1.6300000000	0.2415371203
1.6350000000	0.2351421379
1.6400000000	0.2350579220
1.6450000000	0.2389490210
1.6500000000	0.2457126868
1.6550000000	0.2548881117
1.6600000000	0.2662966472
1.6650000000	0.2799588436
1.6700000000	0.2960297555
1.6750000000	0.3147792961
1.6800000000	0.3365906608
1.6850000000	0.3619739822
1.6900000000	0.3915837852
1.6950000000	0.4260420856
1.7000000000	0.4666615619
1.7050000000	0.5158355444
1.7100000000	0.5764017290
1.7150000000	0.6623942827
1.7200000000	0.7815552716
1.7250000000	0.9260023654
1.7300000000	1.1074114724
1.7350000000	1.3012680640
1.7400000000	1.4724137411
1.7450000000	1.6852373042
1.7500000000	2.0154202474
1.7550000000	2.5138501104
1.7600000000	3.2633417057
1.7650000000	4.4203148074
1.7700000000	6.2840083467
1.7750000000	9.4220002637
1.7800000000	14.7638478054
1.7850000000	22.6291760641
1.7900000000	28.0828226400
1.7950000000	23.8751349595
1.8000000000	15.8604182609
1.8050000000	9.9948314007
1.8100000000	6.5734886964
1.8150000000	4.5694001910
1.8200000000	3.3364419226
1.8250000000	2.5370329410
1.8300000000	1.9938904758
1.8350000000	1.6099312823
1.8400000000	1.3294458439
1.8450000000	1.1185703756
1.8500000000	0.9559336699
1.8550000000	0.8281280558
1.8600000000	0.7256724262
1.8650000000	0.6420149623
1.8700000000	0.5723187489
1.8750000000	0.5127914470
1.8800000000	0.4600984575
1.8850000000	0.4108579432
1.8900000000	0.3607721368
1.8950000000	0.3033060737
1.9000000000	0.2274617989
1.9050000000	0.0983699785
1.9100000000	-0.0890804734
1.9150000000	-0.2909626267
1.9200000000	-0.2006899438
1.9250000000	0.3891179463
1.9300000000	0.8628748405
1.9350000000	0.9013254933
1.9400000000	0.7429838399
1.9450000000	0.5829940527
1.9500000000	0.4679569745
1.9550000000	0.3907750168
1.9600000000	0.3387012604
1.9650000000	0.3042257082
1.9700000000	0.2781182177
1.9750000000	0.2589574436
1.9800000000	0.2445254803
1.9850000000	0.2332555600
1.9900000000	0.2240312096
1.9950000000	0.2159480375
2.0000000000	0.2087879142
2.0050000000	0.2051395653
2.0100000000	0.2084864388
2.0150000000	0.2164885804
2.0200000000	0.2227874345
2.0250000000	0.2270819568
2.0300000000	0.2316670823
2.0350000000	0.2375328575
2.0400000000	0.2454347911
2.0450000000	0.2558646821
2.0500000000	0.2694137441
2.0550000000	0.2866815644
2.0600000000	0.3076967045
2.0650000000	0.3304626925
2.0700000000	0.3500266260
2.0750000000	0.3624547666
2.0800000000	0.3704326171
2.0850000000	0.3799581127
2.0900000000	0.3947443415
2.0950000000	0.4159262034
2.1000000000	0.4441141466
2.1050000000	0.4786633928
2.1100000000	0.5219844354
2.1150000000	0.5757506656
2.1200000000	0.6424456347
2.1250000000	0.7256394781
2.1300000000	0.8304226720
2.1350000000	0.9640964876
2.1400000000	1.1372146365
2.1450000000	1.3652033080
2.1500000000	1.6705186254
2.1550000000	2.0849003892
2.1600000000	2.6489298090
2.1650000000	3.3969251114
2.1700000000	4.3158868615
2.1750000000	5.2330193917
2.1800000000	5.8128934066
2.1850000000	5.8781741164
2.1900000000	5.6785557508
2.1950000000	5.5460305126
2.2000000000	5.5078662510
2.2050000000	5.2429737590
2.2100000000	4.6167406901
2.2150000000	3.8212859362
2.2200000000	3.0934693806
2.2250000000	2.5105318414
2.2300000000	2.0517129260
2.2350000000	1.6872882378
2.2400000000	1.3981584806
2.2450000000	1.1724873813
2.2500000000	0.9964906951
2.2550000000	0.8576311399
2.2600000000	0.7454437455
2.2650000000	0.6512215082
2.2700000000	0.5676486260
2.2750000000	0.4895904804
2.2800000000	0.4174104257
2.2850000000	0.3601700974
2.2900000000	0.3312920028
2.2950000000	0.3354023931
2.3000000000	0.3592602677
2.3050000000	0.3825760033
2.3100000000	0.3926399911
2.3150000000	0.3900974709
2.3200000000	0.3805130837
2.3250000000	0.3695675865
2.3300000000	0.3603308482
2.3350000000	0.3538668626
2.3400000000	0.3499552744
2.3450000000	0.3474572615
2.3500000000	0.3448523832
2.3550000000	0.3411683491
2.3600000000	0.3366748182
2.3650000000	0.3325511001
2.3700000000	0.3299663214
2.3750000000	0.3294918043
2.3800000000	0.3310306203
2.3850000000	0.3339965849
2.3900000000	0.3377366777
2.3950000000	0.3416923999
2.4000000000	0.3461971023
2.4050000000	0.3524926492
2.4100000000	0.3612103440
2.4150000000	0.3731506862
2.4200000000	0.3888581338
2.4250000000	0.4088280111
2.4300000000	0.4336159130
2.4350000000	0.4639182555
2.4400000000	0.5006310747
2.4450000000	0.5449103819
2.4500000000	0.5982274342
2.4550000000	0.6624435706
2.4600000000	0.7398572430
2.4650000000	0.8332495155
2.4700000000	0.9458418218
2.4750000000	1.0809133266
2.4800000000	1.2420109592
2.4850000000	1.4307296681
2.4900000000	1.6455074987
2.4950000000	1.8785760191
2.5000000000	2.1126769197
2.5050000000	2.3290423004
2.5100000000	2.4688201030
2.5150000000	2.4994216873
2.5200000000	2.4166332836
2.5250000000	2.2463576952
2.5300000000	2.0280026778
2.5350000000	1.7961343841
2.5400000000	1.5726467813
2.5450000000	1.3683607636
2.5500000000	1.1873197886
2.5550000000	1.0300375895
2.5600000000	0.8942322273
2.5650000000	0.7796060125
2.5700000000	0.6838718129
2.5750000000	0.6056758343
2.5800000000	0.5439607756
2.5850000000	0.4974168108
2.5900000000	0.4636793714
2.5950000000	0.4393253410
2.6000000000	0.4207743839
2.6050000000	0.4075435719
2.6100000000	0.3956635654
2.6150000000	0.3849882660
2.6200000000	0.3757844384
2.6250000000	0.3683143551
2.6300000000	0.3627363811
2.6350000000	0.3591191786
2.6400000000	0.3574987690
2.6450000000	0.3579158460
2.6500000000	0.3604577881
2.6550000000	0.3651392979
2.6600000000	0.3720831988
2.6650000000	0.3813979917
2.6700000000	0.3932115208
2.6750000000	0.4076754701
2.6800000000	0.4249586607
2.6850000000	0.4452454741
2.6900000000	0.4687140870
2.6950000000	0.4955259966
2.7000000000	0.5257930773
2.7050000000	0.5631598854
2.7100000000	0.6050405863
2.7150000000	0.6511476571
2.7200000000	0.7008596618
2.7250000000	0.7531413840
2.7300000000	0.8064703230
2.7350000000	0.8587722382
2.7400000000	0.9073874875
2.7450000000	0.9495083976
2.7500000000	0.9810592292
2.7550000000	0.9992404366
2.7600000000	1.0019494187
2.7650000000	0.9886453248
2.7700000000	0.9605398871
2.7750000000	0.9203519214
2.7800000000	0.8716872617
2.7850000000	0.8183818966
2.7900000000	0.7638626984
2.7950000000	0.7108732855
2.8000000000	0.6613488859
2.8050000000	0.6109900600
2.8100000000	0.5675183092
2.8150000000	0.5308344703
2.8200000000	0.5003619266
2.8250000000	0.4753343175
2.8300000000	0.4549828698
2.8350000000	0.4386523843
2.8400000000	0.4256463415
2.8450000000	0.4160116583
2.8500000000	0.4092378885
2.8550000000	0.4051348409
2.8600000000	0.4035679647
2.8650000000	0.4044309608
2.8700000000	0.4076292023
2.8750000000	0.4130658550
2.8800000000	0.4206288936
2.8850000000	0.4301790271
2.8900000000	0.4415447585
2.8950000000	0.4545166304
2.9000000000	0.4688462012
2.9050000000	0.4876697401
2.9100000000	0.5069954987
2.9150000000	0.5260781944
2.9200000000	0.5440216125
2.9250000000	0.5597866149
2.9300000000	0.5723965541
2.9350000000	0.5805512069
2.9400000000	0.5835992876
2.9450000000	0.5812072911
2.9500000000	0.5735715345
2.9550000000	0.5613886367
2.9600000000	0.5457196142
2.9650000000	0.5277953532
2.9700000000	0.5088237097
2.9750000000	0.4898526930
2.9800000000	0.4716950885
2.9850000000	0.4549179005
2.9900000000	0.4398700548
2.9950000000	0.4267292874
3.0000000000	0.4155529047
