# energy (eV)    P(omega), $W$ = 300 nm, $h$ = 300 nm, $s$ = 20 nm, $d/W = 5$, $E_{\rm e}$ = 200 keV
0.2000000000	0.0869852900
0.2050000000	0.0883099323
0.2100000000	0.0895409191
0.2150000000	0.0906813775
0.2200000000	0.0917341228
0.2250000000	0.0927014791
0.2300000000	0.0935853026
0.2350000000	0.0943868856
0.2400000000	0.0951068857
0.2450000000	0.0957452106
0.2500000000	0.0963009283
0.2550000000	0.0967720336
0.2600000000	0.0971554065
0.2650000000	0.0974464096
0.2700000000	0.0976387404
0.2750000000	0.0977239583
0.2800000000	0.0976910573
0.2850000000	0.0975258319
0.2900000000	0.0972101126
0.2950000000	0.0967207488
0.3000000000	0.0960281935
0.3050000000	0.0950947918
0.3100000000	0.0938723148
0.3150000000	0.0994007169
0.3200000000	0.1059660800
0.3250000000	0.1142757192
0.3300000000	0.1254144621
0.3350000000	0.1392752343
0.3400000000	0.1574254809
0.3450000000	0.1794204183
0.3500000000	0.2081815346
0.3550000000	0.2462179208
0.3600000000	0.2958434360
0.3650000000	0.3649910362
0.3700000000	0.4560749016
0.3750000000	0.5826750082
0.3800000000	0.7656360521
0.3850000000	1.0505381858
0.3900000000	1.5002624788
0.3950000000	2.2635782146
0.4000000000	3.7176905441
0.4050000000	6.9754745122
0.4100000000	15.8579509636
0.4150000000	50.8427167095
0.4200000000	32.4157306602
0.4250000000	-60.8460580560
0.4300000000	16.8865628410
0.4350000000	10.5092610641
0.4400000000	6.4147620517
0.4450000000	4.2123978815
0.4500000000	2.9454324157
0.4550000000	2.1662518064
0.4600000000	1.6590798563
0.4650000000	1.3136604886
0.4700000000	1.0696381550
0.4750000000	0.8932156791
0.4800000000	0.7624393842
0.4850000000	0.6640330912
0.4900000000	0.5888970945
0.4950000000	0.5309254026
0.5000000000	0.4859436359
0.5050000000	0.4508923107
0.5100000000	0.4237980051
0.5150000000	0.4032064158
0.5200000000	0.3876070704
0.5250000000	0.3763110764
0.5300000000	0.3685860311
0.5350000000	0.3638939741
0.5400000000	0.3618377574
0.5450000000	0.3620857724
0.5500000000	0.3645265005
0.5550000000	0.3689709297
0.5600000000	0.3753183277
0.5650000000	0.3835205522
0.5700000000	0.3935311694
0.5750000000	0.4054185820
0.5800000000	0.4192934833
0.5850000000	0.4352266402
0.5900000000	0.4533600775
0.5950000000	0.4738756575
0.6000000000	0.4970041817
0.6050000000	0.5230861981
0.6100000000	0.5524422870
0.6150000000	0.5855139996
0.6200000000	0.6228908047
0.6250000000	0.6651372285
0.6300000000	0.7130894185
0.6350000000	0.7677891787
0.6400000000	0.8303191289
0.6450000000	0.9022446176
0.6500000000	0.9856221516
0.6550000000	1.0825912831
0.6600000000	1.1964434124
0.6650000000	1.3313972417
0.6700000000	1.4924116021
0.6750000000	1.6870522848
0.6800000000	1.9254886777
0.6850000000	2.2210374609
0.6900000000	2.5943226233
0.6950000000	3.0741819835
0.7000000000	3.7064165163
0.7050000000	4.5610256976
0.7100000000	5.7565926035
0.7150000000	7.5041791744
0.7200000000	10.1966079746
0.7250000000	14.6640913837
0.7300000000	22.8609182735
0.7350000000	40.3925124267
0.7400000000	88.4528920286
0.7450000000	293.2078798742
0.7500000000	907.6373051444
0.7550000000	228.1539389680
0.7600000000	75.4989020628
0.7650000000	36.1458047170
0.7700000000	21.0042235666
0.7750000000	13.6978344735
0.7800000000	9.6319668832
0.7850000000	7.1478818711
0.7900000000	5.5178415302
0.7950000000	4.3940670822
0.8000000000	3.5865272985
0.8050000000	2.9853135546
0.8100000000	2.5270218603
0.8150000000	2.1638845852
0.8200000000	1.8773803519
0.8250000000	1.6467651868
0.8300000000	1.4579210464
0.8350000000	1.3026948809
0.8400000000	1.1726081578
0.8450000000	1.0634735492
0.8500000000	0.9712348299
0.8550000000	0.8916602630
0.8600000000	0.8237332827
0.8650000000	0.7657040936
0.8700000000	0.7144449951
0.8750000000	0.6708215177
0.8800000000	0.6337773112
0.8850000000	0.6005683434
0.8900000000	0.5738640500
0.8950000000	0.5495731278
0.9000000000	0.5302492856
0.9050000000	0.5168059190
0.9100000000	0.5044772296
0.9150000000	0.4968299663
0.9200000000	0.4955057768
0.9250000000	0.4944326626
0.9300000000	0.4868450389
0.9350000000	0.4649799372
0.9400000000	0.3448390402
0.9450000000	-0.1997171079
0.9500000000	-3.0703968208
0.9550000000	-17.6195971420
0.9600000000	4.1556291093
0.9650000000	7.2938864767
0.9700000000	3.2335770687
0.9750000000	1.6973363033
0.9800000000	1.0639139762
0.9850000000	0.7677398626
0.9900000000	0.5971719793
0.9950000000	0.4937745883
1.0000000000	0.4277636883
1.0050000000	0.3858949041
1.0100000000	0.3534680347
1.0150000000	0.3297879936
1.0200000000	0.3138281083
1.0250000000	0.3004620983
1.0300000000	0.2903255818
1.0350000000	0.2826788646
1.0400000000	0.2778331056
1.0450000000	0.2738418183
1.0500000000	0.2712528828
1.0550000000	0.2699085657
1.0600000000	0.2701572130
1.0650000000	0.2710279845
1.0700000000	0.2729193668
1.0750000000	0.2758396628
1.0800000000	0.2800519389
1.0850000000	0.2853936662
1.0900000000	0.2932226294
1.0950000000	0.3025081930
1.1000000000	0.3135521300
1.1050000000	0.3263021335
1.1100000000	0.3411492465
1.1150000000	0.3584307649
1.1200000000	0.3785340282
1.1250000000	0.4020193530
1.1300000000	0.4295739342
1.1350000000	0.4620747994
1.1400000000	0.5005066766
1.1450000000	0.5467256431
1.1500000000	0.6027019865
1.1550000000	0.6713059976
1.1600000000	0.7565874454
1.1650000000	0.8637870960
1.1700000000	1.0027872592
1.1750000000	1.1866495794
1.1800000000	1.4369871789
1.1850000000	1.7893405831
1.1900000000	2.3106138498
1.1950000000	3.1294328837
1.2000000000	4.5188145310
1.2050000000	7.1448904664
1.2100000000	12.9217321818
1.2150000000	28.5322916161
1.2200000000	70.0338906638
1.2250000000	62.8610888141
1.2300000000	25.0177757282
1.2350000000	11.6887420179
1.2400000000	6.6392081739
1.2450000000	4.3181237027
1.2500000000	3.0904679487
1.2550000000	2.3782619690
1.2600000000	1.9406226299
1.2650000000	1.6615778083
1.2700000000	1.4887565368
1.2750000000	1.3881184814
1.2800000000	1.3429245234
1.2850000000	1.3451610279
1.2900000000	1.3927734386
1.2950000000	1.4878592839
1.3000000000	1.6431894948
1.3050000000	1.8749235325
1.3100000000	2.2142106995
1.3150000000	2.7152070872
1.3200000000	3.4756743613
1.3250000000	4.6816527090
1.3300000000	6.7419159092
1.3350000000	10.6029093468
1.3400000000	18.8556314996
1.3450000000	39.3384208875
1.3500000000	83.3969241088
1.3550000000	77.7270789952
1.3600000000	35.8304702395
1.3650000000	17.6030248724
1.3700000000	10.0960064477
1.3750000000	6.4940436654
1.3800000000	4.5301823751
1.3850000000	3.3470375700
1.3900000000	2.5841467491
1.3950000000	2.0633796376
1.4000000000	1.6924127683
1.4050000000	1.4192569842
1.4100000000	1.2121446698
1.4150000000	1.0516198222
1.4200000000	0.9232043672
1.4250000000	0.8203498407
1.4300000000	0.7371420040
1.4350000000	0.6525382492
1.4400000000	0.3846894588
1.4450000000	-0.3089537322
1.4500000000	-1.5778893150
1.4550000000	-0.5730588359
1.4600000000	1.4396979276
1.4650000000	0.8760907241
1.4700000000	-0.3738669889
1.4750000000	-2.2846810822
1.4800000000	-0.9958469462
1.4850000000	1.7934722293
1.4900000000	1.4509360225
1.4950000000	0.9453838868
1.5000000000	0.6686647898
1.5050000000	0.5183418586
1.5100000000	0.4321630416
1.5150000000	0.3791194174
1.5200000000	0.3442287442
1.5250000000	0.3220207332
1.5300000000	0.3043771076
1.5350000000	0.2914638270
1.5400000000	0.2820068481
1.5450000000	0.2752279199
1.5500000000	0.2706166884
1.5550000000	0.2679151387
1.5600000000	0.2675572993
1.5650000000	0.2685475252
1.5700000000	0.2717931272
1.5750000000	0.2779120430
1.5800000000	0.2881578597
1.5850000000	0.3049995063
1.5900000000	0.3336440149
1.5950000000	0.3855336601
1.6000000000	0.4845129114
1.6050000000	0.6447486592
1.6100000000	0.7158278415
1.6150000000	0.5781552319
1.6200000000	0.4536727332
1.6250000000	0.3919375116
1.6300000000	0.3649502936
1.6350000000	0.3552948400
1.6400000000	0.3551722514
1.6450000000	0.3610549208
1.6500000000	0.3712772310
1.6550000000	0.3851432417
1.6600000000	0.4023832185
1.6650000000	0.4230283409
1.6700000000	0.4473129851
1.6750000000	0.4756450606
1.6800000000	0.5086036347
1.6850000000	0.5469595856
1.6900000000	0.5917019748
1.6950000000	0.6437707773
1.7000000000	0.7051496565
1.7050000000	0.7794553753
1.7100000000	0.8709758891
1.7150000000	1.0009153276
1.7200000000	1.1809714867
1.7250000000	1.3992381098
1.7300000000	1.6733576412
1.7350000000	1.9662860940
1.7400000000	2.2248968582
1.7450000000	2.5464850760
1.7500000000	3.0454098093
1.7550000000	3.7985649917
1.7600000000	4.9310884206
1.7650000000	6.6793390967
1.7700000000	9.4954837429
1.7750000000	14.2371643505
1.7800000000	22.3089939956
1.7850000000	34.1939447212
1.7900000000	42.4347114415
1.7950000000	36.0766629390
1.8000000000	23.9659794686
1.8050000000	15.1027500949
1.8100000000	9.9329098989
1.8150000000	6.9046199071
1.8200000000	5.0415507946
1.8250000000	3.8335989087
1.8300000000	3.0128800613
1.8350000000	2.4326960483
1.8400000000	2.0088666620
1.8450000000	1.6902218318
1.8500000000	1.4444684516
1.8550000000	1.2513467789
1.8600000000	1.0965303157
1.8650000000	0.9701188883
1.8700000000	0.8648036293
1.8750000000	0.7748540789
1.8800000000	0.6952314370
1.8850000000	0.6208255074
1.8900000000	0.5451420456
1.8950000000	0.4583062310
1.9000000000	0.3436993343
1.9050000000	0.1486313026
1.9100000000	-0.1346215286
1.9150000000	-0.4396840066
1.9200000000	-0.3032873288
1.9250000000	0.5879325863
1.9300000000	1.3037961309
1.9350000000	1.3619007499
1.9400000000	1.1226506913
1.9450000000	0.8809094030
1.9500000000	0.7070903679
1.9550000000	0.5904695336
1.9600000000	0.5117867014
1.9650000000	0.4596945913
1.9700000000	0.4202463704
1.9750000000	0.3912945832
1.9800000000	0.3694880148
1.9850000000	0.3524593130
1.9900000000	0.3385215193
1.9950000000	0.3263081335
2.0000000000	0.3154895606
2.0050000000	0.3099772550
2.0100000000	0.3150343769
2.0150000000	0.3271253916
2.0200000000	0.3366429534
2.0250000000	0.3431322309
2.0300000000	0.3500607615
2.0350000000	0.3589244361
2.0400000000	0.3708648370
2.0450000000	0.3866250958
2.0500000000	0.4070985716
2.0550000000	0.4331912792
2.0600000000	0.4649463811
2.0650000000	0.4993471099
2.0700000000	0.5289093725
2.0750000000	0.5476890843
2.0800000000	0.5597441807
2.0850000000	0.5741378586
2.0900000000	0.5964807936
2.0950000000	0.6284878847
2.1000000000	0.6710815570
2.1050000000	0.7232875225
2.1100000000	0.7887481744
2.1150000000	0.8699921056
2.1200000000	0.9707721086
2.1250000000	1.0964828660
2.1300000000	1.2548163814
2.1350000000	1.4568053053
2.1400000000	1.7183969017
2.1450000000	2.0629010408
2.1500000000	2.5242502254
2.1550000000	3.1504051324
2.1600000000	4.0026863320
2.1650000000	5.1329506876
2.1700000000	6.5215554257
2.1750000000	7.9073965581
2.1800000000	8.7836214491
2.1850000000	8.8822672612
2.1900000000	8.5806363434
2.1950000000	8.3803875818
2.2000000000	8.3227228801
2.2050000000	7.9224548856
2.2100000000	6.9761755191
2.2150000000	5.7741895281
2.2200000000	4.6744087498
2.2250000000	3.7935507164
2.2300000000	3.1002463015
2.2350000000	2.5495796062
2.2400000000	2.1126890050
2.2450000000	1.7716881307
2.2500000000	1.5057477533
2.2550000000	1.2959232264
2.2600000000	1.1264014283
2.2650000000	0.9840257078
2.2700000000	0.8577416998
2.2750000000	0.7397910231
2.2800000000	0.6307229857
2.2850000000	0.5442302391
2.2900000000	0.5005947330
2.2950000000	0.5068067453
2.3000000000	0.5428582130
2.3050000000	0.5780903237
2.3100000000	0.5932980660
2.3150000000	0.5894564506
2.3200000000	0.5749739936
2.3250000000	0.5584346713
2.3300000000	0.5444772540
2.3350000000	0.5347095254
2.3400000000	0.5287985701
2.3450000000	0.5250236551
2.3500000000	0.5210874193
2.3550000000	0.5155207496
2.3600000000	0.5087310997
2.3650000000	0.5025003923
2.3700000000	0.4985951588
2.3750000000	0.4978786435
2.3800000000	0.5002043480
2.3850000000	0.5046864914
2.3900000000	0.5103383069
2.3950000000	0.5163158641
2.4000000000	0.5231228814
2.4050000000	0.5326359067
2.4100000000	0.5458088887
2.4150000000	0.5638514467
2.4200000000	0.5875863040
2.4250000000	0.6177619295
2.4300000000	0.6552178605
2.4350000000	0.7010064210
2.4400000000	0.7564815710
2.4450000000	0.8233901081
2.4500000000	0.9039551843
2.4550000000	1.0009893871
2.4600000000	1.1179658079
2.4650000000	1.2590867961
2.4700000000	1.4292201158
2.4750000000	1.6333207894
2.4800000000	1.8767484468
2.4850000000	2.1619131680
2.4900000000	2.4864547793
2.4950000000	2.8386347594
2.5000000000	3.1923747666
2.5050000000	3.5193153318
2.5100000000	3.7305274575
2.5150000000	3.7767677870
2.5200000000	3.6516692036
2.5250000000	3.3943725674
2.5300000000	3.0644254310
2.5350000000	2.7140592398
2.5400000000	2.3763569291
2.5450000000	2.0676693525
2.5500000000	1.7941063197
2.5550000000	1.5564440801
2.5600000000	1.3512344935
2.5650000000	1.1780277649
2.5700000000	1.0333679337
2.5750000000	0.9152093609
2.5800000000	0.8219544162
2.5850000000	0.7516238822
2.5900000000	0.7006447579
2.5950000000	0.6638445057
2.6000000000	0.6358130194
2.6050000000	0.6158205533
2.6100000000	0.5978692031
2.6150000000	0.5817382100
2.6200000000	0.5678306764
2.6250000000	0.5565429162
2.6300000000	0.5481142312
2.6350000000	0.5426483762
2.6400000000	0.5401997807
2.6450000000	0.5408299335
2.6500000000	0.5446708652
2.6550000000	0.5517447870
2.6600000000	0.5622372882
2.6650000000	0.5763123142
2.6700000000	0.5941630409
2.6750000000	0.6160186687
2.6800000000	0.6421342940
2.6850000000	0.6727885283
2.6900000000	0.7082506113
2.6950000000	0.7487645801
2.7000000000	0.7944994951
2.7050000000	0.8509624573
2.7100000000	0.9142461943
2.7150000000	0.9839162813
2.7200000000	1.0590337361
2.7250000000	1.1380343314
2.7300000000	1.2186174994
2.7350000000	1.2976489505
2.7400000000	1.3711097877
2.7450000000	1.4347574044
2.7500000000	1.4824330666
2.7550000000	1.5099064433
2.7600000000	1.5140003367
2.7650000000	1.4938974649
2.7700000000	1.4514288223
2.7750000000	1.3907026991
2.7800000000	1.3171677330
2.7850000000	1.2366203362
2.7900000000	1.1542387277
2.7950000000	1.0741686843
2.8000000000	0.9993344532
2.8050000000	0.9232393374
2.8100000000	0.8575509722
2.8150000000	0.8021195180
2.8200000000	0.7560736728
2.8250000000	0.7182554212
2.8300000000	0.6875031024
2.8350000000	0.6628266726
2.8400000000	0.6431736497
2.8450000000	0.6286149303
2.8500000000	0.6183791997
2.8550000000	0.6121790689
2.8600000000	0.6098112249
2.8650000000	0.6111150452
2.8700000000	0.6159475470
2.8750000000	0.6241624126
2.8800000000	0.6355903736
2.8850000000	0.6500209616
2.8900000000	0.6671950464
2.8950000000	0.6867961374
2.9000000000	0.7084488347
2.9050000000	0.7368922459
2.9100000000	0.7660946176
2.9150000000	0.7949297777
2.9200000000	0.8220434791
2.9250000000	0.8458655043
2.9300000000	0.8649200638
2.9350000000	0.8772424289
2.9400000000	0.8818484547
2.9450000000	0.8782341862
2.9500000000	0.8666962639
2.9550000000	0.8482873151
2.9600000000	0.8246105970
2.9650000000	0.7975260513
2.9700000000	0.7688588211
2.9750000000	0.7401925119
2.9800000000	0.7127552938
2.9850000000	0.6874039461
2.9900000000	0.6646657187
2.9950000000	0.6448091839
3.0000000000	0.6279209366
