# energy (eV)    P(omega), $W$ = 300 nm, $h$ = 300 nm, $s$ = 20 nm, $d/W = 5$, $E_{\rm e}$ = 200 keV
0.2000000000	0.0712636819
0.2050000000	0.0722873496
0.2100000000	0.0732496010
0.2150000000	0.0741523559
0.2200000000	0.0749972696
0.2250000000	0.0757857103
0.2300000000	0.0765186828
0.2350000000	0.0771968147
0.2400000000	0.0778202848
0.2450000000	0.0783886692
0.2500000000	0.0789010276
0.2550000000	0.0793555538
0.2600000000	0.0797496087
0.2650000000	0.0800795138
0.2700000000	0.0803402270
0.2750000000	0.0805251476
0.2800000000	0.0806257201
0.2850000000	0.0806310055
0.2900000000	0.0805269498
0.2950000000	0.0802958320
0.3000000000	0.0799148318
0.3050000000	0.0793551198
0.3100000000	0.0785796844
0.3150000000	0.0828126438
0.3200000000	0.0878405977
0.3250000000	0.0941964966
0.3300000000	0.1027017321
0.3350000000	0.1132920395
0.3400000000	0.1271616603
0.3450000000	0.1439990977
0.3500000000	0.1660346401
0.3550000000	0.1952063641
0.3600000000	0.2333243689
0.3650000000	0.2864900927
0.3700000000	0.3566619457
0.3750000000	0.4543482328
0.3800000000	0.5957322992
0.3850000000	0.8161713842
0.3900000000	1.1646816715
0.3950000000	1.7571039825
0.4000000000	2.8872331527
0.4050000000	5.4226529950
0.4100000000	12.3458487397
0.4150000000	39.6540080041
0.4200000000	25.2407453300
0.4250000000	-47.6470945467
0.4300000000	13.2777939072
0.4350000000	8.2848268695
0.4400000000	5.0722154798
0.4450000000	3.3416884299
0.4500000000	2.3448119549
0.4550000000	1.7309688474
0.4600000000	1.3309475605
0.4650000000	1.0582152601
0.4700000000	0.8653645065
0.4750000000	0.7258454835
0.4800000000	0.6223816955
0.4850000000	0.5445270946
0.4900000000	0.4851123633
0.4950000000	0.4393226151
0.5000000000	0.4038677015
0.5050000000	0.3763307776
0.5100000000	0.3551587662
0.5150000000	0.3392088841
0.5200000000	0.3272795306
0.5250000000	0.3188355459
0.5300000000	0.3132977483
0.5350000000	0.3102437421
0.5400000000	0.3093626418
0.5450000000	0.3103949019
0.5500000000	0.3132632279
0.5550000000	0.3178228457
0.5600000000	0.3240032305
0.5650000000	0.3317746050
0.5700000000	0.3411117751
0.5750000000	0.3520815596
0.5800000000	0.3647925705
0.5850000000	0.3793161778
0.5900000000	0.3957881608
0.5950000000	0.4143768961
0.6000000000	0.4352965944
0.6050000000	0.4588543053
0.6100000000	0.4853458146
0.6150000000	0.5151725484
0.6200000000	0.5488703200
0.6250000000	0.5869521473
0.6300000000	0.6301762928
0.6350000000	0.6794878866
0.6400000000	0.7358707439
0.6450000000	0.8007442323
0.6500000000	0.8759751842
0.6550000000	0.9635073441
0.6600000000	1.0663269921
0.6650000000	1.1882689146
0.6700000000	1.3338414299
0.6750000000	1.5099166082
0.6800000000	1.7257470189
0.6850000000	1.9934445856
0.6900000000	2.3317838728
0.6950000000	2.7670140125
0.7000000000	3.3408563316
0.7050000000	4.1170899192
0.7100000000	5.2038144275
0.7150000000	6.7934839173
0.7200000000	9.2444666441
0.7250000000	13.3144477236
0.7300000000	20.7877753388
0.7350000000	36.7846866222
0.7400000000	80.6742113469
0.7450000000	267.8309600999
0.7500000000	830.3570559971
0.7550000000	209.0516182693
0.7600000000	69.2859589789
0.7650000000	33.2235893552
0.7700000000	19.3368397616
0.7750000000	12.6306569655
0.7800000000	8.8958962827
0.7850000000	6.6123856254
0.7900000000	5.1128442452
0.7950000000	4.0782712711
0.8000000000	3.3342998499
0.8050000000	2.7800192409
0.8100000000	2.3572047324
0.8150000000	2.0219008610
0.8200000000	1.7571869153
0.8250000000	1.5439823879
0.8300000000	1.3692759794
0.8350000000	1.2256035190
0.8400000000	1.1051358337
0.8450000000	1.0040258426
0.8500000000	0.9185516730
0.8550000000	0.8447703786
0.8600000000	0.7817846066
0.8650000000	0.7279967606
0.8700000000	0.6804564209
0.8750000000	0.6400377442
0.8800000000	0.6057726689
0.8850000000	0.5750489001
0.8900000000	0.5504686595
0.8950000000	0.5281055507
0.9000000000	0.5104534553
0.9050000000	0.4984316085
0.9100000000	0.4874213730
0.9150000000	0.4809082049
0.9200000000	0.4805225816
0.9250000000	0.4803200801
0.9300000000	0.4736042997
0.9350000000	0.4525748153
0.9400000000	0.3338597312
0.9450000000	-0.2071114356
0.9500000000	-3.0648924576
0.9550000000	-17.5704070446
0.9600000000	4.1501187040
0.9650000000	7.2943000129
0.9700000000	3.2374847735
0.9750000000	1.7003712028
0.9800000000	1.0659024444
0.9850000000	0.7690772759
0.9900000000	0.5979659894
0.9950000000	0.4941734296
1.0000000000	0.4278892413
1.0050000000	0.3858847600
1.0100000000	0.3532842736
1.0150000000	0.3294535932
1.0200000000	0.3134095023
1.0250000000	0.2999076499
1.0300000000	0.2896276978
1.0350000000	0.2818230577
1.0400000000	0.2768378850
1.0450000000	0.2726464257
1.0500000000	0.2698256612
1.0550000000	0.2682140611
1.0600000000	0.2681842670
1.0650000000	0.2686993870
1.0700000000	0.2701780830
1.0750000000	0.2726252610
1.0800000000	0.2763153366
1.0850000000	0.2810065693
1.0900000000	0.2879991859
1.0950000000	0.2963149090
1.1000000000	0.3062456761
1.1050000000	0.3176639051
1.1100000000	0.3309425701
1.1150000000	0.3463759439
1.1200000000	0.3643251269
1.1250000000	0.3852021663
1.1300000000	0.4096298892
1.1350000000	0.4383604147
1.1400000000	0.4722643375
1.1450000000	0.5128673514
1.1500000000	0.5618812139
1.1550000000	0.6217557835
1.1600000000	0.6959468119
1.1650000000	0.7889515876
1.1700000000	0.9091272135
1.1750000000	1.0676271026
1.1800000000	1.2828631463
1.1850000000	1.5850819737
1.1900000000	2.0313731646
1.1950000000	2.7311578714
1.2000000000	3.9171416884
1.2050000000	6.1571838187
1.2100000000	11.0836656578
1.2150000000	24.4015830494
1.2200000000	59.8470790890
1.2250000000	53.8219410055
1.2300000000	21.5330491597
1.2350000000	10.1526350751
1.2400000000	5.8442262305
1.2450000000	3.8697733568
1.2500000000	2.8324595619
1.2550000000	2.2386366146
1.2600000000	1.8827883678
1.2650000000	1.6662073754
1.2700000000	1.5452787642
1.2750000000	1.4918642824
1.2800000000	1.4932414073
1.2850000000	1.5447475014
1.2900000000	1.6477849779
1.2950000000	1.8082253911
1.3000000000	2.0445067206
1.3050000000	2.3806318823
1.3100000000	2.8600138397
1.3150000000	3.5574488080
1.3200000000	4.6068494332
1.3250000000	6.2639458891
1.3300000000	9.0869017716
1.3350000000	14.3716874162
1.3400000000	25.6659927708
1.3450000000	53.7104976852
1.3500000000	114.1001137939
1.3550000000	106.4839407851
1.3600000000	49.1235712275
1.3650000000	24.1397715264
1.3700000000	13.8438519547
1.3750000000	8.9020074985
1.3800000000	6.2073458610
1.3850000000	4.5843797513
1.3900000000	3.5389099128
1.3950000000	2.8260818650
1.4000000000	2.3198931356
1.4050000000	1.9492349227
1.4100000000	1.6714668089
1.4150000000	1.4618761145
1.4200000000	1.3042728073
1.4250000000	1.1987324392
1.4300000000	1.1601329881
1.4350000000	1.1817517099
1.4400000000	0.9103338071
1.4450000000	0.0788688570
1.4500000000	-1.2708787122
1.4550000000	-0.3561969252
1.4600000000	1.5394174850
1.4650000000	0.8333324953
1.4700000000	-0.7874139017
1.4750000000	-3.4454688464
1.4800000000	-1.5334789496
1.4850000000	2.5202469412
1.4900000000	2.0429246855
1.4950000000	1.3223201166
1.5000000000	0.9290808203
1.5050000000	0.7173365571
1.5100000000	0.5966490507
1.5150000000	0.5233561495
1.5200000000	0.4760106856
1.5250000000	0.4465939039
1.5300000000	0.4241234307
1.5350000000	0.4086352818
1.5400000000	0.3984339356
1.5450000000	0.3926097481
1.5500000000	0.3905754454
1.5550000000	0.3923461585
1.5600000000	0.3989683031
1.5650000000	0.4099052645
1.5700000000	0.4276129359
1.5750000000	0.4550873520
1.5800000000	0.4979539287
1.5850000000	0.5671628414
1.5900000000	0.6857844483
1.5950000000	0.9048717934
1.6000000000	1.3322643840
1.6050000000	2.0389455354
1.6100000000	2.3662328136
1.6150000000	1.7526961592
1.6200000000	1.1771253244
1.6250000000	0.8733007817
1.6300000000	0.7207476107
1.6350000000	0.6422051106
1.6400000000	0.6023916835
1.6450000000	0.5849091133
1.6500000000	0.5815456039
1.6550000000	0.5884542900
1.6600000000	0.6033391755
1.6650000000	0.6251516850
1.6700000000	0.6534929765
1.6750000000	0.6883650812
1.6800000000	0.7300794487
1.6850000000	0.7791193345
1.6900000000	0.8359117125
1.6950000000	0.8996482883
1.7000000000	0.9692566309
1.7050000000	1.0405826086
1.7100000000	1.1219649591
1.7150000000	1.3243065367
1.7200000000	1.6793567397
1.7250000000	2.0046170915
1.7300000000	2.3536485179
1.7350000000	2.7371696135
1.7400000000	3.1135206941
1.7450000000	3.5969310761
1.7500000000	4.3279572599
1.7550000000	5.4160051314
1.7600000000	7.0439216600
1.7650000000	9.5533667996
1.7700000000	13.5956427517
1.7750000000	20.4058292479
1.7800000000	32.0102598969
1.7850000000	49.1241013825
1.7900000000	61.0481436146
1.7950000000	51.9837345419
1.8000000000	34.5966727923
1.8050000000	21.8486241316
1.8100000000	14.4053450702
1.8150000000	10.0425444871
1.8200000000	7.3576171722
1.8250000000	5.6169702532
1.8300000000	4.4351320644
1.8350000000	3.6009425857
1.8400000000	2.9931976972
1.8450000000	2.5383726842
1.8500000000	2.1901308092
1.8550000000	1.9194780948
1.8600000000	1.7061887919
1.8650000000	1.5365172923
1.8700000000	1.4006876574
1.8750000000	1.2915231714
1.8800000000	1.2033315893
1.8850000000	1.1310837286
1.8900000000	1.0689850721
1.8950000000	1.0083890373
1.9000000000	0.9343643238
1.9050000000	0.7942102612
1.9100000000	0.6013356549
1.9150000000	0.4993259979
1.9200000000	1.2203377112
1.9250000000	3.2126291971
1.9300000000	4.7926432869
1.9350000000	4.7188518935
1.9400000000	3.7114569957
1.9450000000	2.7347680540
1.9500000000	2.0490242847
1.9550000000	1.5997061547
1.9600000000	1.3027841777
1.9650000000	1.1040489013
1.9700000000	0.9605794558
1.9750000000	0.8554109505
1.9800000000	0.7751188224
1.9850000000	0.7099631856
1.9900000000	0.6524910265
1.9950000000	0.5961976329
2.0000000000	0.5401348050
2.0050000000	0.5043171178
2.0100000000	0.5248376294
2.0150000000	0.5813677966
2.0200000000	0.6162230817
2.0250000000	0.6254805292
2.0300000000	0.6275626373
2.0350000000	0.6313517860
2.0400000000	0.6401479303
2.0450000000	0.6547919931
2.0500000000	0.6758291916
2.0550000000	0.7037545401
2.0600000000	0.7385683945
2.0650000000	0.7781631033
2.0700000000	0.8173117683
2.0750000000	0.8520976312
2.0800000000	0.8859778672
2.0850000000	0.9261015244
2.0900000000	0.9772612177
2.0950000000	1.0414757652
2.1000000000	1.1209176993
2.1050000000	1.2148681893
2.1100000000	1.3299301979
2.1150000000	1.4709307173
2.1200000000	1.6446389415
2.1250000000	1.8605496315
2.1300000000	2.1320465536
2.1350000000	2.4782375568
2.1400000000	2.9267137592
2.1450000000	3.5178135522
2.1500000000	4.3103114661
2.1550000000	5.3873895471
2.1600000000	6.8555077815
2.1650000000	8.8048247494
2.1700000000	11.1992735471
2.1750000000	13.5798545804
2.1800000000	15.0507477693
2.1850000000	15.1271597288
2.1900000000	14.4583520358
2.1950000000	13.9378948119
2.2000000000	13.7070860385
2.2050000000	13.0660185491
2.2100000000	11.7050183406
2.2150000000	10.0316787122
2.2200000000	8.5295090831
2.2250000000	7.2880174864
2.2300000000	6.1948125854
2.2350000000	5.2063888539
2.2400000000	4.3573721368
2.2450000000	3.6780486459
2.2500000000	3.1572908187
2.2550000000	2.7660961344
2.2600000000	2.4731970390
2.2650000000	2.2472595779
2.2700000000	2.0544098501
2.2750000000	1.8612730813
2.2800000000	1.6533319517
2.2850000000	1.4554553331
2.2900000000	1.3187077552
2.2950000000	1.2719963001
2.3000000000	1.2886880854
2.3050000000	1.3141789815
2.3100000000	1.3163188775
2.3150000000	1.2953684615
2.3200000000	1.2652447963
2.3250000000	1.2403226415
2.3300000000	1.2279570438
2.3350000000	1.2294110637
2.3400000000	1.2405638745
2.3450000000	1.2520895759
2.3500000000	1.2522451110
2.3550000000	1.2335384938
2.3600000000	1.1980899977
2.3650000000	1.1551647228
2.3700000000	1.1143128873
2.3750000000	1.0812384196
2.3800000000	1.0577943145
2.3850000000	1.0434566858
2.3900000000	1.0370306920
2.3950000000	1.0371321811
2.4000000000	1.0441380591
2.4050000000	1.0603555731
2.4100000000	1.0865578584
2.4150000000	1.1238152709
2.4200000000	1.1727710748
2.4250000000	1.2345514355
2.4300000000	1.3107989182
2.4350000000	1.4037169692
2.4400000000	1.5161489528
2.4450000000	1.6517253764
2.4500000000	1.8150266520
2.4550000000	2.0118099381
2.4600000000	2.2491486271
2.4650000000	2.5355293631
2.4700000000	2.8806854159
2.4750000000	3.2943664185
2.4800000000	3.7866413573
2.4850000000	4.3614959747
2.4900000000	5.0133112945
2.4950000000	5.7187615662
2.5000000000	6.4285174833
2.5050000000	7.0924661178
2.5100000000	7.5410168824
2.5150000000	7.6763537653
2.5200000000	7.4751630296
2.5250000000	6.9995493691
2.5300000000	6.3577143401
2.5350000000	5.6540175937
2.5400000000	4.9621899206
2.5450000000	4.3238911186
2.5500000000	3.7576472452
2.5550000000	3.2676759745
2.5600000000	2.8472406516
2.5650000000	2.4937614553
2.5700000000	2.1989158317
2.5750000000	1.9574937271
2.5800000000	1.7656034581
2.5850000000	1.6190147452
2.5900000000	1.5107701842
2.5950000000	1.4310884345
2.6000000000	1.3697850424
2.6050000000	1.3262177232
2.6100000000	1.2884945006
2.6150000000	1.2560173870
2.6200000000	1.2294279407
2.6250000000	1.2094369894
2.6300000000	1.1965192102
2.6350000000	1.1909168077
2.6400000000	1.1927704749
2.6450000000	1.2022110981
2.6500000000	1.2194949008
2.6550000000	1.2446936666
2.6600000000	1.2781940781
2.6650000000	1.3203867798
2.6700000000	1.3717516553
2.6750000000	1.4328702140
2.6800000000	1.5043869752
2.6850000000	1.5869612261
2.6900000000	1.6811329613
2.6950000000	1.7872153005
2.7000000000	1.9051006888
2.7050000000	2.0481965284
2.7100000000	2.2043648737
2.7150000000	2.3705642458
2.7200000000	2.5423711798
2.7250000000	2.7142289189
2.7300000000	2.8798677897
2.7350000000	3.0326666820
2.7400000000	3.1657401195
2.7450000000	3.2729766061
2.7500000000	3.3448958020
2.7550000000	3.3757588179
2.7600000000	3.3612110325
2.7650000000	3.3007463012
2.7700000000	3.1984165347
2.7750000000	3.0623397152
2.7800000000	2.9030970266
2.7850000000	2.7319136489
2.7900000000	2.5588613337
2.7950000000	2.3920166991
2.8000000000	2.2370907078
2.8050000000	2.0803421853
2.8100000000	1.9461863597
2.8150000000	1.8342634036
2.8200000000	1.7427716476
2.8250000000	1.6693365172
2.8300000000	1.6115660217
2.8350000000	1.5674130372
2.8400000000	1.5347225792
2.8450000000	1.5135696434
2.8500000000	1.5023881090
2.8550000000	1.5005812285
2.8600000000	1.5077033906
2.8650000000	1.5233531455
2.8700000000	1.5470814063
2.8750000000	1.5783183850
2.8800000000	1.6163170945
2.8850000000	1.6601060634
2.8900000000	1.7085175116
2.8950000000	1.7602307276
2.9000000000	1.8138568505
2.9050000000	1.8782974199
2.9100000000	1.9401151618
2.9150000000	1.9973657165
2.9200000000	2.0480085532
2.9250000000	2.0897284498
2.9300000000	2.1203935653
2.9350000000	2.1366884013
2.9400000000	2.1371820338
2.9450000000	2.1212649627
2.9500000000	2.0898555212
2.9550000000	2.0453408170
2.9600000000	1.9911663303
2.9650000000	1.9312360647
2.9700000000	1.8693251385
2.9750000000	1.8086597753
2.9800000000	1.7517120151
2.9850000000	1.7001684534
2.9900000000	1.6550435126
2.9950000000	1.6168133666
3.0000000000	1.5855781915
