# energy (eV)    P(omega), $W$ = 400 nm, $h$ = 300 nm, $s$ = 20 nm, $d/W = 5$, $E_{\rm e}$ = 200 keV
0.2000000000	0.0511242609
0.2050000000	0.0515893303
0.2100000000	0.0519167984
0.2150000000	0.0521011502
0.2200000000	0.0521346742
0.2250000000	0.0520068943
0.2300000000	0.0517040269
0.2350000000	0.0512081253
0.2400000000	0.0504961097
0.2450000000	0.0495382351
0.2500000000	0.0482964728
0.2550000000	0.0467218911
0.2600000000	0.0447514346
0.2650000000	0.0468161889
0.2700000000	0.0520609344
0.2750000000	0.0595660285
0.2800000000	0.0700227950
0.2850000000	0.0854388580
0.2900000000	0.1045405734
0.2950000000	0.1319245911
0.3000000000	0.1687367067
0.3050000000	0.2251610568
0.3100000000	0.3037587765
0.3150000000	0.4558420211
0.3200000000	0.6933674586
0.3250000000	0.8559897997
0.3300000000	1.0809495904
0.3350000000	1.3998632492
0.3400000000	1.9004942301
0.3450000000	2.7594179397
0.3500000000	4.4721893153
0.3550000000	8.4370506156
0.3600000000	20.7351681926
0.3650000000	0.0936131835
0.3700000000	9.6101141866
0.3750000000	12.6369690136
0.3800000000	5.8884189252
0.3850000000	3.3170157371
0.3900000000	2.1275826974
0.3950000000	1.4992708347
0.4000000000	1.1354783047
0.4050000000	0.8983107326
0.4100000000	0.7439094136
0.4150000000	0.6420734029
0.4200000000	0.5777114267
0.4250000000	0.5271633503
0.4300000000	0.4674327579
0.4350000000	0.4201595124
0.4400000000	0.3827716849
0.4450000000	0.3530440023
0.4500000000	0.3295742349
0.4550000000	0.3109634598
0.4600000000	0.2964456448
0.4650000000	0.2852105670
0.4700000000	0.2767218497
0.4750000000	0.2706042120
0.4800000000	0.2665301655
0.4850000000	0.2642125540
0.4900000000	0.2634815667
0.4950000000	0.2642065566
0.5000000000	0.2662759016
0.5050000000	0.2696398502
0.5100000000	0.2742576477
0.5150000000	0.2801050804
0.5200000000	0.2871942737
0.5250000000	0.2955351777
0.5300000000	0.3052502409
0.5350000000	0.3163939088
0.5400000000	0.3290642088
0.5450000000	0.3433896893
0.5500000000	0.3595522301
0.5550000000	0.3777507708
0.5600000000	0.3982274614
0.5650000000	0.4212936702
0.5700000000	0.4473792354
0.5750000000	0.4768027374
0.5800000000	0.5101602689
0.5850000000	0.5482662819
0.5900000000	0.5916701523
0.5950000000	0.6415278734
0.6000000000	0.6993666656
0.6050000000	0.7663311734
0.6100000000	0.8450452668
0.6150000000	0.9376848518
0.6200000000	1.0479851119
0.6250000000	1.1813047583
0.6300000000	1.3431088332
0.6350000000	1.5436664868
0.6400000000	1.7943074325
0.6450000000	2.1155909179
0.6500000000	2.5337793407
0.6550000000	3.0933585663
0.6600000000	3.8694420563
0.6650000000	4.9807027583
0.6700000000	6.6634169779
0.6750000000	9.3689681528
0.6800000000	14.1515406931
0.6850000000	23.7480843199
0.6900000000	47.5949879655
0.6950000000	133.6063231295
0.7000000000	648.0023675906
0.7050000000	315.0425471292
0.7100000000	80.9279225878
0.7150000000	34.4151559401
0.7200000000	18.7945841177
0.7250000000	11.8063765705
0.7300000000	8.0975556803
0.7350000000	5.9050861238
0.7400000000	4.5011076115
0.7450000000	3.5481420197
0.7500000000	2.8730787781
0.7550000000	2.3771292442
0.7600000000	2.0033207906
0.7650000000	1.7134375580
0.7700000000	1.4846043439
0.7750000000	1.3008940231
0.7800000000	1.1516047607
0.7850000000	1.0286802785
0.7900000000	0.9256980679
0.7950000000	0.8396889769
0.8000000000	0.7665580362
0.8050000000	0.7039035370
0.8100000000	0.6505657535
0.8150000000	0.6038174069
0.8200000000	0.5631179629
0.8250000000	0.5289640156
0.8300000000	0.4990679962
0.8350000000	0.4730777449
0.8400000000	0.4523803826
0.8450000000	0.4343208281
0.8500000000	0.4190082480
0.8550000000	0.4093293223
0.8600000000	0.4015763479
0.8650000000	0.3960251769
0.8700000000	0.3979576921
0.8750000000	0.3986345216
0.8800000000	0.3964888384
0.8850000000	0.3792492987
0.8900000000	0.2943104795
0.8950000000	-0.1313616038
0.9000000000	-2.4139322178
0.9050000000	-15.8613243434
0.9100000000	3.0203092718
0.9150000000	7.1545532854
0.9200000000	2.9699929026
0.9250000000	1.5450747485
0.9300000000	0.9431485224
0.9350000000	0.6555674057
0.9400000000	0.5004291248
0.9450000000	0.4144362955
0.9500000000	0.3533669740
0.9550000000	0.3124870409
0.9600000000	0.2872034549
0.9650000000	0.2663405966
0.9700000000	0.2514518996
0.9750000000	0.2413023987
0.9800000000	0.2351191659
0.9850000000	0.2339761815
0.9900000000	0.2362117705
0.9950000000	0.2452783764
1.0000000000	0.2669703702
1.0050000000	0.3176280832
1.0100000000	0.4503963992
1.0150000000	0.9054492417
1.0200000000	1.7385428237
1.0250000000	0.7905555085
1.0300000000	0.4050712795
1.0350000000	0.2901792624
1.0400000000	0.2449995345
1.0450000000	0.2238056194
1.0500000000	0.2131833939
1.0550000000	0.2076118323
1.0600000000	0.2051128017
1.0650000000	0.2046478832
1.0700000000	0.2056413580
1.0750000000	0.2078907081
1.0800000000	0.2109935349
1.0850000000	0.2152152046
1.0900000000	0.2213147095
1.0950000000	0.2284252237
1.1000000000	0.2366164671
1.1050000000	0.2459032526
1.1100000000	0.2564325501
1.1150000000	0.2683444821
1.1200000000	0.2818053255
1.1250000000	0.2969526735
1.1300000000	0.3141789610
1.1350000000	0.3337486738
1.1400000000	0.3560579435
1.1450000000	0.3816104560
1.1500000000	0.4107981489
1.1550000000	0.4448414868
1.1600000000	0.4845121869
1.1650000000	0.5308210594
1.1700000000	0.5839779700
1.1750000000	0.6378900744
1.1800000000	0.6889163833
1.1850000000	0.9574924540
1.1900000000	1.1882398203
1.1950000000	1.6288749723
1.2000000000	2.2183976709
1.2050000000	1.9459396860
1.2100000000	1.8623205403
1.2150000000	2.0733091079
1.2200000000	2.4797043379
1.2250000000	3.1037947677
1.2300000000	4.0527671677
1.2350000000	5.5539419609
1.2400000000	8.0826718136
1.2450000000	12.8442551204
1.2500000000	23.1565068819
1.2550000000	50.1266172355
1.2600000000	121.0767832051
1.2650000000	122.6458653745
1.2700000000	51.0182271314
1.2750000000	23.5500848918
1.2800000000	13.0424720127
1.2850000000	8.2018915384
1.2900000000	5.6216545932
1.2950000000	4.0971508202
1.3000000000	3.1261091011
1.3050000000	2.4723098062
1.3100000000	2.0112760963
1.3150000000	1.6781566259
1.3200000000	1.4312151320
1.3250000000	1.2453832181
1.3300000000	1.1054345844
1.3350000000	1.0020263193
1.3400000000	0.9303080249
1.3450000000	0.8889501035
1.3500000000	0.8839874079
1.3550000000	0.9291585017
1.3600000000	1.0594196731
1.3650000000	1.3637245214
1.3700000000	2.0904387040
1.3750000000	3.8985560696
1.3800000000	6.3680516856
1.3850000000	4.4485599312
1.3900000000	2.2670006754
1.3950000000	1.3153795777
1.4000000000	0.8614357698
1.4050000000	0.5824463757
1.4100000000	0.3299450678
1.4150000000	-0.0467247951
1.4200000000	-0.8900172147
1.4250000000	-3.1245084639
1.4300000000	-4.2011177238
1.4350000000	1.9247229652
1.4400000000	2.4620135327
1.4450000000	1.4760874274
1.4500000000	0.9184837076
1.4550000000	0.6331522427
1.4600000000	0.4675453887
1.4650000000	0.3366625062
1.4700000000	0.1966606678
1.4750000000	0.2311153938
1.4800000000	0.3388384538
1.4850000000	0.3076761636
1.4900000000	0.2724389381
1.4950000000	0.2496472746
1.5000000000	0.2346749958
1.5050000000	0.2247752154
1.5100000000	0.2180403899
1.5150000000	0.2143652940
1.5200000000	0.2116558639
1.5250000000	0.2106775775
1.5300000000	0.2115202349
1.5350000000	0.2145698982
1.5400000000	0.2207899312
1.5450000000	0.2323199098
1.5500000000	0.2539688315
1.5550000000	0.2953223622
1.5600000000	0.3573962429
1.5650000000	0.3673451757
1.5700000000	0.3113332179
1.5750000000	0.2720301873
1.5800000000	0.2550780171
1.5850000000	0.2497474255
1.5900000000	0.2504443107
1.5950000000	0.2547393386
1.6000000000	0.2615741714
1.6050000000	0.2705845710
1.6100000000	0.2814985131
1.6150000000	0.2942755820
1.6200000000	0.3091193619
1.6250000000	0.3262054816
1.6300000000	0.3458225288
1.6350000000	0.3683425352
1.6400000000	0.3942412172
1.6450000000	0.4241261496
1.6500000000	0.4587599807
1.6550000000	0.4991091944
1.6600000000	0.5464259677
1.6650000000	0.6023265930
1.6700000000	0.6683826292
1.6750000000	0.7484506305
1.6800000000	0.8459395245
1.6850000000	0.9662121646
1.6900000000	1.1168827897
1.6950000000	1.3091250829
1.7000000000	1.5597597379
1.7050000000	1.9055176454
1.7100000000	2.3879126636
1.7150000000	3.0890863295
1.7200000000	4.1577027795
1.7250000000	5.8530261883
1.7300000000	8.4582726922
1.7350000000	11.8015952196
1.7400000000	16.0279699692
1.7450000000	23.4445765968
1.7500000000	33.0720770597
1.7550000000	33.6040800102
1.7600000000	23.5754218246
1.7650000000	14.6853031221
1.7700000000	9.4138659380
1.7750000000	6.4163298687
1.7800000000	4.6449125549
1.7850000000	3.5552703563
1.7900000000	2.8795257625
1.7950000000	2.4928715568
1.8000000000	2.3368054650
1.8050000000	2.2873922750
1.8100000000	2.0351198098
1.8150000000	1.5769264992
1.8200000000	1.2108628934
1.8250000000	1.0221240109
1.8300000000	0.8898671590
1.8350000000	0.7723262712
1.8400000000	0.6764801121
1.8450000000	0.6004201272
1.8500000000	0.5391238041
1.8550000000	0.4884861944
1.8600000000	0.4419066560
1.8650000000	0.4025282274
1.8700000000	0.3627306267
1.8750000000	0.3053589487
1.8800000000	0.1745789581
1.8850000000	-0.1120544453
1.8900000000	-0.4975955106
1.8950000000	-0.5637486625
1.9000000000	0.0603297219
1.9050000000	0.6421935618
1.9100000000	0.7100890281
1.9150000000	0.5998929694
1.9200000000	0.4918904673
1.9250000000	0.4152509852
1.9300000000	0.3688369185
1.9350000000	0.3334005995
1.9400000000	0.3098255454
1.9450000000	0.2942179390
1.9500000000	0.2833081567
1.9550000000	0.2741825614
1.9600000000	0.2663064825
1.9650000000	0.2607150135
1.9700000000	0.2577296854
1.9750000000	0.2571517430
1.9800000000	0.2588203043
1.9850000000	0.2627839393
1.9900000000	0.2693028750
1.9950000000	0.2787025578
2.0000000000	0.2907385988
2.0050000000	0.3043931896
2.0100000000	0.3141891814
2.0150000000	0.3207246180
2.0200000000	0.3286052905
2.0250000000	0.3407679490
2.0300000000	0.3580769624
2.0350000000	0.3809652225
2.0400000000	0.4102187079
2.0450000000	0.4472010283
2.0500000000	0.4938704817
2.0550000000	0.5524032194
2.0600000000	0.6238545872
2.0650000000	0.7071012184
2.0700000000	0.8033936392
2.0750000000	0.9234736039
2.0800000000	1.0850756059
2.0850000000	1.3054909037
2.0900000000	1.5947755371
2.0950000000	1.9321457115
2.1000000000	2.2328370626
2.1050000000	2.3785418660
2.1100000000	2.3093506555
2.1150000000	2.1501305232
2.1200000000	2.0375935037
2.1250000000	2.0327958081
2.1300000000	2.1538517946
2.1350000000	2.4151189984
2.1400000000	2.8453546649
2.1450000000	3.4954345219
2.1500000000	4.4366011946
2.1550000000	5.7223689872
2.1600000000	7.2490497586
2.1650000000	8.5321995897
2.1700000000	8.8353922857
2.1750000000	7.9091080868
2.1800000000	6.3852343947
2.1850000000	4.9265115455
2.1900000000	3.7860065648
2.1950000000	2.9620267510
2.2000000000	2.3839383573
2.2050000000	1.9851074865
2.2100000000	1.7082391343
2.2150000000	1.4958780548
2.2200000000	1.3055860909
2.2250000000	1.1245847146
2.2300000000	0.9606990682
2.2350000000	0.8199802339
2.2400000000	0.7007964673
2.2450000000	0.5978860416
2.2500000000	0.5060114289
2.2550000000	0.4222432865
2.2600000000	0.3384734183
2.2650000000	0.2775322686
2.2700000000	0.2444281895
2.2750000000	0.2527600036
2.2800000000	0.3008377193
2.2850000000	0.3620595999
2.2900000000	0.4068722351
2.2950000000	0.4267326746
2.3000000000	0.4290024243
2.3050000000	0.4221466791
2.3100000000	0.4131169719
2.3150000000	0.4051167856
2.3200000000	0.3994126080
2.3250000000	0.3966995970
2.3300000000	0.3975399499
2.3350000000	0.4023993994
2.3400000000	0.4116759432
2.3450000000	0.4257724121
2.3500000000	0.4451156445
2.3550000000	0.4703455572
2.3600000000	0.5010479246
2.3650000000	0.5374138430
2.3700000000	0.5793422543
2.3750000000	0.6272883648
2.3800000000	0.6829829020
2.3850000000	0.7484794812
2.3900000000	0.8242321648
2.3950000000	0.9068678103
2.4000000000	0.9877149438
2.4050000000	1.0573873487
2.4100000000	1.0960052972
2.4150000000	1.0996971352
2.4200000000	1.0779042453
2.4250000000	1.0467265148
2.4300000000	1.0204529867
2.4350000000	1.0077092863
2.4400000000	1.0119376115
2.4450000000	1.0336944011
2.4500000000	1.0730494958
2.4550000000	1.1308798859
2.4600000000	1.2108927676
2.4650000000	1.3168883758
2.4700000000	1.4530985913
2.4750000000	1.6221664939
2.4800000000	1.8227581084
2.4850000000	2.0463147887
2.4900000000	2.2732588991
2.4950000000	2.4711024347
2.5000000000	2.5991913223
2.5050000000	2.6156591711
2.5100000000	2.5037890130
2.5150000000	2.2941161603
2.5200000000	2.0354307055
2.5250000000	1.7705960472
2.5300000000	1.5257400908
2.5350000000	1.3118409091
2.5400000000	1.1305147023
2.5450000000	0.9790712431
2.5500000000	0.8536118951
2.5550000000	0.7506337939
2.5600000000	0.6645263492
2.5650000000	0.6000850870
2.5700000000	0.5537819104
2.5750000000	0.5239655611
2.5800000000	0.5073266495
2.5850000000	0.4993390142
2.5900000000	0.4957549702
2.5950000000	0.4939295206
2.6000000000	0.4930098328
2.6050000000	0.4969402416
2.6100000000	0.5031680211
2.6150000000	0.5126467933
2.6200000000	0.5258832031
2.6250000000	0.5429084573
2.6300000000	0.5632419917
2.6350000000	0.5858638677
2.6400000000	0.6092156914
2.6450000000	0.6313212821
2.6500000000	0.6500877525
2.6550000000	0.6637991360
2.6600000000	0.6716583393
2.6650000000	0.6741335247
2.6700000000	0.6728590981
2.6750000000	0.6702241857
2.6800000000	0.6685438307
2.6850000000	0.6699810005
2.6900000000	0.6760420022
2.6950000000	0.6876525654
2.7000000000	0.7052565621
2.7050000000	0.7316068733
2.7100000000	0.7655180787
2.7150000000	0.8064419798
2.7200000000	0.8532453734
2.7250000000	0.9040045812
2.7300000000	0.9558154690
2.7350000000	1.0047626617
2.7400000000	1.0461888092
2.7450000000	1.0753651641
2.7500000000	1.0884802667
2.7550000000	1.0836138538
2.7600000000	1.0612565181
2.7650000000	1.0241326880
2.7700000000	0.9764113193
2.7750000000	0.9227113618
2.7800000000	0.8672681455
2.7850000000	0.8134699057
2.7900000000	0.7632809363
2.7950000000	0.7188507316
2.8000000000	0.6806239980
2.8050000000	0.6452187181
2.8100000000	0.6173038992
2.8150000000	0.5957806472
2.8200000000	0.5794551741
2.8250000000	0.5672320207
2.8300000000	0.5581801299
2.8350000000	0.5515272174
2.8400000000	0.5466207122
2.8450000000	0.5429065707
2.8500000000	0.5399398934
2.8550000000	0.5374253292
2.8600000000	0.5352628740
2.8650000000	0.5335626422
2.8700000000	0.5326168858
2.8750000000	0.5328275693
2.8800000000	0.5346173463
2.8850000000	0.5383492904
2.8900000000	0.5442709680
2.8950000000	0.5524807407
2.9000000000	0.5629111498
2.9050000000	0.5785126129
2.9100000000	0.5956212976
2.9150000000	0.6130949558
2.9200000000	0.6294900331
2.9250000000	0.6432558023
2.9300000000	0.6529524569
2.9350000000	0.6575034761
2.9400000000	0.6564039478
2.9450000000	0.6498169885
2.9500000000	0.6385127581
2.9550000000	0.6236721720
2.9600000000	0.6066380139
2.9650000000	0.5886822010
2.9700000000	0.5708507444
2.9750000000	0.5538959307
2.9800000000	0.5382809119
2.9850000000	0.5242297237
2.9900000000	0.5117944716
2.9950000000	0.5009206298
3.0000000000	0.4915003405
