# energy (eV)    P(omega), $W$ = 400 nm, $h$ = 300 nm, $s$ = 20 nm, $d/W = 5$, $E_{\rm e}$ = 200 keV
0.2000000000	0.1629621590
0.2050000000	0.1644446438
0.2100000000	0.1654882477
0.2150000000	0.1660753940
0.2200000000	0.1661815053
0.2250000000	0.1657731890
0.2300000000	0.1648065060
0.2350000000	0.1632242433
0.2400000000	0.1609528202
0.2450000000	0.1578974063
0.2500000000	0.1539367582
0.2550000000	0.1489148719
0.2600000000	0.1426307089
0.2650000000	0.1492141485
0.2700000000	0.1659376377
0.2750000000	0.1898683380
0.2800000000	0.2232104005
0.2850000000	0.2723650980
0.2900000000	0.3332707389
0.2950000000	0.4205836663
0.3000000000	0.5379563971
0.3050000000	0.7178600017
0.3100000000	0.9684585155
0.3150000000	1.4533544953
0.3200000000	2.2106632620
0.3250000000	2.7291381207
0.3300000000	3.4463532133
0.3350000000	4.4631042230
0.3400000000	6.0591935706
0.3450000000	8.7975632779
0.3500000000	14.2580960523
0.3550000000	26.8985100647
0.3600000000	66.1060475609
0.3650000000	0.2991245601
0.3700000000	30.6373160536
0.3750000000	40.2867248971
0.3800000000	18.7720890739
0.3850000000	10.5744059271
0.3900000000	6.7824902771
0.3950000000	4.7794387756
0.4000000000	3.6196755131
0.4050000000	2.8635926980
0.4100000000	2.3713660495
0.4150000000	2.0467143675
0.4200000000	1.8415257831
0.4250000000	1.6803756951
0.4300000000	1.4899585799
0.4350000000	1.3392546576
0.4400000000	1.2200644693
0.4450000000	1.1252938457
0.4500000000	1.0504724074
0.4550000000	0.9911404781
0.4600000000	0.9448559120
0.4650000000	0.9090357519
0.4700000000	0.8819700796
0.4750000000	0.8624624512
0.4800000000	0.8494688308
0.4850000000	0.8420737853
0.4900000000	0.8397359008
0.4950000000	0.8420386563
0.5000000000	0.8486261158
0.5050000000	0.8593396259
0.5100000000	0.8740491698
0.5150000000	0.8926774608
0.5200000000	0.9152630448
0.5250000000	0.9418375327
0.5300000000	0.9727910561
0.5350000000	1.0082970356
0.5400000000	1.0486677306
0.5450000000	1.0943127513
0.5500000000	1.1458115477
0.5550000000	1.2037980161
0.5600000000	1.2690436791
0.5650000000	1.3425406418
0.5700000000	1.4256585048
0.5750000000	1.5194123122
0.5800000000	1.6257014131
0.5850000000	1.7471209414
0.5900000000	1.8854212582
0.5950000000	2.0442857407
0.6000000000	2.2285806656
0.6050000000	2.4419529877
0.6100000000	2.6927633038
0.6150000000	2.9879445015
0.6200000000	3.3393979501
0.6250000000	3.7641981008
0.6300000000	4.2797577679
0.6350000000	4.9187975000
0.6400000000	5.7174164060
0.6450000000	6.7411218699
0.6500000000	8.0735918492
0.6550000000	9.8565697203
0.6600000000	12.3293852907
0.6650000000	15.8701580149
0.6700000000	21.2317199686
0.6750000000	29.8522804805
0.6800000000	45.0907071295
0.6850000000	75.6675170686
0.6900000000	151.6490539806
0.6950000000	425.6994446392
0.7000000000	2064.6681398379
0.7050000000	1003.7844557281
0.7100000000	257.8500674379
0.7150000000	109.6519100477
0.7200000000	59.8820663495
0.7250000000	37.6164917950
0.7300000000	25.7996144094
0.7350000000	18.8140855822
0.7400000000	14.3408167364
0.7450000000	11.3045451584
0.7500000000	9.1537120733
0.7550000000	7.5735608838
0.7600000000	6.3825678973
0.7650000000	5.4589716868
0.7700000000	4.7298885988
0.7750000000	4.1445723193
0.7800000000	3.6689253336
0.7850000000	3.2772793673
0.7900000000	2.9491715767
0.7950000000	2.6751415835
0.8000000000	2.4421424728
0.8050000000	2.2425221941
0.8100000000	2.0725854816
0.8150000000	1.9236432721
0.8200000000	1.7939732350
0.8250000000	1.6851570294
0.8300000000	1.5899067106
0.8350000000	1.5071001896
0.8400000000	1.4411561567
0.8450000000	1.3836161082
0.8500000000	1.3348277351
0.8550000000	1.3039866200
0.8600000000	1.2792812879
0.8650000000	1.2615904541
0.8700000000	1.2677395941
0.8750000000	1.2698890442
0.8800000000	1.2630481490
0.8850000000	1.2081278379
0.8900000000	0.9375600017
0.8950000000	-0.4183711813
0.9000000000	-7.6891964235
0.9050000000	-50.5238660536
0.9100000000	9.6206898206
0.9150000000	22.7895554776
0.9200000000	9.4603598627
0.9250000000	4.9215477638
0.9300000000	3.0042329571
0.9350000000	2.0882064906
0.9400000000	1.5940516862
0.9450000000	1.3201462106
0.9500000000	1.1256319491
0.9550000000	0.9954289138
0.9600000000	0.9149071468
0.9650000000	0.8484715009
0.9700000000	0.8010712290
0.9750000000	0.7687753845
0.9800000000	0.7491264992
0.9850000000	0.7455529582
0.9900000000	0.7527773251
0.9950000000	0.7818257057
1.0000000000	0.8512235687
1.0050000000	1.0132038074
1.0100000000	1.4376789110
1.0150000000	2.8924112185
1.0200000000	5.5554715573
1.0250000000	2.5249111733
1.0300000000	1.2926509354
1.0350000000	0.9253875229
1.0400000000	0.7809615995
1.0450000000	0.7132018873
1.0500000000	0.6792265699
1.0550000000	0.6613926451
1.0600000000	0.6533741909
1.0650000000	0.6518517075
1.0700000000	0.6549847672
1.0750000000	0.6621245969
1.0800000000	0.6719871413
1.0850000000	0.6854159800
1.0900000000	0.7048271289
1.0950000000	0.7274596053
1.1000000000	0.7535350815
1.1050000000	0.7831000450
1.1100000000	0.8166224183
1.1150000000	0.8545481486
1.1200000000	0.8974066011
1.1250000000	0.9456360194
1.1300000000	1.0004855988
1.1350000000	1.0627978610
1.1400000000	1.1338339982
1.1450000000	1.2151981347
1.1500000000	1.3081389504
1.1550000000	1.4165428564
1.1600000000	1.5428689001
1.1650000000	1.6903402458
1.1700000000	1.8596366345
1.1750000000	2.0314055898
1.1800000000	2.1940963182
1.1850000000	3.0487253841
1.1900000000	3.7836349702
1.1950000000	5.1872809150
1.2000000000	7.0650757520
1.2050000000	6.1968858668
1.2100000000	5.9301542970
1.2150000000	6.6017754114
1.2200000000	7.8956810516
1.2250000000	9.8827745663
1.2300000000	12.9043173809
1.2350000000	17.6840935901
1.2400000000	25.7356279695
1.2450000000	40.8966025502
1.2500000000	73.7309554374
1.2550000000	159.6039825467
1.2600000000	385.5091276775
1.2650000000	390.5036264595
1.2700000000	162.4410466148
1.2750000000	74.9826830933
1.2800000000	41.5265900171
1.2850000000	26.1142750035
1.2900000000	17.8988579766
1.2950000000	13.0448730674
1.3000000000	9.9530952652
1.3050000000	7.8714046802
1.3100000000	6.4034685655
1.3150000000	5.3428002991
1.3200000000	4.5565105021
1.3250000000	3.9647786642
1.3300000000	3.5191198242
1.3350000000	3.1897788775
1.3400000000	2.9612998098
1.3450000000	2.8294275898
1.3500000000	2.8133378118
1.3550000000	2.9566966760
1.3600000000	3.3706361491
1.3650000000	4.3379751629
1.3700000000	6.6483825209
1.3750000000	12.3971164000
1.3800000000	20.2487242095
1.3850000000	14.1456199511
1.3900000000	7.2092541848
1.3950000000	4.1834393272
1.4000000000	2.7399372895
1.4050000000	1.8525928504
1.4100000000	1.0491992203
1.4150000000	-0.1497025126
1.4200000000	-2.8342978233
1.4250000000	-9.9481057970
1.4300000000	-13.3755591146
1.4350000000	6.1273004055
1.4400000000	7.8378933545
1.4450000000	4.6990618978
1.4500000000	2.9238771712
1.4550000000	2.0155273890
1.4600000000	1.4883760157
1.4650000000	1.0718913623
1.4700000000	0.6265790328
1.4750000000	0.7359611072
1.4800000000	1.0783315884
1.4850000000	0.9791792269
1.4900000000	0.8670925127
1.4950000000	0.7945884953
1.5000000000	0.7469556853
1.5050000000	0.7154607907
1.5100000000	0.6940362434
1.5150000000	0.6823502702
1.5200000000	0.6737385453
1.5250000000	0.6706399793
1.5300000000	0.6733430262
1.5350000000	0.6830810209
1.5400000000	0.7029286593
1.5450000000	0.7397136886
1.5500000000	0.8087817953
1.5550000000	0.9407214552
1.5600000000	1.1387765523
1.5650000000	1.1705074720
1.5700000000	0.9917485269
1.5750000000	0.8662943662
1.5800000000	0.8121529766
1.5850000000	0.7950885374
1.5900000000	0.7972500631
1.5950000000	0.8108848576
1.6000000000	0.8326148066
1.6050000000	0.8612759312
1.6100000000	0.8959994894
1.6150000000	0.9366552769
1.6200000000	0.9838904527
1.6250000000	1.0382632569
1.6300000000	1.1006917349
1.6350000000	1.1723595804
1.6400000000	1.2547805477
1.6450000000	1.3498880457
1.6500000000	1.4601089685
1.6550000000	1.5885189509
1.6600000000	1.7391027498
1.6650000000	1.9170038436
1.6700000000	2.1272228335
1.6750000000	2.3820329850
1.6800000000	2.6922816755
1.6850000000	3.0750341199
1.6900000000	3.5545194255
1.6950000000	4.1662922262
1.7000000000	4.9638746408
1.7050000000	6.0641417184
1.7100000000	7.5991751906
1.7150000000	9.8303156795
1.7200000000	13.2305354934
1.7250000000	18.6246876412
1.7300000000	26.9141059939
1.7350000000	37.5538602933
1.7400000000	51.0077775184
1.7450000000	74.6165827573
1.7500000000	105.2612817553
1.7550000000	106.9552378484
1.7600000000	75.0356718960
1.7650000000	46.7398728826
1.7700000000	29.9617892326
1.7750000000	20.4211493276
1.7800000000	14.7829994905
1.7850000000	11.3147532950
1.7900000000	9.1637534561
1.7950000000	7.9326791624
1.8000000000	7.4352465418
1.8050000000	7.2772206331
1.8100000000	6.4744207990
1.8150000000	5.0170473148
1.8200000000	3.8527114627
1.8250000000	3.2522595174
1.8300000000	2.8314626472
1.8350000000	2.4575097808
1.8400000000	2.1525744118
1.8450000000	1.9105781959
1.8500000000	1.7155453066
1.8550000000	1.5544185697
1.8600000000	1.4061946180
1.8650000000	1.2808789513
1.8700000000	1.1542188365
1.8750000000	0.9716178965
1.8800000000	0.5553874697
1.8850000000	-0.3568441376
1.8900000000	-1.5838395544
1.8950000000	-1.7943401962
1.9000000000	0.1918818022
1.9050000000	2.0437276337
1.9100000000	2.2598130082
1.9150000000	1.9091088113
1.9200000000	1.5653887323
1.9250000000	1.3214868268
1.9300000000	1.1737833937
1.9350000000	1.0610232228
1.9400000000	0.9860205663
1.9450000000	0.9363819073
1.9500000000	0.9016866121
1.9550000000	0.8726377058
1.9600000000	0.8475389134
1.9650000000	0.8297103853
1.9700000000	0.8201865194
1.9750000000	0.8183346128
1.9800000000	0.8236411625
1.9850000000	0.8362606855
1.9900000000	0.8570230907
1.9950000000	0.8869664522
2.0000000000	0.9253105994
2.0050000000	0.9687958745
2.0100000000	0.9999544674
2.0150000000	1.0206873893
2.0200000000	1.0456869136
2.0250000000	1.0843199080
2.0300000000	1.1393385828
2.0350000000	1.2121155905
2.0400000000	1.3051466126
2.0450000000	1.4227657629
2.0500000000	1.5711993883
2.0550000000	1.7573665073
2.0600000000	1.9846196432
2.0650000000	2.2493787867
2.0700000000	2.5556135201
2.0750000000	2.9374841546
2.0800000000	3.4513922244
2.0850000000	4.1523260738
2.0900000000	5.0722662115
2.0950000000	6.1451289745
2.1000000000	7.1013937598
2.1050000000	7.5648833337
2.1100000000	7.3451165705
2.1150000000	6.8391488092
2.1200000000	6.4817048185
2.1250000000	6.4669559897
2.1300000000	6.8525461787
2.1350000000	7.6841955920
2.1400000000	9.0534422270
2.1450000000	11.1221940302
2.1500000000	14.1171470938
2.1550000000	18.2085634114
2.1600000000	23.0664924491
2.1650000000	27.1494516483
2.1700000000	28.1141592773
2.1750000000	25.1666688676
2.1800000000	20.3176710211
2.1850000000	15.6760126104
2.1900000000	12.0469471928
2.1950000000	9.4250828439
2.2000000000	7.5856601222
2.2050000000	6.3166478215
2.2100000000	5.4357207432
2.2150000000	4.7600330037
2.2200000000	4.1545249412
2.2250000000	3.5785407646
2.2300000000	3.0570050950
2.2350000000	2.6091912146
2.2400000000	2.2299126929
2.2450000000	1.9024262335
2.2500000000	1.6100633647
2.2550000000	1.3434995777
2.2600000000	1.0769317541
2.2650000000	0.8830026803
2.2700000000	0.7776504940
2.2750000000	0.8041489333
2.2800000000	0.9571207066
2.2850000000	1.1519176751
2.2900000000	1.2945003089
2.2950000000	1.3576849807
2.3000000000	1.3648959408
2.3050000000	1.3430690080
2.3100000000	1.3143228438
2.3150000000	1.2888500161
2.3200000000	1.2706801369
2.3250000000	1.2620250712
2.3300000000	1.2646734544
2.3350000000	1.2801064732
2.3400000000	1.3095894885
2.3450000000	1.3544029497
2.3500000000	1.4159036709
2.3550000000	1.4961264164
2.3600000000	1.5937526924
2.3650000000	1.7093902218
2.3700000000	1.8427172700
2.3750000000	1.9951810946
2.3800000000	2.1722850973
2.3850000000	2.3805598055
2.3900000000	2.6214497942
2.3950000000	2.8842303725
2.4000000000	3.1413295706
2.4050000000	3.3629060767
2.4100000000	3.4857466328
2.4150000000	3.4975404426
2.4200000000	3.4283079262
2.4250000000	3.3292427859
2.4300000000	3.2457817602
2.4350000000	3.2053541658
2.4400000000	3.2189072575
2.4450000000	3.2882129542
2.4500000000	3.4134965971
2.4550000000	3.5975530524
2.4600000000	3.8521781368
2.4650000000	4.1894638640
2.4700000000	4.6228730477
2.4750000000	5.1608123437
2.4800000000	5.7990345277
2.4850000000	6.5103073586
2.4900000000	7.2323427867
2.4950000000	7.8617802001
2.5000000000	8.2692815027
2.5050000000	8.3216521846
2.5100000000	7.9657127464
2.5150000000	7.2986160804
2.5200000000	6.4755899873
2.5250000000	5.6330049793
2.5300000000	4.8539859681
2.5350000000	4.1734588443
2.5400000000	3.5965645530
2.5450000000	3.1147431473
2.5500000000	2.7155906050
2.5550000000	2.3879619286
2.5600000000	2.1140067028
2.5650000000	1.9089809552
2.5700000000	1.7616596587
2.5750000000	1.6667888860
2.5800000000	1.6138396035
2.5850000000	1.5884119503
2.5900000000	1.5769922261
2.5950000000	1.5711656055
2.6000000000	1.5682187609
2.6050000000	1.5806967112
2.6100000000	1.6004803292
2.6150000000	1.6306028112
2.6200000000	1.6726756673
2.6250000000	1.7267983862
2.6300000000	1.7914430959
2.6350000000	1.8633668218
2.6400000000	1.9376145663
2.6450000000	2.0079030209
2.6500000000	2.0675778484
2.6550000000	2.1111832750
2.6600000000	2.1361851414
2.6650000000	2.1440722561
2.6700000000	2.1400415448
2.6750000000	2.1316896806
2.6800000000	2.1263777136
2.6850000000	2.1309832459
2.6900000000	2.1502960443
2.6950000000	2.1872598712
2.7000000000	2.2432863303
2.7050000000	2.3271356322
2.7100000000	2.4350335892
2.7150000000	2.5652365478
2.7200000000	2.7141397922
2.7250000000	2.8756239991
2.7300000000	3.0404507064
2.7350000000	3.1961643909
2.7400000000	3.3279495627
2.7450000000	3.4207635061
2.7500000000	3.4624815092
2.7550000000	3.4469953316
2.7600000000	3.3758662806
2.7650000000	3.2577616163
2.7700000000	3.1059438262
2.7750000000	2.9351068452
2.7800000000	2.7587241780
2.7850000000	2.5875742077
2.7900000000	2.4279056084
2.7950000000	2.2865561679
2.8000000000	2.1649404775
2.8050000000	2.0522985734
2.8100000000	1.9634843727
2.8150000000	1.8950023549
2.8200000000	1.8430551959
2.8250000000	1.8041583983
2.8300000000	1.7753505750
2.8350000000	1.7541754429
2.8400000000	1.7385575806
2.8450000000	1.7267350288
2.8500000000	1.7172929256
2.8550000000	1.7092920127
2.8600000000	1.7024141344
2.8650000000	1.6970093017
2.8700000000	1.6940066161
2.8750000000	1.6946840311
2.8800000000	1.7003852909
2.8850000000	1.7122646631
2.8900000000	1.7311091483
2.8950000000	1.7572312231
2.9000000000	1.7904160520
2.9050000000	1.8400497020
2.9100000000	1.8944759393
2.9150000000	1.9500614014
2.9200000000	2.0022142716
2.9250000000	2.0460019106
2.9300000000	2.0768445495
2.9350000000	2.0913180555
2.9400000000	2.0878165590
2.9450000000	2.0668591664
2.9500000000	2.0308959259
2.9550000000	1.9836834807
2.9600000000	1.9294932901
2.9650000000	1.8723714079
2.9700000000	1.8156452509
2.9750000000	1.7617079030
2.9800000000	1.7120327463
2.9850000000	1.6673324861
2.9900000000	1.6277729874
2.9950000000	1.5931808806
3.0000000000	1.5632131693
