# energy (eV)    P(omega), $W$ = 400 nm, $h$ = 300 nm, $s$ = 20 nm, $d/W = 5$, $E_{\rm e}$ = 200 keV
0.2000000000	0.0774983356
0.2050000000	0.0782032802
0.2100000000	0.0786995534
0.2150000000	0.0789787977
0.2200000000	0.0790293254
0.2250000000	0.0788352577
0.2300000000	0.0783757005
0.2350000000	0.0776234484
0.2400000000	0.0765435127
0.2450000000	0.0750908013
0.2500000000	0.0732076617
0.2550000000	0.0708199131
0.2600000000	0.0678319609
0.2650000000	0.0709623567
0.2700000000	0.0789142368
0.2750000000	0.0902931098
0.2800000000	0.1061470591
0.2850000000	0.1295198721
0.2900000000	0.1584803076
0.2950000000	0.1999974166
0.3000000000	0.2558080638
0.3050000000	0.3413522567
0.3100000000	0.4605122228
0.3150000000	0.6910811889
0.3200000000	1.0511838699
0.3250000000	1.2977224695
0.3300000000	1.6387641549
0.3350000000	2.1222385777
0.3400000000	2.8811946328
0.3450000000	4.1833178407
0.3500000000	6.7798607912
0.3550000000	12.7905243790
0.3600000000	31.4341910574
0.3650000000	0.1421314904
0.3700000000	14.5685126618
0.3750000000	19.1569816701
0.3800000000	8.9264590031
0.3850000000	5.0283351265
0.3900000000	3.2252186350
0.3950000000	2.2727346287
0.4000000000	1.7212475853
0.4050000000	1.3617171198
0.4100000000	1.1276548510
0.4150000000	0.9732776077
0.4200000000	0.8757075376
0.4250000000	0.7990785173
0.4300000000	0.7085316290
0.4350000000	0.6368691046
0.4400000000	0.5801920015
0.4450000000	0.5351269181
0.4500000000	0.4995481326
0.4550000000	0.4713349842
0.4600000000	0.4493261950
0.4650000000	0.4322935355
0.4700000000	0.4194238940
0.4750000000	0.4101483584
0.4800000000	0.4039704707
0.4850000000	0.4004549202
0.4900000000	0.3993442706
0.4950000000	0.4004404615
0.5000000000	0.4035742524
0.5050000000	0.4086702016
0.5100000000	0.4156665052
0.5150000000	0.4245264218
0.5200000000	0.4352683005
0.5250000000	0.4479071804
0.5300000000	0.4626286197
0.5350000000	0.4795150893
0.5400000000	0.4987151246
0.5450000000	0.5204235195
0.5500000000	0.5449158746
0.5550000000	0.5724936590
0.5600000000	0.6035238054
0.5650000000	0.6384781630
0.5700000000	0.6780080920
0.5750000000	0.7225963503
0.5800000000	0.7731462466
0.5850000000	0.8308920031
0.5900000000	0.8966660917
0.5950000000	0.9722203019
0.6000000000	1.0598689665
0.6050000000	1.1613465912
0.6100000000	1.2806293909
0.6150000000	1.4210146179
0.6200000000	1.5881624799
0.6250000000	1.7901934755
0.6300000000	2.0353890194
0.6350000000	2.3393108054
0.6400000000	2.7191273539
0.6450000000	3.2059935921
0.6500000000	3.8397064936
0.6550000000	4.6876782671
0.6600000000	5.8637331583
0.6650000000	7.5477029662
0.6700000000	10.0976313520
0.6750000000	14.1975249462
0.6800000000	21.4448481519
0.6850000000	35.9870479882
0.6900000000	72.1235775746
0.6950000000	202.4610389714
0.7000000000	981.9502341046
0.7050000000	477.3979341407
0.7100000000	122.6332326241
0.7150000000	52.1504420095
0.7200000000	28.4799653977
0.7250000000	17.8904748136
0.7300000000	12.2703707909
0.7350000000	8.9480520558
0.7400000000	6.8205625652
0.7450000000	5.3765086283
0.7500000000	4.3535692148
0.7550000000	3.6020462921
0.7600000000	3.0356072923
0.7650000000	2.5963424635
0.7700000000	2.2495882919
0.7750000000	1.9712098795
0.7800000000	1.7449904073
0.7850000000	1.5587220467
0.7900000000	1.4026725686
0.7950000000	1.2723426858
0.8000000000	1.1615272400
0.8050000000	1.0665868847
0.8100000000	0.9857641925
0.8150000000	0.9149265647
0.8200000000	0.8532548806
0.8250000000	0.8015014829
0.8300000000	0.7562001136
0.8350000000	0.7168171263
0.8400000000	0.6854542038
0.8450000000	0.6580883182
0.8500000000	0.6348848433
0.8550000000	0.6202175423
0.8600000000	0.6084685448
0.8650000000	0.6000557957
0.8700000000	0.6029821356
0.8750000000	0.6040060290
0.8800000000	0.6007536199
0.8850000000	0.5746323658
0.8900000000	0.4459390355
0.8950000000	-0.1990038202
0.9000000000	-3.6573515967
0.9050000000	-24.0315853606
0.9100000000	4.5760880117
0.9150000000	10.8398654422
0.9200000000	4.4998367559
0.9250000000	2.3409485484
0.9300000000	1.4289754312
0.9350000000	0.9932658551
0.9400000000	0.7582200940
0.9450000000	0.6279364723
0.9500000000	0.5354152228
0.9550000000	0.4734837366
0.9600000000	0.4351833299
0.9650000000	0.4035828046
0.9700000000	0.3810363408
0.9750000000	0.3656741464
0.9800000000	0.3563272054
0.9850000000	0.3546261583
0.9900000000	0.3580603021
0.9950000000	0.3718737328
1.0000000000	0.4048770358
1.0050000000	0.4819120795
1.0100000000	0.6837892221
1.0150000000	1.3756657663
1.0200000000	2.6422942698
1.0250000000	1.2009619702
1.0300000000	0.6148752202
1.0350000000	0.4401938684
1.0400000000	0.3714996570
1.0450000000	0.3392705238
1.0500000000	0.3231106921
1.0550000000	0.3146285860
1.0600000000	0.3108153535
1.0650000000	0.3100920620
1.0700000000	0.3115833318
1.0750000000	0.3149805611
1.0800000000	0.3196730377
1.0850000000	0.3260620297
1.0900000000	0.3352968850
1.0950000000	0.3460641978
1.1000000000	0.3584693665
1.1050000000	0.3725346164
1.1100000000	0.3884824975
1.1150000000	0.4065251650
1.1200000000	0.4269144467
1.1250000000	0.4498587494
1.1300000000	0.4759524558
1.1350000000	0.5055962601
1.1400000000	0.5393901592
1.1450000000	0.5780971584
1.1500000000	0.6223110429
1.1550000000	0.6738805364
1.1600000000	0.7339746718
1.1650000000	0.8041245388
1.1700000000	0.8846467615
1.1750000000	0.9663057971
1.1800000000	1.0435691025
1.1850000000	1.4504453479
1.1900000000	1.8000215545
1.1950000000	2.4675747431
1.2000000000	3.3606860247
1.2050000000	2.9478580825
1.2100000000	2.8211140330
1.2150000000	3.1406891120
1.2200000000	3.7562806887
1.2250000000	4.7016407751
1.2300000000	6.1391304201
1.2350000000	8.4130896653
1.2400000000	12.2435740705
1.2450000000	19.4563485538
1.2500000000	35.0771779097
1.2550000000	75.9310153680
1.2600000000	183.4048888300
1.2650000000	185.7813755860
1.2700000000	77.2811987291
1.2750000000	35.6730453678
1.2800000000	19.7563550737
1.2850000000	12.4239621516
1.2900000000	8.5154852949
1.2950000000	6.2062075840
1.3000000000	4.7353001875
1.3050000000	3.7449431208
1.3100000000	3.0465818681
1.3150000000	2.5419811893
1.3200000000	2.1679198486
1.3250000000	1.8864247932
1.3300000000	1.6744312389
1.3350000000	1.5177862952
1.3400000000	1.4091420707
1.3450000000	1.3464830946
1.3500000000	1.3389483530
1.3550000000	1.4073438303
1.3600000000	1.6046097561
1.3650000000	2.0654650357
1.3700000000	3.1660564193
1.3750000000	5.9044221958
1.3800000000	9.6444360804
1.3850000000	6.7373751261
1.3900000000	3.4334193560
1.3950000000	1.9921916149
1.4000000000	1.3046882393
1.4050000000	0.8821455835
1.4100000000	0.4997045157
1.4150000000	-0.0708264645
1.4200000000	-1.3481615100
1.4250000000	-4.7327614183
1.4300000000	-6.3634981692
1.4350000000	2.9153695428
1.4400000000	3.7292045804
1.4450000000	2.2358172537
1.4500000000	1.3912141515
1.4550000000	0.9590237513
1.4600000000	0.7081817541
1.4650000000	0.5099397113
1.4700000000	0.2978909685
1.4750000000	0.3500703936
1.4800000000	0.5132214577
1.4850000000	0.4660219736
1.4900000000	0.4126514201
1.4950000000	0.3781310307
1.5000000000	0.3554540485
1.5050000000	0.3404601727
1.5100000000	0.3302602527
1.5150000000	0.3246950644
1.5200000000	0.3205929895
1.5250000000	0.3191137413
1.5300000000	0.3203938081
1.5350000000	0.3250187767
1.5400000000	0.3344494538
1.5450000000	0.3519299977
1.5500000000	0.3847520552
1.5550000000	0.4474499768
1.5600000000	0.5415645466
1.5650000000	0.5566467279
1.5700000000	0.4717142224
1.5750000000	0.4121135775
1.5800000000	0.3864004616
1.5850000000	0.3783070045
1.5900000000	0.3793511490
1.5950000000	0.3858493047
1.6000000000	0.3961965740
1.6050000000	0.4098403449
1.6100000000	0.4263680236
1.6150000000	0.4457180858
1.6200000000	0.4681987213
1.6250000000	0.4940757912
1.6300000000	0.5237863066
1.6350000000	0.5578936795
1.6400000000	0.5971183718
1.6450000000	0.6423805642
1.6500000000	0.6948353009
1.6550000000	0.7559463564
1.6600000000	0.8276102033
1.6650000000	0.9122747854
1.6700000000	1.0123202538
1.6750000000	1.1335875894
1.6800000000	1.2812397066
1.6850000000	1.4633988291
1.6900000000	1.6915970355
1.6950000000	1.9827571515
1.7000000000	2.3623545932
1.7050000000	2.8860193520
1.7100000000	3.6166246899
1.7150000000	4.6785747518
1.7200000000	6.2970222417
1.7250000000	8.8646246365
1.7300000000	12.8103273954
1.7350000000	17.8739497625
1.7400000000	24.2751762065
1.7450000000	35.5082574588
1.7500000000	50.0898198986
1.7550000000	50.8955683400
1.7600000000	35.7064780189
1.7650000000	22.2418021313
1.7700000000	14.2578697509
1.7750000000	9.7179145438
1.7800000000	7.0349985172
1.7850000000	5.3846780534
1.7900000000	4.3612373531
1.7950000000	3.7756519933
1.8000000000	3.5393207590
1.8050000000	3.4645248673
1.8100000000	3.0824416435
1.8150000000	2.3884376230
1.8200000000	1.8339742855
1.8250000000	1.5480962431
1.8300000000	1.3477729214
1.8350000000	1.1697422455
1.8400000000	1.0245721833
1.8450000000	0.9093710463
1.8500000000	0.8165311770
1.8550000000	0.7398348570
1.8600000000	0.6692845798
1.8650000000	0.6096399825
1.8700000000	0.5493591408
1.8750000000	0.4624603022
1.8800000000	0.2643839498
1.8850000000	-0.1697297974
1.8900000000	-0.7536360898
1.8950000000	-0.8538201562
1.9000000000	0.0913675941
1.9050000000	0.9726181810
1.9100000000	1.0754494300
1.9150000000	0.9085565365
1.9200000000	0.7449862247
1.9250000000	0.6289166518
1.9300000000	0.5586252927
1.9350000000	0.5049618575
1.9400000000	0.4692651966
1.9450000000	0.4456377603
1.9500000000	0.4291231228
1.9550000000	0.4153009576
1.9600000000	0.4033628764
1.9650000000	0.3948844054
1.9700000000	0.3903559063
1.9750000000	0.3894762031
1.9800000000	0.3920008972
1.9850000000	0.3980030821
1.9900000000	0.4078767203
1.9950000000	0.4221147671
2.0000000000	0.4403469308
2.0050000000	0.4610303626
2.0100000000	0.4758669932
2.0150000000	0.4857620429
2.0200000000	0.4976934503
2.0250000000	0.5161106679
2.0300000000	0.5423230721
2.0350000000	0.5769861027
2.0400000000	0.6212898939
2.0450000000	0.6772995128
2.0500000000	0.7479808566
2.0550000000	0.8366300561
2.0600000000	0.9448459917
2.0650000000	1.0709275943
2.0700000000	1.2167690364
2.0750000000	1.3986393063
2.0800000000	1.6433982217
2.0850000000	1.9772344830
2.0900000000	2.4153787621
2.0950000000	2.9263519690
2.1000000000	3.3817703669
2.1050000000	3.6024453541
2.1100000000	3.4976375149
2.1150000000	3.2564688579
2.1200000000	3.0860016688
2.1250000000	3.0787097366
2.1300000000	3.2620267994
2.1350000000	3.6576951923
2.1400000000	4.3092652924
2.1450000000	5.2937859578
2.1500000000	6.7191522247
2.1550000000	8.6664109375
2.1600000000	10.9785282463
2.1650000000	12.9218220885
2.1700000000	13.3809914626
2.1750000000	11.9781470754
2.1800000000	9.6702697330
2.1850000000	7.4610633591
2.1900000000	5.7337903102
2.1950000000	4.4858858795
2.2000000000	3.6103758864
2.2050000000	3.0063444775
2.2100000000	2.5870218924
2.2150000000	2.2653985329
2.2200000000	1.9772075019
2.2250000000	1.7030950418
2.2300000000	1.4549069863
2.2350000000	1.2418036007
2.2400000000	1.0613123708
2.2450000000	0.9054647171
2.2500000000	0.7663291708
2.2550000000	0.6394701067
2.2600000000	0.5126089047
2.2650000000	0.4203215951
2.2700000000	0.3701924760
2.2750000000	0.3828151429
2.2800000000	0.4556297582
2.2850000000	0.5483501645
2.2900000000	0.6162203374
2.2950000000	0.6463029734
2.3000000000	0.6497464833
2.3050000000	0.6393705497
2.3100000000	0.6257010993
2.3150000000	0.6135880744
2.3200000000	0.6049490054
2.3250000000	0.6008376296
2.3300000000	0.6021069683
2.3350000000	0.6094636075
2.3400000000	0.6235109396
2.3450000000	0.6448592780
2.3500000000	0.6741550837
2.3550000000	0.7123674245
2.3600000000	0.7588688244
2.3650000000	0.8139484428
2.3700000000	0.8774529851
2.3750000000	0.9500717380
2.3800000000	1.0344260923
2.3850000000	1.1336266223
2.3900000000	1.2483612135
2.3950000000	1.3735208916
2.4000000000	1.4959716639
2.4050000000	1.6014967268
2.4100000000	1.6599856325
2.4150000000	1.6655742070
2.4200000000	1.6325622659
2.4250000000	1.5853349552
2.4300000000	1.5455345475
2.4350000000	1.5262251303
2.4400000000	1.5326196493
2.4450000000	1.5655600245
2.4500000000	1.6251511038
2.4550000000	1.7127205924
2.4600000000	1.8338830620
2.4650000000	1.9943942152
2.4700000000	2.2006634822
2.4750000000	2.4566941582
2.4800000000	2.7604663432
2.4850000000	3.0990188308
2.4900000000	3.4427028236
2.4950000000	3.7423175461
2.5000000000	3.9362954793
2.5050000000	3.9612330214
2.5100000000	3.7918135235
2.5150000000	3.4742801532
2.5200000000	3.0825214811
2.5250000000	2.6814506877
2.5300000000	2.3106363257
2.5350000000	1.9867037936
2.5400000000	1.7121007376
2.5450000000	1.4827529209
2.5500000000	1.2927562614
2.5550000000	1.1368059758
2.5600000000	1.0064053022
2.5650000000	0.9088166637
2.5700000000	0.8386970626
2.5750000000	0.7935457721
2.5800000000	0.7683509115
2.5850000000	0.7562578751
2.5900000000	0.7508337315
2.5950000000	0.7480727400
2.6000000000	0.7466833206
2.6050000000	0.7526393661
2.6100000000	0.7620749366
2.6150000000	0.7764345506
2.6200000000	0.7964856732
2.6250000000	0.8222755893
2.6300000000	0.8530763378
2.6350000000	0.8873428974
2.6400000000	0.9227145461
2.6450000000	0.9561977234
2.6500000000	0.9846220945
2.6550000000	1.0053883395
2.6600000000	1.0172890581
2.6650000000	1.0210334705
2.6700000000	1.0190973349
2.6750000000	1.0150995944
2.6800000000	1.0125469395
2.6850000000	1.0147156177
2.6900000000	1.0238872111
2.6950000000	1.0414638487
2.7000000000	1.0681177858
2.7050000000	1.1080174091
2.7100000000	1.1593681358
2.7150000000	1.2213396834
2.7200000000	1.2922158216
2.7250000000	1.3690832654
2.7300000000	1.4475438978
2.7350000000	1.5216681486
2.7400000000	1.5844029664
2.7450000000	1.6285870275
2.7500000000	1.6484482569
2.7550000000	1.6410785223
2.7600000000	1.6072208636
2.7650000000	1.5510011149
2.7700000000	1.4787327694
2.7750000000	1.3974107057
2.7800000000	1.3134490660
2.7850000000	1.2319788729
2.7900000000	1.1559748515
2.7950000000	1.0886921828
2.8000000000	1.0308042480
2.8050000000	0.9771896634
2.8100000000	0.9349186547
2.8150000000	0.9023269036
2.8200000000	0.8776064059
2.8250000000	0.8590980683
2.8300000000	0.8453918076
2.8350000000	0.8353180120
2.8400000000	0.8278883886
2.8450000000	0.8222638651
2.8500000000	0.8177706790
2.8550000000	0.8139615493
2.8600000000	0.8106850786
2.8650000000	0.8081081113
2.8700000000	0.8066733705
2.8750000000	0.8069897302
2.8800000000	0.8096974245
2.8850000000	0.8153464064
2.8900000000	0.8243117107
2.8950000000	0.8367423482
2.9000000000	0.8525362258
2.9050000000	0.8761612726
2.9100000000	0.9020693337
2.9150000000	0.9285305657
2.9200000000	0.9533588161
2.9250000000	0.9742056243
2.9300000000	0.9888905072
2.9350000000	0.9957831278
2.9400000000	0.9941187958
2.9450000000	0.9841444794
2.9500000000	0.9670264543
2.9550000000	0.9445530404
2.9600000000	0.9187576869
2.9650000000	0.8915665274
2.9700000000	0.8645635908
2.9750000000	0.8388880903
2.9800000000	0.8152413932
2.9850000000	0.7939627595
2.9900000000	0.7751310754
2.9950000000	0.7586637668
3.0000000000	0.7443975054
