# energy (eV)    P(omega), $W$ = 300 nm, $h$ = 300 nm, $s$ = 20 nm, $d/W = 5$, $E_{\rm e}$ = 200 keV
0.2000000000	0.0870975635
0.2050000000	0.0884026507
0.2100000000	0.0896228468
0.2150000000	0.0907609190
0.2200000000	0.0918192286
0.2250000000	0.0927997813
0.2300000000	0.0937041091
0.2350000000	0.0945332280
0.2400000000	0.0952875225
0.2450000000	0.0959667053
0.2500000000	0.0965696578
0.2550000000	0.0970942425
0.2600000000	0.0975372517
0.2650000000	0.0978940256
0.2700000000	0.0981582528
0.2750000000	0.0983215682
0.2800000000	0.0983731128
0.2850000000	0.0982989250
0.2900000000	0.0980811214
0.2950000000	0.0976970100
0.3000000000	0.0971176044
0.3050000000	0.0963059675
0.3100000000	0.0952148104
0.3150000000	0.1006283717
0.3200000000	0.1070576759
0.3250000000	0.1151895094
0.3300000000	0.1260798886
0.3350000000	0.1396355926
0.3400000000	0.1573870018
0.3450000000	0.1789175438
0.3500000000	0.2070827552
0.3550000000	0.2443496691
0.3600000000	0.2930076140
0.3650000000	0.3608405089
0.3700000000	0.4502801769
0.3750000000	0.5746906873
0.3800000000	0.7546190148
0.3850000000	1.0349755141
0.3900000000	1.4778662649
0.3950000000	2.2301520446
0.4000000000	3.6642480837
0.4050000000	6.8793994906
0.4100000000	15.6521800103
0.4150000000	50.2306386086
0.4200000000	32.0044353253
0.4250000000	-60.2384962875
0.4300000000	16.7501867026
0.4350000000	10.4377437234
0.4400000000	6.3804032589
0.4450000000	4.1964192456
0.4500000000	2.9391732902
0.4550000000	2.1654834570
0.4600000000	1.6615904142
0.4650000000	1.3182203679
0.4700000000	1.0755343314
0.4750000000	0.9000192644
0.4800000000	0.7698895015
0.4850000000	0.6719697968
0.4900000000	0.5972242653
0.4950000000	0.5395871551
0.5000000000	0.4949123181
0.5050000000	0.4601578085
0.5100000000	0.4333647781
0.5150000000	0.4130910647
0.5200000000	0.3978295376
0.5250000000	0.3869008951
0.5300000000	0.3795762205
0.5350000000	0.3753223690
0.5400000000	0.3737462746
0.5450000000	0.3745195866
0.5500000000	0.3775382660
0.5550000000	0.3826171818
0.5600000000	0.3896616521
0.5650000000	0.3986290927
0.5700000000	0.4094806693
0.5750000000	0.4222921648
0.5800000000	0.4371867923
0.5850000000	0.4542448996
0.5900000000	0.4736223213
0.5950000000	0.4955151454
0.6000000000	0.5201731523
0.6050000000	0.5479584756
0.6100000000	0.5792165424
0.6150000000	0.6144193493
0.6200000000	0.6541965215
0.6250000000	0.6991517078
0.6300000000	0.7501771839
0.6350000000	0.8083850440
0.6400000000	0.8749323939
0.6450000000	0.9514895138
0.6500000000	1.0402524904
0.6550000000	1.1435073571
0.6600000000	1.2647677166
0.6650000000	1.4085418266
0.6700000000	1.5801298268
0.6750000000	1.7876139973
0.6800000000	2.0418633806
0.6850000000	2.3571161778
0.6900000000	2.7554248318
0.6950000000	3.2676313195
0.7000000000	3.9427281437
0.7050000000	4.8556118371
0.7100000000	6.1331851827
0.7150000000	8.0013493158
0.7200000000	10.8806618611
0.7250000000	15.6601167783
0.7300000000	24.4328345211
0.7350000000	43.2038587912
0.7400000000	94.6837775826
0.7450000000	314.1101192024
0.7500000000	973.1099822880
0.7550000000	244.8057182888
0.7600000000	81.0736050621
0.7650000000	38.8456690392
0.7700000000	22.5911453481
0.7750000000	14.7445333985
0.7800000000	10.3763003501
0.7850000000	7.7064471541
0.7900000000	5.9538310771
0.7950000000	4.7450937844
0.8000000000	3.8761786263
0.8050000000	3.2290320581
0.8100000000	2.7355478399
0.8150000000	2.3443560830
0.8200000000	2.0356172317
0.8250000000	1.7870249022
0.8300000000	1.5833892203
0.8350000000	1.4159633554
0.8400000000	1.2756119599
0.8450000000	1.1578391270
0.8500000000	1.0582872666
0.8550000000	0.9723783452
0.8600000000	0.8990408283
0.8650000000	0.8363982514
0.8700000000	0.7810484737
0.8750000000	0.7339655893
0.8800000000	0.6940147482
0.8850000000	0.6581966293
0.8900000000	0.6294644275
0.8950000000	0.6033269656
0.9000000000	0.5826121154
0.9050000000	0.5683463394
0.9100000000	0.5552731384
0.9150000000	0.5473440730
0.9200000000	0.5463918783
0.9250000000	0.5456862581
0.9300000000	0.5376836620
0.9350000000	0.5136653151
0.9400000000	0.3798518325
0.9450000000	-0.2283752340
0.9500000000	-3.4382464490
0.9550000000	-19.7192330942
0.9600000000	4.6530429582
0.9650000000	8.1737445574
0.9700000000	3.6253638940
0.9750000000	1.9032288317
0.9800000000	1.1927796355
0.9850000000	0.8605007843
0.9900000000	0.6690488807
0.9950000000	0.5529570501
1.0000000000	0.4788321058
1.0050000000	0.4318387743
1.0100000000	0.3954072337
1.0150000000	0.3687916631
1.0200000000	0.3508646800
1.0250000000	0.3358175114
1.0300000000	0.3243863834
1.0350000000	0.3157387635
1.0400000000	0.3102409534
1.0450000000	0.3056693755
1.0500000000	0.3026536263
1.0550000000	0.3010151359
1.0600000000	0.3011574566
1.0650000000	0.3019573673
1.0700000000	0.3038727933
1.0750000000	0.3069116935
1.0800000000	0.3113745485
1.0850000000	0.3170380844
1.0900000000	0.3253926905
1.0950000000	0.3353142822
1.1000000000	0.3471357865
1.1050000000	0.3607603394
1.1100000000	0.3766183380
1.1150000000	0.3950663371
1.1200000000	0.4165270752
1.1250000000	0.4415528967
1.1300000000	0.4708839253
1.1350000000	0.5054414518
1.1400000000	0.5462746596
1.1450000000	0.5952988862
1.1500000000	0.6545968499
1.1550000000	0.7271795087
1.1600000000	0.8172947704
1.1650000000	0.9304545623
1.1700000000	1.0769842198
1.1750000000	1.2705908924
1.1800000000	1.5339347075
1.1850000000	1.9042631493
1.1900000000	2.4517751302
1.1950000000	3.3112573724
1.2000000000	4.7690599415
1.2050000000	7.5239196916
1.2100000000	13.5840607034
1.2150000000	29.9645825474
1.2200000000	73.5391578048
1.2250000000	66.0706660440
1.2300000000	26.3554201754
1.2350000000	12.3612665846
1.2400000000	7.0606237600
1.2450000000	4.6268433639
1.2500000000	3.3429343300
1.2550000000	2.6019754580
1.2600000000	2.1511117155
1.2650000000	1.8687169725
1.2700000000	1.7003549177
1.2750000000	1.6107307709
1.2800000000	1.5830458006
1.2850000000	1.6099665315
1.2900000000	1.6909078831
1.2950000000	1.8300809064
1.3000000000	2.0446647394
1.3050000000	2.3566908795
1.3100000000	2.8072303247
1.3150000000	3.4673446655
1.3200000000	4.4647824449
1.3250000000	6.0430312768
1.3300000000	8.7353517558
1.3350000000	13.7781101580
1.3400000000	24.5559552257
1.3450000000	51.3121689979
1.3500000000	108.8971361479
1.3550000000	101.5625102347
1.3600000000	46.8354154287
1.3650000000	23.0119691791
1.3700000000	13.1971041892
1.3750000000	8.4869401353
1.3800000000	5.9187023296
1.3850000000	4.3716237855
1.3900000000	3.3745139789
1.3950000000	2.6942180251
1.4000000000	2.2103126849
1.4050000000	1.8548999707
1.4100000000	1.5868584649
1.4150000000	1.3816248939
1.4200000000	1.2218742683
1.4250000000	1.1030166976
1.4300000000	1.0274453340
1.4350000000	0.9775648529
1.4400000000	0.6721776262
1.4450000000	-0.1738730835
1.4500000000	-1.6459296850
1.4550000000	-0.5498746199
1.4600000000	1.6744333481
1.4650000000	0.9699240977
1.4700000000	-0.6192038697
1.4750000000	-3.1332437259
1.4800000000	-1.3823414808
1.4850000000	2.3684170017
1.4900000000	1.9173060155
1.4950000000	1.2439446479
1.5000000000	0.8758065226
1.5050000000	0.6765148081
1.5100000000	0.5624346159
1.5150000000	0.4924897983
1.5200000000	0.4466770279
1.5250000000	0.4175989388
1.5300000000	0.3946847103
1.5350000000	0.3780392445
1.5400000000	0.3659814239
1.5450000000	0.3575088008
1.5500000000	0.3519283678
1.5550000000	0.3489513810
1.5600000000	0.3491750070
1.5650000000	0.3513938294
1.5700000000	0.3568947162
1.5750000000	0.3666889785
1.5800000000	0.3827908086
1.5850000000	0.4091664928
1.5900000000	0.4542068840
1.5950000000	0.5364616953
1.6000000000	0.6950236975
1.6050000000	0.9552606195
1.6100000000	1.0766076181
1.6150000000	0.8572696979
1.6200000000	0.6538981850
1.6250000000	0.5505341408
1.6300000000	0.5031080777
1.6350000000	0.4835768603
1.6400000000	0.4792383334
1.6450000000	0.4842826032
1.6500000000	0.4958818727
1.6550000000	0.5128749813
1.6600000000	0.5346704972
1.6650000000	0.5611890546
1.6700000000	0.5926509695
1.6750000000	0.6295099584
1.6800000000	0.6724294291
1.6850000000	0.7222948666
1.6900000000	0.7801352793
1.6950000000	0.8465475455
1.7000000000	0.9229950376
1.7050000000	1.0114424552
1.7100000000	1.1186430864
1.7150000000	1.2988469255
1.7200000000	1.5710384132
1.7250000000	1.8652449664
1.7300000000	2.2150606173
1.7350000000	2.5935434448
1.7400000000	2.9429613852
1.7450000000	3.3833358087
1.7500000000	4.0584078982
1.7550000000	5.0709405962
1.7600000000	6.5900666672
1.7650000000	8.9336943007
1.7700000000	12.7090191178
1.7750000000	19.0677754006
1.7800000000	29.8978455672
1.7850000000	45.8571747849
1.7900000000	56.9504718191
1.7950000000	48.4558468883
1.8000000000	32.2177069750
1.8050000000	20.3226041704
1.8100000000	13.3805917316
1.8150000000	9.3127115285
1.8200000000	6.8094704268
1.8250000000	5.1863233763
1.8300000000	4.0836616826
1.8350000000	3.3045181644
1.8400000000	2.7358400798
1.8450000000	2.3089617652
1.8500000000	1.9805635209
1.8550000000	1.7234847564
1.8600000000	1.5186218975
1.8650000000	1.3528439870
1.8700000000	1.2165833626
1.8750000000	1.1025016099
1.8800000000	1.0043529470
1.8850000000	0.9160486083
1.8900000000	0.8300536108
1.8950000000	0.7349536639
1.9000000000	0.6114077753
1.9050000000	0.3962967805
1.9100000000	0.0874000698
1.9150000000	-0.2098783520
1.9200000000	0.1500222298
1.9250000000	1.5884934323
1.9300000000	2.7375891588
1.9350000000	2.7632108764
1.9400000000	2.2181107482
1.9450000000	1.6810482303
1.9500000000	1.3003977351
1.9550000000	1.0486165546
1.9600000000	0.8808336896
1.9650000000	0.7690333340
1.9700000000	0.6867350343
1.9750000000	0.6263871248
1.9800000000	0.5805835404
1.9850000000	0.5440131453
1.9900000000	0.5127223414
1.9950000000	0.4833597117
2.0000000000	0.4553229804
2.0050000000	0.4386512356
2.0100000000	0.4498579564
2.0150000000	0.4790831785
2.0200000000	0.4988280828
2.0250000000	0.5074086413
2.0300000000	0.5139500713
2.0350000000	0.5226745711
2.0400000000	0.5356352093
2.0450000000	0.5537029742
2.0500000000	0.5777630793
2.0550000000	0.6086957696
2.0600000000	0.6465513883
2.0650000000	0.6883097095
2.0700000000	0.7264526067
2.0750000000	0.7551091510
2.0800000000	0.7786449305
2.0850000000	0.8065466144
2.0900000000	0.8448486616
2.0950000000	0.8956431283
2.1000000000	0.9605328454
2.1050000000	1.0385401383
2.1100000000	1.1350999964
2.1150000000	1.2541081130
2.1200000000	1.4011672154
2.1250000000	1.5842271424
2.1300000000	1.8145520019
2.1350000000	2.1082583027
2.1400000000	2.4886226914
2.1450000000	2.9896684406
2.1500000000	3.6609418051
2.1550000000	4.5725204784
2.1600000000	5.8140645457
2.1650000000	7.4615569102
2.1700000000	9.4860337014
2.1750000000	11.5047535147
2.1800000000	12.7725230044
2.1850000000	12.8913007223
2.1900000000	12.4099016962
2.1950000000	12.0683636510
2.2000000000	11.9490308192
2.2050000000	11.3875908922
2.2100000000	10.0997835840
2.2150000000	8.4794335490
2.2200000000	7.0056367561
2.2250000000	5.8114096357
2.2300000000	4.8309737402
2.2350000000	4.0104047917
2.2400000000	3.3366415176
2.2450000000	2.8046197593
2.2500000000	2.3923323477
2.2550000000	2.0732488756
2.2600000000	1.8228092425
2.2650000000	1.6188747589
2.2700000000	1.4404886388
2.2750000000	1.2699397323
2.2800000000	1.1031134733
2.2850000000	0.9603776853
2.2900000000	0.8764266608
2.2950000000	0.8668132823
2.3000000000	0.9047575744
2.3050000000	0.9447458226
2.3100000000	0.9588760709
2.3150000000	0.9480257613
2.3200000000	0.9242587346
2.3250000000	0.8999740245
2.3300000000	0.8817541252
2.3350000000	0.8715207272
2.3400000000	0.8678281834
2.3450000000	0.8664704494
2.3500000000	0.8620298437
2.3550000000	0.8510453987
2.3600000000	0.8344746217
2.3650000000	0.8165391085
2.3700000000	0.8015296567
2.3750000000	0.7918311027
2.3800000000	0.7878262147
2.3850000000	0.7885567217
2.3900000000	0.7927986289
2.3950000000	0.7993789487
2.4000000000	0.8088818629
2.4050000000	0.8237874887
2.4100000000	0.8451499172
2.4150000000	0.8744245911
2.4200000000	0.9126150809
2.4250000000	0.9607974463
2.4300000000	1.0202921831
2.4350000000	1.0927922074
2.4400000000	1.1804762556
2.4450000000	1.2861380312
2.4500000000	1.4133183116
2.4550000000	1.5664845722
2.4600000000	1.7511302194
2.4650000000	1.9738776563
2.4700000000	2.2423475992
2.4750000000	2.5642240207
2.4800000000	2.9476160365
2.4850000000	3.3958917978
2.4900000000	3.9048516261
2.4950000000	4.4559297741
2.5000000000	5.0090440762
2.5050000000	5.5216874300
2.5100000000	5.8578228277
2.5150000000	5.9411412298
2.5200000000	5.7588872592
2.5250000000	5.3675852634
2.5300000000	4.8570502853
2.5350000000	4.3087623973
2.5400000000	3.7764937904
2.5450000000	3.2883041741
2.5500000000	2.8554924839
2.5550000000	2.4799991839
2.5600000000	2.1564680400
2.5650000000	1.8837213506
2.5700000000	1.6559681678
2.5750000000	1.4697094803
2.5800000000	1.3222703672
2.5850000000	1.2104943331
2.5900000000	1.1288620545
2.5950000000	1.0694518063
2.6000000000	1.0239829414
2.6050000000	0.9915387366
2.6100000000	0.9627737435
2.6150000000	0.9373021278
2.6200000000	0.9157218702
2.6250000000	0.8986459920
2.6300000000	0.8864676176
2.6350000000	0.8793751394
2.6400000000	0.8774678318
2.6450000000	0.8808464446
2.6500000000	0.8897180086
2.6550000000	0.9041288003
2.6600000000	0.9243951378
2.6650000000	0.9508179030
2.6700000000	0.9837515591
2.6750000000	1.0236105385
2.6800000000	1.0708379075
2.6850000000	1.1258872575
2.6900000000	1.1891598293
2.6950000000	1.2609627587
2.7000000000	1.3414090416
2.7050000000	1.4399116043
2.7100000000	1.5489816595
2.7150000000	1.6672883475
2.7200000000	1.7925952605
2.7250000000	1.9217220168
2.7300000000	2.0505516178
2.7350000000	2.1740447138
2.7400000000	2.2862064393
2.7450000000	2.3810545757
2.7500000000	2.4497058947
2.7550000000	2.4862802252
2.7600000000	2.4863368876
2.7650000000	2.4488978196
2.7700000000	2.3769451582
2.7750000000	2.2769180950
2.7800000000	2.1573152316
2.7850000000	2.0271758229
2.7900000000	1.8945979955
2.7950000000	1.7660727003
2.8000000000	1.6461927627
2.8050000000	1.5244256771
2.8100000000	1.4196046707
2.8150000000	1.3314951111
2.8200000000	1.2587205531
2.8250000000	1.1994510493
2.8300000000	1.1518408780
2.8350000000	1.1143188948
2.8400000000	1.0852138615
2.8450000000	1.0646273975
2.8500000000	1.0513318011
2.8550000000	1.0448628037
2.8600000000	1.0448781179
2.8650000000	1.0510873149
2.8700000000	1.0632072306
2.8750000000	1.0809144417
2.8800000000	1.1038140420
2.8850000000	1.1314055030
2.8900000000	1.1630913596
2.8950000000	1.1981637005
2.9000000000	1.2358436602
2.9050000000	1.2834921381
2.9100000000	1.3311133440
2.9150000000	1.3770069346
2.9200000000	1.4192206986
2.9250000000	1.4555019127
2.9300000000	1.4837520720
2.9350000000	1.5010281451
2.9400000000	1.5059276139
2.9450000000	1.4977652233
2.9500000000	1.4771007690
2.9550000000	1.4456917000
2.9600000000	1.4061519371
2.9650000000	1.3614909562
2.9700000000	1.3146523324
2.9750000000	1.2681742181
2.9800000000	1.2240193145
2.9850000000	1.1835440353
2.9900000000	1.1475841600
2.9950000000	1.1165450034
3.0000000000	1.0905440702
