# energy (eV)    P(omega), $W$ = 300 nm, $h$ = 300 nm, $s$ = 20 nm, $d/W = 5$, $E_{\rm e}$ = 200 keV
0.2000000000	0.0651590030
0.2050000000	0.0661512458
0.2100000000	0.0670733277
0.2150000000	0.0679275917
0.2200000000	0.0687161471
0.2250000000	0.0694407350
0.2300000000	0.0701027462
0.2350000000	0.0707031489
0.2400000000	0.0712424361
0.2450000000	0.0717205388
0.2500000000	0.0721367592
0.2550000000	0.0724895953
0.2600000000	0.0727767102
0.2650000000	0.0729946303
0.2700000000	0.0731386348
0.2750000000	0.0732024010
0.2800000000	0.0731776846
0.2850000000	0.0730538449
0.2900000000	0.0728172715
0.2950000000	0.0724506230
0.3000000000	0.0719317663
0.3050000000	0.0712324952
0.3100000000	0.0703166827
0.3150000000	0.0744578742
0.3200000000	0.0793758288
0.3250000000	0.0856003840
0.3300000000	0.0939441633
0.3350000000	0.1043269513
0.3400000000	0.1179228876
0.3450000000	0.1343987820
0.3500000000	0.1559430561
0.3550000000	0.1844352061
0.3600000000	0.2216084718
0.3650000000	0.2734052340
0.3700000000	0.3416338551
0.3750000000	0.4364667312
0.3800000000	0.5735180444
0.3850000000	0.7869306347
0.3900000000	1.1238068799
0.3950000000	1.6955855718
0.4000000000	2.7848202090
0.4050000000	5.2251330366
0.4100000000	11.8787378104
0.4150000000	38.0847906790
0.4200000000	24.2816713437
0.4250000000	-45.5779121197
0.4300000000	12.6491881081
0.4350000000	7.8721453312
0.4400000000	4.8050838576
0.4450000000	3.1553626516
0.4500000000	2.2063195392
0.4550000000	1.6226607072
0.4600000000	1.2427549072
0.4650000000	0.9840127546
0.4700000000	0.8012238218
0.4750000000	0.6690717111
0.4800000000	0.5711116306
0.4850000000	0.4973988216
0.4900000000	0.4411169919
0.4950000000	0.3976923427
0.5000000000	0.3639979853
0.5050000000	0.3377421608
0.5100000000	0.3174466443
0.5150000000	0.3020220627
0.5200000000	0.2903369759
0.5250000000	0.2818753543
0.5300000000	0.2760885801
0.5350000000	0.2725736840
0.5400000000	0.2710331751
0.5450000000	0.2712186558
0.5500000000	0.2730465878
0.5550000000	0.2763753863
0.5600000000	0.2811295946
0.5650000000	0.2872731466
0.5700000000	0.2947712576
0.5750000000	0.3036751605
0.5800000000	0.3140677652
0.5850000000	0.3260020750
0.5900000000	0.3395844689
0.5950000000	0.3549511643
0.6000000000	0.3722750365
0.6050000000	0.3918111653
0.6100000000	0.4137996724
0.6150000000	0.4385712904
0.6200000000	0.4665675474
0.6250000000	0.4982112880
0.6300000000	0.5341288079
0.6350000000	0.5751004468
0.6400000000	0.6219371146
0.6450000000	0.6758112987
0.6500000000	0.7382633778
0.6550000000	0.8108959316
0.6600000000	0.8961743054
0.6650000000	0.9972584194
0.6700000000	1.1178625630
0.6750000000	1.2636537144
0.6800000000	1.4422490110
0.6850000000	1.6636229851
0.6900000000	1.9432235402
0.6950000000	2.3026509381
0.7000000000	2.7762112813
0.7050000000	3.4163359615
0.7100000000	4.3118467111
0.7150000000	5.6208342676
0.7200000000	7.6375326125
0.7250000000	10.9837916503
0.7300000000	17.1234226377
0.7350000000	30.2550274535
0.7400000000	66.2534508240
0.7450000000	219.6200010195
0.7500000000	679.8426029618
0.7550000000	170.8928134837
0.7600000000	56.5504751701
0.7650000000	27.0740556022
0.7700000000	15.7326488355
0.7750000000	10.2599898412
0.7800000000	7.2145592002
0.7850000000	5.3539214226
0.7900000000	4.1329833768
0.7950000000	3.2912504241
0.8000000000	2.6863846636
0.8050000000	2.2360619267
0.8100000000	1.8927911204
0.8150000000	1.6207931948
0.8200000000	1.4061951707
0.8250000000	1.2334593319
0.8300000000	1.0920109404
0.8350000000	0.9757431678
0.8400000000	0.8783054020
0.8450000000	0.7965612344
0.8500000000	0.7274724590
0.8550000000	0.6678694156
0.8600000000	0.6169906651
0.8650000000	0.5735255701
0.8700000000	0.5351314228
0.8750000000	0.5024565111
0.8800000000	0.4747096053
0.8850000000	0.4498353775
0.8900000000	0.4298332691
0.8950000000	0.4116388299
0.9000000000	0.3971648192
0.9050000000	0.3870953790
0.9100000000	0.3778608577
0.9150000000	0.3721327943
0.9200000000	0.3711407989
0.9250000000	0.3703368685
0.9300000000	0.3646535064
0.9350000000	0.3482761806
0.9400000000	0.2582892911
0.9450000000	-0.1495887984
0.9500000000	-2.2997557997
0.9550000000	-13.1972438610
0.9600000000	3.1126052060
0.9650000000	5.4631866626
0.9700000000	2.4219779261
0.9750000000	1.2713199376
0.9800000000	0.7968810815
0.9850000000	0.5750441015
0.9900000000	0.4472872949
0.9950000000	0.3698417650
1.0000000000	0.3203990332
1.0050000000	0.2890389421
1.0100000000	0.2647509326
1.0150000000	0.2470143706
1.0200000000	0.2350602643
1.0250000000	0.2250489977
1.0300000000	0.2174566497
1.0350000000	0.2117291828
1.0400000000	0.2080996546
1.0450000000	0.2051101371
1.0500000000	0.2031709941
1.0550000000	0.2021640823
1.0600000000	0.2023503120
1.0650000000	0.2030025232
1.0700000000	0.2044191822
1.0750000000	0.2066065073
1.0800000000	0.2097615368
1.0850000000	0.2137625409
1.0900000000	0.2196265140
1.0950000000	0.2265814967
1.1000000000	0.2348535192
1.1050000000	0.2444034068
1.1100000000	0.2555240538
1.1150000000	0.2684680986
1.1200000000	0.2835256606
1.1250000000	0.3011164288
1.1300000000	0.3217551184
1.1350000000	0.3460986328
1.1400000000	0.3748845434
1.1450000000	0.4095030800
1.1500000000	0.4514300083
1.1550000000	0.5028152112
1.1600000000	0.5666920140
1.1650000000	0.6469858094
1.1700000000	0.7510985737
1.1750000000	0.8888136290
1.1800000000	1.0763194576
1.1850000000	1.3402363383
1.1900000000	1.7306761771
1.1950000000	2.3439812826
1.2000000000	3.3846444161
1.2050000000	5.3516058003
1.2100000000	9.6785266226
1.2150000000	21.3710122597
1.2200000000	52.4561684304
1.2250000000	47.0836380908
1.2300000000	18.7385736486
1.2350000000	8.7549815139
1.2400000000	4.9728260449
1.2450000000	3.2343086818
1.2500000000	2.3147810565
1.2550000000	1.7813306470
1.2600000000	1.4535333818
1.2650000000	1.2445248787
1.2700000000	1.1150786593
1.2750000000	1.0396981110
1.2800000000	1.0058453783
1.2850000000	1.0075180429
1.2900000000	1.0431770548
1.2950000000	1.1143932964
1.3000000000	1.2307319078
1.3050000000	1.4042959739
1.3100000000	1.6584157792
1.3150000000	2.0336532992
1.3200000000	2.6032304164
1.3250000000	3.5064881579
1.3300000000	5.0495914188
1.3350000000	7.9414122750
1.3400000000	14.1225660699
1.3450000000	29.4638394667
1.3500000000	62.4629326368
1.3550000000	58.2163046490
1.3600000000	26.8364317076
1.3650000000	13.1843754214
1.3700000000	7.5617425695
1.3750000000	4.8639320466
1.3800000000	3.3930324768
1.3850000000	2.5068766391
1.3900000000	1.9354840627
1.3950000000	1.5454381383
1.4000000000	1.2675901091
1.4050000000	1.0630009610
1.4100000000	0.9078772730
1.4150000000	0.7876468151
1.4200000000	0.6914657647
1.4250000000	0.6144294481
1.4300000000	0.5521082067
1.4350000000	0.4887413275
1.4400000000	0.2881247362
1.4450000000	-0.2314096308
1.4500000000	-1.1818344065
1.4550000000	-0.4292211091
1.4600000000	1.0783232738
1.4650000000	0.6561884734
1.4700000000	-0.2800119571
1.4750000000	-1.7111793816
1.4800000000	-0.7458672873
1.4850000000	1.3432811114
1.4900000000	1.0867273192
1.4950000000	0.7080778134
1.5000000000	0.5008201843
1.5050000000	0.3882310445
1.5100000000	0.3236847275
1.5150000000	0.2839561062
1.5200000000	0.2578237552
1.5250000000	0.2411905341
1.5300000000	0.2279760004
1.5350000000	0.2183044696
1.5400000000	0.2112217207
1.5450000000	0.2061448796
1.5500000000	0.2026917305
1.5550000000	0.2006690714
1.5600000000	0.2004020508
1.5650000000	0.2011450566
1.5700000000	0.2035778254
1.5750000000	0.2081634831
1.5800000000	0.2158414891
1.5850000000	0.2284620768
1.5900000000	0.2499274132
1.5950000000	0.2888123797
1.6000000000	0.3629861358
1.6050000000	0.4830655070
1.6100000000	0.5363308877
1.6150000000	0.4331564073
1.6200000000	0.3398657546
1.6250000000	0.2935975441
1.6300000000	0.2733691090
1.6350000000	0.2661286309
1.6400000000	0.2660315257
1.6450000000	0.2704341161
1.6500000000	0.2780881009
1.6550000000	0.2884718222
1.6600000000	0.3013830120
1.6650000000	0.3168448794
1.6700000000	0.3350328760
1.6750000000	0.3562524536
1.6800000000	0.3809372775
1.6850000000	0.4096646726
1.6900000000	0.4431753780
1.6950000000	0.4821733212
1.7000000000	0.5281440561
1.7050000000	0.5837960717
1.7100000000	0.6523409299
1.7150000000	0.7496630422
1.7200000000	0.8845248632
1.7250000000	1.0480030808
1.7300000000	1.2533122392
1.7350000000	1.4727088565
1.7400000000	1.6664027929
1.7450000000	1.9072657993
1.7500000000	2.2809501169
1.7550000000	2.8450476494
1.7600000000	3.6932839893
1.7650000000	5.0026870569
1.7700000000	7.1119201875
1.7750000000	10.6633390711
1.7800000000	16.7089690706
1.7850000000	25.6105454120
1.7900000000	31.7827035070
1.7950000000	27.0206573997
1.8000000000	17.9500106851
1.8050000000	11.3116394034
1.8100000000	7.4395387105
1.8150000000	5.1714138715
1.8200000000	3.7760148129
1.8250000000	2.8712846666
1.8300000000	2.2565838679
1.8350000000	1.8220385599
1.8400000000	1.5045995666
1.8450000000	1.2659415860
1.8500000000	1.0818777867
1.8550000000	0.9372340537
1.8600000000	0.8212801621
1.8650000000	0.7266011043
1.8700000000	0.6477227175
1.8750000000	0.5803530407
1.8800000000	0.5207181665
1.8850000000	0.4649907354
1.8900000000	0.4083068017
1.8950000000	0.3432705020
1.9000000000	0.2574350353
1.9050000000	0.1113373944
1.9100000000	-0.1008065630
1.9150000000	-0.3292819953
1.9200000000	-0.2271093450
1.9250000000	0.4404136202
1.9300000000	0.9765939737
1.9350000000	1.0201083144
1.9400000000	0.8408969587
1.9450000000	0.6598208097
1.9500000000	0.5296222790
1.9550000000	0.4422681739
1.9600000000	0.3833314712
1.9650000000	0.3443122623
1.9700000000	0.3147640625
1.9750000000	0.2930780894
1.9800000000	0.2767441242
1.9850000000	0.2639889004
1.9900000000	0.2535487896
1.9950000000	0.2444001918
2.0000000000	0.2362962326
2.0050000000	0.2321668680
2.0100000000	0.2359548266
2.0150000000	0.2450116892
2.0200000000	0.2521406496
2.0250000000	0.2570009613
2.0300000000	0.2621900714
2.0350000000	0.2688285446
2.0400000000	0.2777714467
2.0450000000	0.2895753703
2.0500000000	0.3049094139
2.0550000000	0.3244521524
2.0600000000	0.3482359083
2.0650000000	0.3740011907
2.0700000000	0.3961425957
2.0750000000	0.4102081524
2.0800000000	0.4192371597
2.0850000000	0.4300177325
2.0900000000	0.4467521303
2.0950000000	0.4707247698
2.1000000000	0.5026265300
2.1050000000	0.5417276868
2.1100000000	0.5907563213
2.1150000000	0.6516062986
2.1200000000	0.7270883816
2.1250000000	0.8212430752
2.1300000000	0.9398315325
2.1350000000	1.0911169713
2.1400000000	1.2870435677
2.1450000000	1.5450699243
2.1500000000	1.8906107821
2.1550000000	2.3595876920
2.1600000000	2.9979284774
2.1650000000	3.8444728151
2.1700000000	4.8845085357
2.1750000000	5.9224738517
2.1800000000	6.5787460779
2.1850000000	6.6526261783
2.1900000000	6.4267058437
2.1950000000	6.2767179005
2.2000000000	6.2335236139
2.2050000000	5.9337317133
2.2100000000	5.2249951049
2.2150000000	4.3247433549
2.2200000000	3.5010411646
2.2250000000	2.8413045167
2.2300000000	2.3220371192
2.2350000000	1.9095987668
2.2400000000	1.5823748227
2.2450000000	1.3269703024
2.2500000000	1.1277851653
2.2550000000	0.9706303797
2.2600000000	0.8436621609
2.2650000000	0.7370262508
2.2700000000	0.6424428242
2.2750000000	0.5541005553
2.2800000000	0.4724105017
2.2850000000	0.4076281860
2.2900000000	0.3749447064
2.2950000000	0.3795960014
2.3000000000	0.4065966438
2.3050000000	0.4329838251
2.3100000000	0.4443734537
2.3150000000	0.4414957656
2.3200000000	0.4306485377
2.3250000000	0.4182609615
2.3300000000	0.4078073540
2.3350000000	0.4004918754
2.3400000000	0.3960651054
2.3450000000	0.3932381245
2.3500000000	0.3902901038
2.3550000000	0.3861206079
2.3600000000	0.3810348345
2.3650000000	0.3763675198
2.3700000000	0.3734418777
2.3750000000	0.3729045390
2.3800000000	0.3746458251
2.3850000000	0.3780023349
2.3900000000	0.3822350211
2.3950000000	0.3867118062
2.4000000000	0.3918099558
2.4050000000	0.3989349400
2.4100000000	0.4088012272
2.4150000000	0.4223147718
2.4200000000	0.4400917562
2.4250000000	0.4626927627
2.4300000000	0.4907465875
2.4350000000	0.5250414031
2.4400000000	0.5665913037
2.4450000000	0.6167046109
2.4500000000	0.6770464280
2.4550000000	0.7497233342
2.4600000000	0.8373366128
2.4650000000	0.9430337439
2.4700000000	1.0704606010
2.4750000000	1.2233283823
2.4800000000	1.4056513284
2.4850000000	1.6192345124
2.4900000000	1.8623101660
2.4950000000	2.1260863199
2.5000000000	2.3910308440
2.5050000000	2.6359031561
2.5100000000	2.7940973259
2.5150000000	2.8287310723
2.5200000000	2.7350353630
2.5250000000	2.5423256394
2.5300000000	2.2952016660
2.5350000000	2.0327838113
2.5400000000	1.7798507186
2.5450000000	1.5486490612
2.5500000000	1.3437550928
2.5550000000	1.1657502523
2.5600000000	1.0120519490
2.5650000000	0.8823232524
2.5700000000	0.7739756772
2.5750000000	0.6854770495
2.5800000000	0.6156307580
2.5850000000	0.5629543999
2.5900000000	0.5247718680
2.5950000000	0.4972090439
2.6000000000	0.4762138771
2.6050000000	0.4612398195
2.6100000000	0.4477945586
2.6150000000	0.4357127446
2.6200000000	0.4252962869
2.6250000000	0.4168420121
2.6300000000	0.4105291494
2.6350000000	0.4064354072
2.6400000000	0.4046015537
2.6450000000	0.4050736444
2.6500000000	0.4079505718
2.6550000000	0.4132489776
2.6600000000	0.4211078696
2.6650000000	0.4316500470
2.6700000000	0.4450202003
2.6750000000	0.4613900005
2.6800000000	0.4809505129
2.6850000000	0.5039104119
2.6900000000	0.5304713478
2.6950000000	0.5608160921
2.7000000000	0.5950712527
2.7050000000	0.6373615943
2.7100000000	0.6847605417
2.7150000000	0.7369426661
2.7200000000	0.7932046285
2.7250000000	0.8523747909
2.7300000000	0.9127300443
2.7350000000	0.9719228539
2.7400000000	1.0269431725
2.7450000000	1.0746134320
2.7500000000	1.1103209315
2.7550000000	1.1308973038
2.7600000000	1.1339629474
2.7650000000	1.1189057656
2.7700000000	1.0870971435
2.7750000000	1.0416141097
2.7800000000	0.9865375754
2.7850000000	0.9262089317
2.7900000000	0.8645065468
2.7950000000	0.8045355189
2.8000000000	0.7484860476
2.8050000000	0.6914922178
2.8100000000	0.6422928777
2.8150000000	0.6007757984
2.8200000000	0.5662883921
2.8250000000	0.5379633273
2.8300000000	0.5149305415
2.8350000000	0.4964485105
2.8400000000	0.4817289457
2.8450000000	0.4708249442
2.8500000000	0.4631588073
2.8550000000	0.4585152843
2.8600000000	0.4567420961
2.8650000000	0.4577189373
2.8700000000	0.4613387108
2.8750000000	0.4674918213
2.8800000000	0.4760514786
2.8850000000	0.4868600341
2.8900000000	0.4997233885
2.8950000000	0.5144044800
2.9000000000	0.5306221277
2.9050000000	0.5519258077
2.9100000000	0.5737978310
2.9150000000	0.5953947246
2.9200000000	0.6157022017
2.9250000000	0.6335442236
2.9300000000	0.6478154757
2.9350000000	0.6570444328
2.9400000000	0.6604940068
2.9450000000	0.6577867571
2.9500000000	0.6491448695
2.9550000000	0.6353567486
2.9600000000	0.6176232053
2.9650000000	0.5973373012
2.9700000000	0.5758660324
2.9750000000	0.5543954872
2.9800000000	0.5338455383
2.9850000000	0.5148578941
2.9900000000	0.4978274518
2.9950000000	0.4829553639
3.0000000000	0.4703064863
