# energy (eV)    P(omega), $W$ = 300 nm, $h$ = 300 nm, $s$ = 20 nm, $d/W = 5$, $E_{\rm e}$ = 200 keV
0.2000000000	0.1372030704
0.2050000000	0.1391741668
0.2100000000	0.1410268965
0.2150000000	0.1427649620
0.2200000000	0.1443915553
0.2250000000	0.1459093162
0.2300000000	0.1473201843
0.2350000000	0.1486253720
0.2400000000	0.1498252271
0.2450000000	0.1509189370
0.2500000000	0.1519046942
0.2550000000	0.1527790227
0.2600000000	0.1535368438
0.2650000000	0.1541710752
0.2700000000	0.1546720096
0.2750000000	0.1550269379
0.2800000000	0.1552193865
0.2850000000	0.1552282915
0.2900000000	0.1550265902
0.2950000000	0.1545801594
0.3000000000	0.1538450546
0.3050000000	0.1527657609
0.3100000000	0.1512710077
0.3150000000	0.1594222880
0.3200000000	0.1691044643
0.3250000000	0.1813439073
0.3300000000	0.1977224316
0.3350000000	0.2181161305
0.3400000000	0.2448247732
0.3450000000	0.2772482619
0.3500000000	0.3196814705
0.3550000000	0.3758563659
0.3600000000	0.4492582635
0.3650000000	0.5516363284
0.3700000000	0.6867608508
0.3750000000	0.8748664655
0.3800000000	1.1471150893
0.3850000000	1.5715893111
0.3900000000	2.2426707891
0.3950000000	3.3834144325
0.4000000000	5.5595302013
0.4050000000	10.4415674755
0.4100000000	23.7723270183
0.4150000000	76.3544098211
0.4200000000	48.6016832909
0.4250000000	-91.7435157018
0.4300000000	25.5656865256
0.4350000000	15.9518123708
0.4400000000	9.7660444345
0.4450000000	6.4339985303
0.4500000000	4.5145728863
0.4550000000	3.3326614872
0.4600000000	2.5624528828
0.4650000000	2.0373314167
0.4700000000	1.6660161781
0.4750000000	1.3973867604
0.4800000000	1.1981783498
0.4850000000	1.0482776968
0.4900000000	0.9338808016
0.4950000000	0.8457169786
0.5000000000	0.7774512993
0.5050000000	0.7244303503
0.5100000000	0.6836637841
0.5150000000	0.6529512328
0.5200000000	0.6299791942
0.5250000000	0.6137171973
0.5300000000	0.6030500942
0.5350000000	0.5971645755
0.5400000000	0.5954620395
0.5450000000	0.5974427374
0.5500000000	0.6029577606
0.5550000000	0.6117283276
0.5600000000	0.6236185709
0.5650000000	0.6385710908
0.5700000000	0.6565372932
0.5750000000	0.6776457182
0.5800000000	0.7021053253
0.5850000000	0.7300534005
0.5900000000	0.7617511910
0.5950000000	0.7975226840
0.6000000000	0.8377800688
0.6050000000	0.8831142246
0.6100000000	0.9340943247
0.6150000000	0.9914928509
0.6200000000	1.0563408909
0.6250000000	1.1296256797
0.6300000000	1.2128063777
0.6350000000	1.3077017705
0.6400000000	1.4162050573
0.6450000000	1.5410476215
0.6500000000	1.6858219179
0.6550000000	1.8542684019
0.6600000000	2.0521337847
0.6650000000	2.2867974733
0.6700000000	2.5669351218
0.6750000000	2.9057709734
0.6800000000	3.3211101911
0.6850000000	3.8362602882
0.6900000000	4.4873499924
0.6950000000	5.3248914975
0.7000000000	6.4291707688
0.7050000000	7.9229201290
0.7100000000	10.0141590885
0.7150000000	13.0732329148
0.7200000000	17.7897594477
0.7250000000	25.6217700165
0.7300000000	40.0029245545
0.7350000000	70.7861912876
0.7400000000	155.2436954590
0.7450000000	515.3921113246
0.7500000000	1597.8632662100
0.7550000000	402.2777456127
0.7600000000	133.3261831119
0.7650000000	63.9314418374
0.7700000000	37.2092721920
0.7750000000	24.3046483464
0.7800000000	17.1179138310
0.7850000000	12.7238052152
0.7900000000	9.8382785018
0.7950000000	7.8474827640
0.8000000000	6.4158857117
0.8050000000	5.3493063523
0.8100000000	4.5357036974
0.8150000000	3.8904955350
0.8200000000	3.3811211026
0.8250000000	2.9708641962
0.8300000000	2.6346877407
0.8350000000	2.3582283314
0.8400000000	2.1264207963
0.8450000000	1.9318621923
0.8500000000	1.7673905986
0.8550000000	1.6254189959
0.8600000000	1.5042204443
0.8650000000	1.4007205907
0.8700000000	1.3092425334
0.8750000000	1.2314678845
0.8800000000	1.1655338240
0.8850000000	1.1064141074
0.8900000000	1.0591152355
0.8950000000	1.0160827345
0.9000000000	0.9821146358
0.9050000000	0.9589793283
0.9100000000	0.9377907079
0.9150000000	0.9252545027
0.9200000000	0.9245074696
0.9250000000	0.9241130718
0.9300000000	0.9111884470
0.9350000000	0.8707273722
0.9400000000	0.6423362179
0.9450000000	-0.3983997117
0.9500000000	-5.8962468193
0.9550000000	-33.8020762903
0.9600000000	7.9839998544
0.9650000000	14.0327165445
0.9700000000	6.2282282386
0.9750000000	3.2711458368
0.9800000000	2.0505654139
0.9850000000	1.4795389098
0.9900000000	1.1503592075
0.9950000000	0.9506859321
1.0000000000	0.8231703104
1.0050000000	0.7423630605
1.0100000000	0.6796473266
1.0150000000	0.6338027477
1.0200000000	0.6029375896
1.0250000000	0.5769634289
1.0300000000	0.5571875605
1.0350000000	0.5421737409
1.0400000000	0.5325838797
1.0450000000	0.5245212624
1.0500000000	0.5190957257
1.0550000000	0.5159965323
1.0600000000	0.5159404455
1.0650000000	0.5169330338
1.0700000000	0.5197796171
1.0750000000	0.5244896371
1.0800000000	0.5315909530
1.0850000000	0.5406189084
1.0900000000	0.5540751387
1.0950000000	0.5700773794
1.1000000000	0.5891872971
1.1050000000	0.6111598199
1.1100000000	0.6367125506
1.1150000000	0.6664118099
1.1200000000	0.7009524006
1.1250000000	0.7411277227
1.1300000000	0.7881362706
1.1350000000	0.8434255428
1.1400000000	0.9086709187
1.1450000000	0.9868090952
1.1500000000	1.0811343352
1.1550000000	1.1963616401
1.1600000000	1.3391419550
1.1650000000	1.5181306268
1.1700000000	1.7494121329
1.1750000000	2.0544523403
1.1800000000	2.4686869246
1.1850000000	3.0503289927
1.1900000000	3.9092530355
1.1950000000	5.2560528215
1.2000000000	7.5385945636
1.2050000000	11.8497818818
1.2100000000	21.3312966397
1.2150000000	46.9629390347
1.2200000000	115.1810184712
1.2250000000	103.5844358739
1.2300000000	41.4413302234
1.2350000000	19.5386762575
1.2400000000	11.2467340927
1.2450000000	7.4466797626
1.2500000000	5.4502148884
1.2550000000	4.3072690830
1.2600000000	3.6223069005
1.2650000000	3.2053551840
1.2700000000	2.9724668909
1.2750000000	2.8694821692
1.2800000000	2.8719064995
1.2850000000	2.9707538253
1.2900000000	3.1687054081
1.2950000000	3.4770384049
1.3000000000	3.9311956502
1.3050000000	4.5773150312
1.3100000000	5.4988533869
1.3150000000	6.8396008124
1.3200000000	8.8569981843
1.3250000000	12.0426721156
1.3300000000	17.4696721164
1.3350000000	27.6294441281
1.3400000000	49.3422635029
1.3450000000	103.2565806096
1.3500000000	219.3527077403
1.3550000000	204.7104395757
1.3600000000	94.4376589288
1.3650000000	46.4075075415
1.3700000000	26.6141204616
1.3750000000	17.1136792142
1.3800000000	11.9333325253
1.3850000000	8.8132630617
1.3900000000	6.8033974205
1.3950000000	5.4330168987
1.4000000000	4.4598861037
1.4050000000	3.7473013521
1.4100000000	3.2132854466
1.4150000000	2.8103230716
1.4200000000	2.5072775791
1.4250000000	2.3042644485
1.4300000000	2.2298100761
1.4350000000	2.2709166981
1.4400000000	1.7488034091
1.4450000000	0.1499287775
1.4500000000	-2.4462358282
1.4550000000	-0.6862275905
1.4600000000	2.9609441006
1.4650000000	1.6033007670
1.4700000000	-1.5128227734
1.4750000000	-6.6226731577
1.4800000000	-2.9474589031
1.4850000000	4.8448493136
1.4900000000	3.9272468454
1.4950000000	2.5420135695
1.5000000000	1.7860778020
1.5050000000	1.3790296077
1.5100000000	1.1470230306
1.5150000000	1.0061237212
1.5200000000	0.9151036436
1.5250000000	0.8585489149
1.5300000000	0.8153460332
1.5350000000	0.7855649270
1.5400000000	0.7659459575
1.5450000000	0.7547399549
1.5500000000	0.7508176960
1.5550000000	0.7542072610
1.5600000000	0.7669191687
1.5650000000	0.7879195787
1.5700000000	0.8219266402
1.5750000000	0.8746943946
1.5800000000	0.9570270634
1.5850000000	1.0899557191
1.5900000000	1.3177895987
1.5950000000	1.7385813917
1.6000000000	2.5594460202
1.6050000000	3.9167037082
1.6100000000	4.5452710550
1.6150000000	3.3668997948
1.6200000000	2.2614716980
1.6250000000	1.6779695426
1.6300000000	1.3850028579
1.6350000000	1.2341837195
1.6400000000	1.1577505385
1.6450000000	1.1242094568
1.6500000000	1.1177896427
1.6550000000	1.1311033200
1.6600000000	1.1597417590
1.6650000000	1.2016920726
1.6700000000	1.2561894630
1.6750000000	1.3232393349
1.6800000000	1.4034418409
1.6850000000	1.4977276534
1.6900000000	1.6069204007
1.6950000000	1.7294726599
1.7000000000	1.8633343191
1.7050000000	2.0005473242
1.7100000000	2.1571342041
1.7150000000	2.5460449277
1.7200000000	3.2282693104
1.7250000000	3.8534821247
1.7300000000	4.5245581371
1.7350000000	5.2619094937
1.7400000000	5.9853483136
1.7450000000	6.9145350661
1.7500000000	8.3197327792
1.7550000000	10.4112540786
1.7600000000	13.5405736257
1.7650000000	18.3644535557
1.7700000000	26.1348769073
1.7750000000	39.2260117950
1.7800000000	61.5330243681
1.7850000000	94.4306003061
1.7900000000	117.3517497824
1.7950000000	99.9271313730
1.8000000000	66.5041824230
1.8050000000	41.9988312805
1.8100000000	27.6907703511
1.8150000000	19.3042591545
1.8200000000	14.1430878486
1.8250000000	10.7970839670
1.8300000000	8.5252626088
1.8350000000	6.9217149797
1.8400000000	5.7534529726
1.8450000000	4.8791411337
1.8500000000	4.2097069164
1.8550000000	3.6894152115
1.8600000000	3.2793853683
1.8650000000	2.9531929520
1.8700000000	2.6920436863
1.8750000000	2.4821386929
1.8800000000	2.3125312290
1.8850000000	2.1735469063
1.8900000000	2.0540364898
1.8950000000	1.9373622637
1.9000000000	1.7947953054
1.9050000000	1.5249616071
1.9100000000	1.1535635708
1.9150000000	0.9564690981
1.9200000000	2.3408894528
1.9250000000	6.1685079289
1.9300000000	9.2040909541
1.9350000000	9.0627113090
1.9400000000	7.1281957993
1.9450000000	5.2526039072
1.9500000000	3.9357133406
1.9550000000	3.0728389076
1.9600000000	2.5026204660
1.9650000000	2.1209653677
1.9700000000	1.8454359151
1.9750000000	1.6434623237
1.9800000000	1.4892644885
1.9850000000	1.3641385157
1.9900000000	1.2537726242
1.9950000000	1.1456764866
2.0000000000	1.0380288343
2.0050000000	0.9692603358
2.0100000000	1.0086669313
2.0150000000	1.1172169741
2.0200000000	1.1841555001
2.0250000000	1.2019512079
2.0300000000	1.2059772310
2.0350000000	1.2132879451
2.0400000000	1.2302218341
2.0450000000	1.2583962090
2.0500000000	1.2988613466
2.0550000000	1.3525712974
2.0600000000	1.4195269012
2.0650000000	1.4956696987
2.0700000000	1.5709348382
2.0750000000	1.6377786516
2.0800000000	1.7028542498
2.0850000000	1.7799225847
2.0900000000	1.8782065744
2.0950000000	2.0015884050
2.1000000000	2.1542416177
2.1050000000	2.3347822806
2.1100000000	2.5558989043
2.1150000000	2.8268666571
2.1200000000	3.1606936096
2.1250000000	3.5756259732
2.1300000000	4.0973838994
2.1350000000	4.7626881172
2.1400000000	5.6245620289
2.1450000000	6.7605263729
2.1500000000	8.2835315644
2.1550000000	10.3534329659
2.1600000000	13.1748202907
2.1650000000	16.9209550563
2.1700000000	21.5225301185
2.1750000000	26.0974758420
2.1800000000	28.9242852301
2.1850000000	29.0713551666
2.1900000000	27.7864192867
2.1950000000	26.7866429422
2.2000000000	26.3433963376
2.2050000000	25.1112840309
2.2100000000	22.4950854530
2.2150000000	19.2783275545
2.2200000000	16.3905329112
2.2250000000	14.0039902709
2.2300000000	11.9028559899
2.2350000000	10.0034372210
2.2400000000	8.3720673226
2.2450000000	7.0667971125
2.2500000000	6.0661804289
2.2550000000	5.3144723555
2.2600000000	4.7515939378
2.2650000000	4.3173500965
2.2700000000	3.9466796795
2.2750000000	3.5754931104
2.2800000000	3.1759295014
2.2850000000	2.7957779707
2.2900000000	2.5331331359
2.2950000000	2.4435063579
2.3000000000	2.4756962990
2.3050000000	2.5247712174
2.3100000000	2.5289439008
2.3150000000	2.4887190013
2.3200000000	2.4308434044
2.3250000000	2.3829431029
2.3300000000	2.3591543216
2.3350000000	2.3619079891
2.3400000000	2.3832931309
2.3450000000	2.4054023470
2.3500000000	2.4056862386
2.3550000000	2.3697585174
2.3600000000	2.3016906252
2.3650000000	2.2192735701
2.3700000000	2.1408456145
2.3750000000	2.0773585901
2.3800000000	2.0323685745
2.3850000000	2.0048662764
2.3900000000	1.9925542254
2.3950000000	1.9927721423
2.4000000000	2.0062454949
2.4050000000	2.0374104676
2.4100000000	2.0877550995
2.4150000000	2.1593387159
2.4200000000	2.2533993459
2.4250000000	2.3721015704
2.4300000000	2.5186014078
2.4350000000	2.6971324256
2.4400000000	2.9131576532
2.4450000000	3.1736524386
2.4500000000	3.4874173949
2.4550000000	3.8655141258
2.4600000000	4.3215332939
2.4650000000	4.8717811219
2.4700000000	5.5349592046
2.4750000000	6.3298011294
2.4800000000	7.2756550614
2.4850000000	8.3801812763
2.4900000000	9.6325856200
2.4950000000	10.9880495583
2.5000000000	12.3517852851
2.5050000000	13.6274913192
2.5100000000	14.4892950717
2.5150000000	14.7492490530
2.5200000000	14.3625785616
2.5250000000	13.4486460538
2.5300000000	12.2153744003
2.5350000000	10.8632832149
2.5400000000	9.5340244779
2.5450000000	8.3076264230
2.5500000000	7.2196725346
2.5550000000	6.2782613562
2.5600000000	5.4704486384
2.5650000000	4.7912808978
2.5700000000	4.2247699008
2.5750000000	3.7609071386
2.5800000000	3.3922165271
2.5850000000	3.1105704047
2.5900000000	2.9026002835
2.5950000000	2.7495109441
2.6000000000	2.6317324650
2.6050000000	2.5480291616
2.6100000000	2.4755513305
2.6150000000	2.4131502053
2.6200000000	2.3620589290
2.6250000000	2.3236434021
2.6300000000	2.2988156458
2.6350000000	2.2880410259
2.6400000000	2.2915896930
2.6450000000	2.3097132093
2.6500000000	2.3429037739
2.6550000000	2.3912992010
2.6600000000	2.4556423438
2.6650000000	2.5366835328
2.6700000000	2.6353444910
2.6750000000	2.7527423109
2.6800000000	2.8901150442
2.6850000000	3.0487292943
2.6900000000	3.2296227323
2.6950000000	3.4333975020
2.7000000000	3.6598479190
2.7050000000	3.9347301729
2.7100000000	4.2347313854
2.7150000000	4.5540120649
2.7200000000	4.8840782086
2.7250000000	5.2142580494
2.7300000000	5.5325083711
2.7350000000	5.8261080221
2.7400000000	6.0818248098
2.7450000000	6.2879110946
2.7500000000	6.4261454506
2.7550000000	6.4854955154
2.7600000000	6.4575901646
2.7650000000	6.3414545822
2.7700000000	6.1448733401
2.7750000000	5.8834446070
2.7800000000	5.5774998177
2.7850000000	5.2486079518
2.7900000000	4.9161214844
2.7950000000	4.5955593392
2.8000000000	4.2978948808
2.8050000000	3.9967273061
2.8100000000	3.7389658895
2.8150000000	3.5239191998
2.8200000000	3.3481256440
2.8250000000	3.2070227633
2.8300000000	3.0960146613
2.8350000000	3.0111681976
2.8400000000	2.9483428090
2.8450000000	2.9076827695
2.8500000000	2.8861789761
2.8550000000	2.8826849227
2.8600000000	2.8963445191
2.8650000000	2.9263866173
2.8700000000	2.9719486991
2.8750000000	3.0319365986
2.8800000000	3.1049158739
2.8850000000	3.1890210421
2.8900000000	3.2820097328
2.8950000000	3.3813456937
2.9000000000	3.4843616553
2.9050000000	3.6081622995
2.9100000000	3.7269320159
2.9150000000	3.8369342510
2.9200000000	3.9342470614
2.9250000000	4.0144201799
2.9300000000	4.0733558022
2.9350000000	4.1046822200
2.9400000000	4.1056489138
2.9450000000	4.0750839998
2.9500000000	4.0147512023
2.9550000000	3.9292365422
2.9600000000	3.8251597097
2.9650000000	3.7100214377
2.9700000000	3.5910750203
2.9750000000	3.4745192154
2.9800000000	3.3651037665
2.9850000000	3.2660693520
2.9900000000	3.1793651757
2.9950000000	3.1059063353
3.0000000000	3.0458854559
