# energy (eV)    P(omega), $W$ = 300 nm, $h$ = 300 nm, $s$ = 20 nm, $d/W = 5$, $E_{\rm e}$ = 200 keV
0.2000000000	0.2739039278
0.2050000000	0.2780754442
0.2100000000	0.2819522749
0.2150000000	0.2855442531
0.2200000000	0.2888602339
0.2250000000	0.2919075223
0.2300000000	0.2946919536
0.2350000000	0.2972175816
0.2400000000	0.2994864742
0.2450000000	0.3014983300
0.2500000000	0.3032502065
0.2550000000	0.3047357823
0.2600000000	0.3059452284
0.2650000000	0.3068639347
0.2700000000	0.3074720555
0.2750000000	0.3077430068
0.2800000000	0.3076421288
0.2850000000	0.3071246871
0.2900000000	0.3061334700
0.2950000000	0.3045955762
0.3000000000	0.3024179695
0.3050000000	0.2994820775
0.3100000000	0.2956360344
0.3150000000	0.3130439530
0.3200000000	0.3337170461
0.3250000000	0.3598823306
0.3300000000	0.3949555198
0.3350000000	0.4385997984
0.3400000000	0.4957505773
0.3450000000	0.5650079021
0.3500000000	0.6555707368
0.3550000000	0.7753399816
0.3600000000	0.9316021469
0.3650000000	1.1493368536
0.3700000000	1.4361477642
0.3750000000	1.8347971887
0.3800000000	2.4109244284
0.3850000000	3.3080595475
0.3900000000	4.7242164924
0.3950000000	7.1278713107
0.4000000000	11.7068484701
0.4050000000	21.9656205685
0.4100000000	49.9367510485
0.4150000000	160.1053334346
0.4200000000	102.0780616759
0.4250000000	-191.6097894361
0.4300000000	53.1780967059
0.4350000000	33.0954576701
0.4400000000	20.2014198688
0.4450000000	13.2658826523
0.4500000000	9.2760167199
0.4550000000	6.8222454985
0.4600000000	5.2250675201
0.4650000000	4.1372732204
0.4700000000	3.3687952060
0.4750000000	2.8132018520
0.4800000000	2.4013576213
0.4850000000	2.0914538287
0.4900000000	1.8548339455
0.4950000000	1.6722690285
0.5000000000	1.5306133386
0.5050000000	1.4202318056
0.5100000000	1.3349098760
0.5150000000	1.2700677182
0.5200000000	1.2209484175
0.5250000000	1.1853826175
0.5300000000	1.1610638689
0.5350000000	1.1462979895
0.5400000000	1.1398343520
0.5450000000	1.1406287114
0.5500000000	1.1483299905
0.5550000000	1.1623430427
0.5600000000	1.1823507738
0.5650000000	1.2082017162
0.5700000000	1.2397497771
0.5750000000	1.2772106317
0.5800000000	1.3209331258
0.5850000000	1.3711404258
0.5900000000	1.4282801005
0.5950000000	1.4929253147
0.6000000000	1.5658033334
0.6050000000	1.6479872719
0.6100000000	1.7404873234
0.6150000000	1.8446948233
0.6200000000	1.9624672461
0.6250000000	2.0955833940
0.6300000000	2.2466780160
0.6350000000	2.4190338224
0.6400000000	2.6160622012
0.6450000000	2.8426955579
0.6500000000	3.1054139898
0.6550000000	3.4109593158
0.6600000000	3.7697027175
0.6650000000	4.1949375176
0.6700000000	4.7022890416
0.6750000000	5.3155976112
0.6800000000	6.0669071145
0.6850000000	6.9981788419
0.6900000000	8.1744003870
0.6950000000	9.6864409599
0.7000000000	11.6786219362
0.7050000000	14.3715162635
0.7100000000	18.1387868952
0.7150000000	23.6455047738
0.7200000000	32.1294834332
0.7250000000	46.2067871904
0.7300000000	72.0355524373
0.7350000000	127.2789705681
0.7400000000	278.7214357252
0.7450000000	923.9245365477
0.7500000000	2860.0637469769
0.7550000000	718.9419752647
0.7600000000	237.9079657143
0.7650000000	113.9013057007
0.7700000000	66.1880936389
0.7750000000	43.1645860655
0.7800000000	30.3524016679
0.7850000000	22.5246390591
0.7900000000	17.3880979112
0.7950000000	13.8468788238
0.8000000000	11.3021666238
0.8050000000	9.4076218297
0.8100000000	7.9634491085
0.8150000000	6.8191243306
0.8200000000	5.9162847365
0.8250000000	5.1895623108
0.8300000000	4.5944689989
0.8350000000	4.1053128329
0.8400000000	3.6953765705
0.8450000000	3.3514650919
0.8500000000	3.0607965772
0.8550000000	2.8100356508
0.8600000000	2.5959792806
0.8650000000	2.4131135959
0.8700000000	2.2515820019
0.8750000000	2.1141127113
0.8800000000	1.9973769695
0.8850000000	1.8927269703
0.8900000000	1.8085761148
0.8950000000	1.7320302756
0.9000000000	1.6711381107
0.9050000000	1.6287787647
0.9100000000	1.5899318921
0.9150000000	1.5658391320
0.9200000000	1.5616748037
0.9250000000	1.5583013840
0.9300000000	1.5343944957
0.9350000000	1.4654851325
0.9400000000	1.0868174720
0.9450000000	-0.6295822241
0.9500000000	-9.6778164301
0.9550000000	-55.5363877138
0.9600000000	13.0984198838
0.9650000000	22.9902610708
0.9700000000	10.1922297041
0.9750000000	5.3500021494
0.9800000000	3.3534502684
0.9850000000	2.4199059242
0.9900000000	1.8822725929
0.9950000000	1.5563616196
1.0000000000	1.3482937240
1.0050000000	1.2163228837
1.0100000000	1.1141126268
1.0150000000	1.0394725998
1.0200000000	0.9891670666
1.0250000000	0.9470370307
1.0300000000	0.9150863577
1.0350000000	0.8909834788
1.0400000000	0.8757094746
1.0450000000	0.8631283071
1.0500000000	0.8549672055
1.0550000000	0.8507289957
1.0600000000	0.8515118085
1.0650000000	0.8542551146
1.0700000000	0.8602150711
1.0750000000	0.8694178920
1.0800000000	0.8826928592
1.0850000000	0.8995270936
1.0900000000	0.9242000470
1.0950000000	0.9534635495
1.1000000000	0.9882687986
1.1050000000	1.0284504345
1.1100000000	1.0752409938
1.1150000000	1.1297034564
1.1200000000	1.1930586031
1.1250000000	1.2670717629
1.1300000000	1.3539086721
1.1350000000	1.4563331773
1.1400000000	1.5774486317
1.1450000000	1.7231036790
1.1500000000	1.8995074765
1.1550000000	2.1157052007
1.1600000000	2.3844589011
1.1650000000	2.7222840769
1.1700000000	3.1603223057
1.1750000000	3.7397350467
1.1800000000	4.5286316660
1.1850000000	5.6390115249
1.1900000000	7.2817106757
1.1950000000	9.8620678819
1.2000000000	14.2404471240
1.2050000000	22.5160441946
1.2100000000	40.7207266375
1.2150000000	89.9147343216
1.2200000000	220.7005123630
1.2250000000	198.0978012115
1.2300000000	78.8408523152
1.2350000000	36.8364517571
1.2400000000	20.9236084835
1.2450000000	13.6090823444
1.2500000000	9.7403552091
1.2550000000	7.4960125138
1.2600000000	6.1169481884
1.2650000000	5.2376945317
1.2700000000	4.6932186469
1.2750000000	4.3762519026
1.2800000000	4.2340528076
1.2850000000	4.2413791906
1.2900000000	4.3917746656
1.2950000000	4.6918721182
1.3000000000	5.1819610341
1.3050000000	5.9130228899
1.3100000000	6.9833167487
1.3150000000	8.5636700570
1.3200000000	10.9624527979
1.3250000000	14.7664947731
1.3300000000	21.2651812316
1.3350000000	33.4438793795
1.3400000000	59.4753587149
1.3450000000	124.0840918409
1.3500000000	263.0579132982
1.3550000000	245.1743527537
1.3600000000	113.0201595120
1.3650000000	55.5252935350
1.3700000000	31.8458558230
1.3750000000	20.4841502622
1.3800000000	14.2895209771
1.3850000000	10.5575150300
1.3900000000	8.1511238395
1.3950000000	6.5084672989
1.4000000000	5.3383314068
1.4050000000	4.4767264956
1.4100000000	3.8234508243
1.4150000000	3.3171407471
1.4200000000	2.9121399372
1.4250000000	2.5878215337
1.4300000000	2.3256058687
1.4350000000	2.0591982674
1.4400000000	1.2147444625
1.4450000000	-0.9724901689
1.4500000000	-4.9731976761
1.4550000000	-1.8057450317
1.4600000000	4.5391694995
1.4650000000	2.7617133286
1.4700000000	-1.1805870162
1.4750000000	-7.2080183032
1.4800000000	-3.1420258359
1.4850000000	5.6573180744
1.4900000000	4.5768245805
1.4950000000	2.9820409747
1.5000000000	2.1091220096
1.5050000000	1.6349270208
1.5100000000	1.3630741393
1.5150000000	1.1957461015
1.5200000000	1.0856803427
1.5250000000	1.0156194495
1.5300000000	0.9599556247
1.5350000000	0.9192109530
1.5400000000	0.8893657963
1.5450000000	0.8679644179
1.5500000000	0.8533953023
1.5550000000	0.8448428808
1.5600000000	0.8436731987
1.5650000000	0.8467413616
1.5700000000	0.8569018720
1.5750000000	0.8760914497
1.5800000000	0.9082418446
1.5850000000	0.9610977188
1.5900000000	1.0509936596
1.5950000000	1.2138249858
1.6000000000	1.5243947212
1.6050000000	2.0271537628
1.6100000000	2.2502406514
1.6150000000	1.8184681595
1.6200000000	1.4280847757
1.6250000000	1.2345618496
1.6300000000	1.1500666316
1.6350000000	1.1199652374
1.6400000000	1.1197943743
1.6450000000	1.1384905867
1.6500000000	1.1708316174
1.6550000000	1.2146394924
1.6600000000	1.2690729030
1.6650000000	1.3342359979
1.6700000000	1.4108717788
1.6750000000	1.5002693448
1.6800000000	1.6042567630
1.6850000000	1.7252670274
1.6900000000	1.8664205416
1.6950000000	2.0306822474
1.7000000000	2.2243096088
1.7050000000	2.4587105014
1.7100000000	2.7474209361
1.7150000000	3.1573776896
1.7200000000	3.7254561179
1.7250000000	4.4139836645
1.7300000000	5.2786541833
1.7350000000	6.2026895741
1.7400000000	7.0185611282
1.7450000000	8.0331450057
1.7500000000	9.6071544427
1.7550000000	11.9831690968
1.7600000000	15.5559733534
1.7650000000	21.0712233157
1.7700000000	29.9553911548
1.7750000000	44.9141211011
1.7800000000	70.3786377319
1.7850000000	107.8726834895
1.7900000000	133.8705106510
1.7950000000	113.8128772729
1.8000000000	75.6069343699
1.8050000000	47.6457214537
1.8100000000	31.3361644063
1.8150000000	21.7826461723
1.8200000000	15.9051076109
1.8250000000	12.0943024572
1.8300000000	9.5051248029
1.8350000000	7.6747779661
1.8400000000	6.3376941685
1.8450000000	5.3324443863
1.8500000000	4.5571518299
1.8550000000	3.9479023273
1.8600000000	3.4594992845
1.8650000000	3.0607105528
1.8700000000	2.7284791162
1.8750000000	2.4447277409
1.8800000000	2.1935617305
1.8850000000	1.9588618632
1.8900000000	1.7201436295
1.8950000000	1.4462594660
1.9000000000	1.0847891197
1.9050000000	0.4695278489
1.9100000000	-0.4238678619
1.9150000000	-1.3859474305
1.9200000000	-0.9551005205
1.9250000000	1.8573003468
1.9300000000	4.1163278174
1.9350000000	4.2994918926
1.9400000000	3.5440138609
1.9450000000	2.7807054489
1.9500000000	2.2318795332
1.9550000000	1.8636647824
1.9600000000	1.6152403735
1.9650000000	1.4507683562
1.9700000000	1.3262245052
1.9750000000	1.2348196785
1.9800000000	1.1659723349
1.9850000000	1.1122072203
1.9900000000	1.0681970604
1.9950000000	1.0296260450
2.0000000000	0.9954540389
2.0050000000	0.9780363353
2.0100000000	0.9940067047
2.0150000000	1.0321941788
2.0200000000	1.0622425498
2.0250000000	1.0827138453
2.0300000000	1.1045618401
2.0350000000	1.1325126041
2.0400000000	1.1701687394
2.0450000000	1.2198735513
2.0500000000	1.2844432891
2.0550000000	1.3667341552
2.0600000000	1.4668825563
2.0650000000	1.5753791779
2.0700000000	1.6686323281
2.0750000000	1.7279053860
2.0800000000	1.7659920639
2.0850000000	1.8114647701
2.0900000000	1.8820128879
2.0950000000	1.9830449912
2.1000000000	2.1174737592
2.1050000000	2.2822283098
2.1100000000	2.4888030775
2.1150000000	2.7451787171
2.1200000000	3.0631983670
2.1250000000	3.4598858144
2.1300000000	3.9595140745
2.1350000000	4.5968973803
2.1400000000	5.4223581832
2.1450000000	6.5094522122
2.1500000000	7.9652556285
2.1550000000	9.9411114137
2.1600000000	12.6305221152
2.1650000000	16.1971280490
2.1700000000	20.5789519607
2.1750000000	24.9520722582
2.1800000000	27.7170795922
2.1850000000	28.0283782200
2.1900000000	27.0765485285
2.1950000000	26.4446193466
2.2000000000	26.2626631477
2.2050000000	24.9997465192
2.2100000000	22.0140215861
2.2150000000	18.2214890923
2.2200000000	14.7514517059
2.2250000000	11.9721050612
2.2300000000	9.7843924075
2.2350000000	8.0466183167
2.2400000000	6.6678110699
2.2450000000	5.5916027993
2.2500000000	4.7522936679
2.2550000000	4.0901049234
2.2600000000	3.5551309752
2.2650000000	3.1058435628
2.2700000000	2.7073441878
2.2750000000	2.3351304154
2.2800000000	1.9909204782
2.2850000000	1.7179242635
2.2900000000	1.5801597111
2.2950000000	1.5997026483
2.3000000000	1.7134226254
2.3050000000	1.8245678866
2.3100000000	1.8725330511
2.3150000000	1.8603921501
2.3200000000	1.8146785521
2.3250000000	1.7624799462
2.3300000000	1.7184343059
2.3350000000	1.6876142578
2.3400000000	1.6689670811
2.3450000000	1.6570591656
2.3500000000	1.6446364273
2.3550000000	1.6270601365
2.3600000000	1.6056169208
2.3650000000	1.5859335973
2.3700000000	1.5735886359
2.3750000000	1.5713088957
2.3800000000	1.5786335369
2.3850000000	1.5927683437
2.3900000000	1.6106002349
2.3950000000	1.6294663377
2.4000000000	1.6509556238
2.4050000000	1.6809892676
2.4100000000	1.7225758935
2.4150000000	1.7795316950
2.4200000000	1.8544525916
2.4250000000	1.9497008121
2.4300000000	2.0679262750
2.4350000000	2.2124505947
2.4400000000	2.3875475387
2.4450000000	2.5987306850
2.4500000000	2.8530171464
2.4550000000	3.1592844288
2.4600000000	3.5284945935
2.4650000000	3.9739116411
2.4700000000	4.5108993070
2.4750000000	5.1550965219
2.4800000000	5.9234184600
2.4850000000	6.8234699333
2.4900000000	7.8477996154
2.4950000000	8.9593565360
2.5000000000	10.0758336340
2.5050000000	11.1077271955
2.5100000000	11.7743700022
2.5150000000	11.9203436247
2.5200000000	11.5255456810
2.5250000000	10.7134995498
2.5300000000	9.6721396677
2.5350000000	8.5663181266
2.5400000000	7.5004554762
2.5450000000	6.5261643546
2.5500000000	5.6627332012
2.5550000000	4.9126135153
2.5600000000	4.2649232597
2.5650000000	3.7182414269
2.5700000000	3.2616597859
2.5750000000	2.8887214335
2.5800000000	2.5943836909
2.5850000000	2.3723998418
2.5900000000	2.2114930029
2.5950000000	2.0953379386
2.6000000000	2.0068595313
2.6050000000	1.9437549726
2.6100000000	1.8870936945
2.6150000000	1.8361789358
2.6200000000	1.7922831437
2.6250000000	1.7566574814
2.6300000000	1.7300576553
2.6350000000	1.7128113195
2.6400000000	1.7050904743
2.6450000000	1.7070890250
2.6500000000	1.7192235481
2.6550000000	1.7415639169
2.6600000000	1.7746958362
2.6650000000	1.8191368372
2.6700000000	1.8754967407
2.6750000000	1.9444991279
2.6800000000	2.0269493244
2.6850000000	2.1237268204
2.6900000000	2.2356813994
2.6950000000	2.3635831888
2.7000000000	2.5079654633
2.7050000000	2.6862128064
2.7100000000	2.8859889709
2.7150000000	3.1059211666
2.7200000000	3.3430438438
2.7250000000	3.5924178473
2.7300000000	3.8467806124
2.7350000000	4.0962388853
2.7400000000	4.3281083700
2.7450000000	4.5289989447
2.7500000000	4.6794735519
2.7550000000	4.7661806532
2.7600000000	4.7790930040
2.7650000000	4.7156313366
2.7700000000	4.5815749733
2.7750000000	4.3898907898
2.7800000000	4.1577767701
2.7850000000	3.9035289815
2.7900000000	3.6434915783
2.7950000000	3.3907508352
2.8000000000	3.1545369192
2.8050000000	2.9143423307
2.8100000000	2.7069969921
2.8150000000	2.5320281429
2.8200000000	2.3866856974
2.8250000000	2.2673145559
2.8300000000	2.1702480642
2.8350000000	2.0923613009
2.8400000000	2.0303322404
2.8450000000	1.9843846870
2.8500000000	1.9520841078
2.8550000000	1.9325233102
2.8600000000	1.9250604787
2.8650000000	1.9291885425
2.8700000000	1.9444558840
2.8750000000	1.9704005006
2.8800000000	2.0064877434
2.8850000000	2.0520528489
2.8900000000	2.1062774193
2.8950000000	2.1681619528
2.9000000000	2.2365211090
2.9050000000	2.3263139419
2.9100000000	2.4184997386
2.9150000000	2.5095238232
2.9200000000	2.5951118565
2.9250000000	2.6703078826
2.9300000000	2.7304539571
2.9350000000	2.7693486018
2.9400000000	2.7838855389
2.9450000000	2.7724740991
2.9500000000	2.7360508194
2.9550000000	2.6779384420
2.9600000000	2.6031979805
2.9650000000	2.5177006379
2.9700000000	2.4272077958
2.9750000000	2.3367184011
2.9800000000	2.2501094088
2.9850000000	2.1700854671
2.9900000000	2.0983108629
2.9950000000	2.0356334720
3.0000000000	1.9823266349
