# energy (eV)    P(omega), $W$ = 300 nm, $h$ = 300 nm, $s$ = 20 nm, $d/W = 5$, $E_{\rm e}$ = 200 keV
0.2000000000	0.2063325985
0.2050000000	0.2092966853
0.2100000000	0.2120829630
0.2150000000	0.2146969889
0.2200000000	0.2171435534
0.2250000000	0.2194266172
0.2300000000	0.2215490880
0.2350000000	0.2235127827
0.2400000000	0.2253182171
0.2450000000	0.2269641640
0.2500000000	0.2284478993
0.2550000000	0.2297641923
0.2600000000	0.2309054013
0.2650000000	0.2318608747
0.2700000000	0.2326160109
0.2750000000	0.2331516989
0.2800000000	0.2334431665
0.2850000000	0.2334587382
0.2900000000	0.2331577202
0.2950000000	0.2324888019
0.3000000000	0.2313859078
0.3050000000	0.2297655620
0.3100000000	0.2275205961
0.3150000000	0.2397771105
0.3200000000	0.2543355235
0.3250000000	0.2727389749
0.3300000000	0.2973657733
0.3350000000	0.3280298703
0.3400000000	0.3681891743
0.3450000000	0.4169417938
0.3500000000	0.4807454851
0.3550000000	0.5652119615
0.3600000000	0.6755823815
0.3650000000	0.8295234515
0.3700000000	1.0327058419
0.3750000000	1.3155564016
0.3800000000	1.7249341066
0.3850000000	2.3632160821
0.3900000000	3.3723292593
0.3950000000	5.0876921421
0.4000000000	8.3599909806
0.4050000000	15.7013260081
0.4100000000	35.7475274479
0.4150000000	114.8187060109
0.4200000000	73.0849632577
0.4250000000	-137.9631093595
0.4300000000	38.4461500766
0.4350000000	23.9889264664
0.4400000000	14.6867426451
0.4450000000	9.6759616170
0.4500000000	6.7894810422
0.4550000000	5.0120820438
0.4600000000	3.8538091984
0.4650000000	3.0641048327
0.4700000000	2.5056996217
0.4750000000	2.1017178341
0.4800000000	1.8021351217
0.4850000000	1.5767046288
0.4900000000	1.4046673973
0.4950000000	1.2720817930
0.5000000000	1.1694211083
0.5050000000	1.0896872712
0.5100000000	1.0283833275
0.5150000000	0.9822003067
0.5200000000	0.9476589349
0.5250000000	0.9232096484
0.5300000000	0.9071754075
0.5350000000	0.8983331504
0.5400000000	0.8957827121
0.5450000000	0.8987725507
0.5500000000	0.9070788933
0.5550000000	0.9202825408
0.5600000000	0.9381792782
0.5650000000	0.9606828998
0.5700000000	0.9877204864
0.5750000000	1.0194854940
0.5800000000	1.0562924636
0.5850000000	1.0983480371
0.5900000000	1.1460454191
0.5950000000	1.1998721590
0.6000000000	1.2604485381
0.6050000000	1.3286636695
0.6100000000	1.4053740590
0.6150000000	1.4917420970
0.6200000000	1.5893193079
0.6250000000	1.6995912367
0.6300000000	1.8247535341
0.6350000000	1.9675429863
0.6400000000	2.1308083853
0.6450000000	2.3186597674
0.6500000000	2.5365027600
0.6550000000	2.7899658230
0.6600000000	3.0876962776
0.6650000000	3.4407982077
0.6700000000	3.8623263076
0.6750000000	4.3721797148
0.6800000000	4.9971506538
0.6850000000	5.7723111585
0.6900000000	6.7520260722
0.6950000000	8.0123038801
0.7000000000	9.6739553230
0.7050000000	11.9216630893
0.7100000000	15.0684469526
0.7150000000	19.6715885161
0.7200000000	26.7688011330
0.7250000000	38.5540830788
0.7300000000	60.1943026793
0.7350000000	106.5159315088
0.7400000000	233.6051262761
0.7450000000	775.5477214379
0.7500000000	2404.4332357054
0.7550000000	605.3429225741
0.7600000000	200.6287856667
0.7650000000	96.2043311719
0.7700000000	55.9929852002
0.7750000000	36.5741385809
0.7800000000	25.7595276459
0.7850000000	19.1472484731
0.7900000000	14.8050800846
0.7950000000	11.8093039576
0.8000000000	9.6550120322
0.8050000000	8.0500010092
0.8100000000	6.8256716700
0.8150000000	5.8547437467
0.8200000000	5.0882205876
0.8250000000	4.4708514154
0.8300000000	3.9649599077
0.8350000000	3.5489322607
0.8400000000	3.2000979142
0.8450000000	2.9073170895
0.8500000000	2.6598122033
0.8550000000	2.4461661165
0.8600000000	2.2637802250
0.8650000000	2.1080283960
0.8700000000	1.9703673187
0.8750000000	1.8533281988
0.8800000000	1.7541078448
0.8850000000	1.6651419390
0.8900000000	1.5939656371
0.8950000000	1.5292094325
0.9000000000	1.4780947421
0.9050000000	1.4432833537
0.9100000000	1.4114012825
0.9150000000	1.3925412191
0.9200000000	1.3914244691
0.9250000000	1.3908380244
0.9300000000	1.3713914290
0.9350000000	1.3104973600
0.9400000000	0.9667395310
0.9450000000	-0.5997264531
0.9500000000	-8.8748762604
0.9550000000	-50.8778542330
0.9600000000	12.0172990329
0.9650000000	21.1217661863
0.9700000000	9.3746290075
0.9750000000	4.9236789460
0.9800000000	3.0864767647
0.9850000000	2.2269737786
0.9900000000	1.7314947702
0.9950000000	1.4309475371
1.0000000000	1.2390115633
1.0050000000	1.1173812014
1.0100000000	1.0229815892
1.0150000000	0.9539763097
1.0200000000	0.9075182855
1.0250000000	0.8684217464
1.0300000000	0.8386547378
1.0350000000	0.8160553910
1.0400000000	0.8016202591
1.0450000000	0.7894834999
1.0500000000	0.7813158428
1.0550000000	0.7766495424
1.0600000000	0.7765636304
1.0650000000	0.7780556824
1.0700000000	0.7823379880
1.0750000000	0.7894247521
1.0800000000	0.8001105798
1.0850000000	0.8136955413
1.0900000000	0.8339446933
1.0950000000	0.8580252622
1.1000000000	0.8867826143
1.1050000000	0.9198474029
1.1100000000	0.9582996415
1.1150000000	1.0029915175
1.1200000000	1.0549686913
1.1250000000	1.1154244527
1.1300000000	1.1861624099
1.1350000000	1.2693605694
1.1400000000	1.3675400473
1.1450000000	1.4851191153
1.1500000000	1.6270547310
1.1550000000	1.8004414008
1.1600000000	2.0152865144
1.1650000000	2.2846136191
1.1700000000	2.6326239255
1.1750000000	3.0916161803
1.1800000000	3.7149090356
1.1850000000	4.5900929494
1.1900000000	5.8824922709
1.1950000000	7.9089773294
1.2000000000	11.3434350883
1.2050000000	17.8303166286
1.2100000000	32.0968008782
1.2150000000	70.6638626827
1.2200000000	173.3097252405
1.2250000000	155.8616831188
1.2300000000	62.3569518840
1.2350000000	29.4006312443
1.2400000000	16.9239819590
1.2450000000	11.2061857502
1.2500000000	8.2022290897
1.2550000000	6.4825654854
1.2600000000	5.4520443680
1.2650000000	4.8248199286
1.2700000000	4.4745872538
1.2750000000	4.3198598633
1.2800000000	4.3237928359
1.2850000000	4.4728804213
1.2900000000	4.7711799876
1.2950000000	5.2356888664
1.3000000000	5.9197915768
1.3050000000	6.8929837864
1.3100000000	8.2809617605
1.3150000000	10.3002880906
1.3200000000	13.3386903713
1.3250000000	18.1366024537
1.3300000000	26.3101185818
1.3350000000	41.6115621677
1.3400000000	74.3128272149
1.3450000000	155.5122121162
1.3500000000	330.3627965060
1.3550000000	308.3109741532
1.3600000000	142.2311306398
1.3650000000	69.8936634482
1.3700000000	40.0831219948
1.3750000000	25.7746330910
1.3800000000	17.9725792025
1.3850000000	13.2734840133
1.3900000000	10.2464554099
1.3950000000	8.1825484642
1.4000000000	6.7169381284
1.4050000000	5.6437373332
1.4100000000	4.8394845675
1.4150000000	4.2326246943
1.4200000000	3.7762754517
1.4250000000	3.4706417140
1.4300000000	3.3587655106
1.4350000000	3.4211499775
1.4400000000	2.6351767007
1.4450000000	0.2276864694
1.4500000000	-3.6807589985
1.4550000000	-1.0318638287
1.4600000000	4.4576629086
1.4650000000	2.4132146512
1.4700000000	-2.2795497752
1.4750000000	-9.9755478405
1.4800000000	-4.4398169548
1.4850000000	7.2969260580
1.4900000000	5.9149117309
1.4950000000	3.8285289980
1.5000000000	2.6899714760
1.5050000000	2.0768974233
1.5100000000	1.7274618652
1.5150000000	1.5152478460
1.5200000000	1.3781589532
1.5250000000	1.2929784437
1.5300000000	1.2279077072
1.5350000000	1.1830509700
1.5400000000	1.1534985110
1.5450000000	1.1366156290
1.5500000000	1.1307008400
1.5550000000	1.1357959473
1.5600000000	1.1549279003
1.5650000000	1.1865383452
1.5700000000	1.2377307024
1.5750000000	1.3171669741
1.5800000000	1.4411119172
1.5850000000	1.6412261578
1.5900000000	1.9842141760
1.5950000000	2.6176887335
1.6000000000	3.8534531362
1.6050000000	5.8967518384
1.6100000000	6.8431015543
1.6150000000	5.0691935139
1.6200000000	3.4050543881
1.6250000000	2.5266346698
1.6300000000	2.0856011488
1.6350000000	1.8585664870
1.6400000000	1.7435197309
1.6450000000	1.6930486508
1.6500000000	1.6834108318
1.6550000000	1.7034854560
1.6600000000	1.7466353571
1.6650000000	1.8098307293
1.6700000000	1.8919209440
1.6750000000	1.9929145975
1.6800000000	2.1137158040
1.6850000000	2.2557262644
1.6900000000	2.4201855348
1.6950000000	2.6047602026
1.7000000000	2.8063579553
1.7050000000	3.0129809480
1.7100000000	3.2487699410
1.7150000000	3.8345828032
1.7200000000	4.8622802821
1.7250000000	5.8039569609
1.7300000000	6.8146154887
1.7350000000	7.9251245833
1.7400000000	9.0147907583
1.7450000000	10.4143957164
1.7500000000	12.5309451406
1.7550000000	15.6812101728
1.7600000000	20.3945912283
1.7650000000	27.6603090941
1.7700000000	39.3641075967
1.7750000000	59.0819691495
1.7800000000	92.6808265186
1.7850000000	142.2313130628
1.7900000000	176.7554765273
1.7950000000	150.5107753436
1.8000000000	100.1691616582
1.8050000000	63.2591340178
1.8100000000	41.7082628785
1.8150000000	29.0764447714
1.8200000000	21.3026485342
1.8250000000	16.2628694951
1.8300000000	12.8410324112
1.8350000000	10.4257559620
1.8400000000	8.6661119779
1.8450000000	7.3492205949
1.8500000000	6.3409203176
1.8550000000	5.5572628830
1.8600000000	4.9396865552
1.8650000000	4.4483914446
1.8700000000	4.0550707659
1.8750000000	3.7389421571
1.8800000000	3.4835202216
1.8850000000	3.2742369127
1.8900000000	3.0943048963
1.8950000000	2.9186732300
1.9000000000	2.7040842554
1.9050000000	2.2978835068
1.9100000000	1.7388232745
1.9150000000	1.4424982169
1.9200000000	3.5285888687
1.9250000000	9.2949869765
1.9300000000	13.8681511589
1.9350000000	13.6549536528
1.9400000000	10.7400701670
1.9450000000	7.9139917693
1.9500000000	5.9297543326
1.9550000000	4.6296161536
1.9600000000	3.7704416701
1.9650000000	3.1953831598
1.9700000000	2.7802335533
1.9750000000	2.4759133420
1.9800000000	2.2435779691
1.9850000000	2.0550450672
1.9900000000	1.8887498260
1.9950000000	1.7258720182
2.0000000000	1.5636675507
2.0050000000	1.4600437634
2.0100000000	1.5194190693
2.0150000000	1.6829790711
2.0200000000	1.7838345601
2.0250000000	1.8106367201
2.0300000000	1.8166861159
2.0350000000	1.8276804259
2.0400000000	1.8531688837
2.0450000000	1.8955862389
2.0500000000	1.9565123588
2.0550000000	2.0373819583
2.0600000000	2.1381963718
2.0650000000	2.2528505146
2.0700000000	2.3662036546
2.0750000000	2.4669092578
2.0800000000	2.5649800744
2.0850000000	2.6811229873
2.0900000000	2.8292183938
2.0950000000	3.0151119770
2.1000000000	3.2450925828
2.1050000000	3.5170782362
2.1100000000	3.8501840633
2.1150000000	4.2583837927
2.1200000000	4.7612739617
2.1250000000	5.3863419704
2.1300000000	6.1723336080
2.1350000000	7.1745664998
2.1400000000	8.4729167672
2.1450000000	10.1841643875
2.1500000000	12.4784616162
2.1550000000	15.5966203879
2.1600000000	19.8468426766
2.1650000000	25.4901376011
2.1700000000	32.4221035689
2.1750000000	39.3139625699
2.1800000000	43.5723716803
2.1850000000	43.7939088557
2.1900000000	41.8581883309
2.1950000000	40.3520246237
2.2000000000	39.6842835197
2.2050000000	37.8283353256
2.2100000000	33.8875472153
2.2150000000	29.0421658150
2.2200000000	24.6923289841
2.2250000000	21.0974469711
2.2300000000	17.9322880223
2.2350000000	15.0708181433
2.2400000000	12.6130764469
2.2450000000	10.6465948256
2.2500000000	9.1390965464
2.2550000000	8.0066076881
2.2600000000	7.1586159113
2.2650000000	6.5044301480
2.2700000000	5.9460247073
2.2750000000	5.3868346874
2.2800000000	4.7848756193
2.2850000000	4.2121398265
2.2900000000	3.8164145191
2.2950000000	3.6813385174
2.3000000000	3.7297855090
2.3050000000	3.8036770499
2.3100000000	3.8099321795
2.3150000000	3.7493083990
2.3200000000	3.6620971603
2.3250000000	3.5899149160
2.3300000000	3.5540565614
2.3350000000	3.5581839661
2.3400000000	3.5903801345
2.3450000000	3.6236698435
2.3500000000	3.6240855751
2.3550000000	3.5699562377
2.3600000000	3.4674147568
2.3650000000	3.3432600203
2.3700000000	3.2251156720
2.3750000000	3.1294791668
2.3800000000	3.0617075944
2.3850000000	3.0202818206
2.3900000000	3.0017422548
2.3950000000	3.0020820334
2.4000000000	3.0223939608
2.4050000000	3.0693606566
2.4100000000	3.1452220446
2.4150000000	3.2530799383
2.4200000000	3.3947996702
2.4250000000	3.5736425789
2.4300000000	3.7943636837
2.4350000000	4.0633413741
2.4400000000	4.3888066705
2.4450000000	4.7812685147
2.4500000000	5.2539863716
2.4550000000	5.8236255263
2.4600000000	6.5106618385
2.4650000000	7.3396620655
2.4700000000	8.3388015371
2.4750000000	9.5363033237
2.4800000000	10.9613150318
2.4850000000	12.6253743184
2.4900000000	14.5122143589
2.4950000000	16.5543084437
2.5000000000	18.6088500827
2.5050000000	20.5307549757
2.5100000000	21.8290861749
2.5150000000	22.2206982719
2.5200000000	21.6381398347
2.5250000000	20.2612370927
2.5300000000	18.4032367929
2.5350000000	16.3662302382
2.5400000000	14.3636241647
2.5450000000	12.5159847149
2.5500000000	10.8769194514
2.5550000000	9.4586288691
2.5600000000	8.2416112285
2.5650000000	7.2184035893
2.5700000000	6.3649191599
2.5750000000	5.6660795885
2.5800000000	5.1106220957
2.5850000000	4.6863020626
2.5900000000	4.3729793361
2.5950000000	4.1423377177
2.6000000000	3.9648938297
2.6050000000	3.8387859059
2.6100000000	3.7295894171
2.6150000000	3.6355739032
2.6200000000	3.5585970604
2.6250000000	3.5007172120
2.6300000000	3.4633085193
2.6350000000	3.4470723811
2.6400000000	3.4524158138
2.6450000000	3.4797179644
2.6500000000	3.5297206528
2.6550000000	3.6026317829
2.6600000000	3.6995710955
2.6650000000	3.8216698202
2.6700000000	3.9703173282
2.6750000000	4.1471971067
2.6800000000	4.3541743283
2.6850000000	4.5931569858
2.6900000000	4.8657076236
2.6950000000	5.1727328809
2.7000000000	5.5139220249
2.7050000000	5.9280807530
2.7100000000	6.3800835269
2.7150000000	6.8611319461
2.7200000000	7.3584284530
2.7250000000	7.8558943713
2.7300000000	8.3353851019
2.7350000000	8.7777345584
2.7400000000	9.1630073086
2.7450000000	9.4735043135
2.7500000000	9.6817732390
2.7550000000	9.7711925066
2.7600000000	9.7291501620
2.7650000000	9.5541772015
2.7700000000	9.2580019763
2.7750000000	8.8641248686
2.7800000000	8.4031774640
2.7850000000	7.9076562534
2.7900000000	7.4067182744
2.7950000000	6.9237449754
2.8000000000	6.4752692936
2.8050000000	6.0215140382
2.8100000000	5.6331559143
2.8150000000	5.3091537504
2.8200000000	5.0442925451
2.8250000000	4.8316986413
2.8300000000	4.6644478040
2.8350000000	4.5366144216
2.8400000000	4.4419603432
2.8450000000	4.3807028368
2.8500000000	4.3483082672
2.8550000000	4.3430491908
2.8600000000	4.3636355388
2.8650000000	4.4089050643
2.8700000000	4.4775581391
2.8750000000	4.5679458803
2.8800000000	4.6779070454
2.8850000000	4.8046308911
2.8900000000	4.9447388139
2.8950000000	5.0944096519
2.9000000000	5.2496247421
2.9050000000	5.4361550132
2.9100000000	5.6151047681
2.9150000000	5.7808442237
2.9200000000	5.9274642956
2.9250000000	6.0482598731
2.9300000000	6.1370572476
2.9350000000	6.1842563480
2.9400000000	6.1857131827
2.9450000000	6.1396622598
2.9500000000	6.0487609307
2.9550000000	5.9199188590
2.9600000000	5.7631097136
2.9650000000	5.5896346569
2.9700000000	5.4104221214
2.9750000000	5.2348117022
2.9800000000	5.0699596190
2.9850000000	4.9207487182
2.9900000000	4.7901157620
2.9950000000	4.6794393717
3.0000000000	4.5890098091
