# energy (eV)    P(omega), $W$ = 400 nm, $h$ = 300 nm, $s$ = 20 nm, $d/W = 5$, $E_{\rm e}$ = 200 keV
0.2000000000	0.1049178570
0.2050000000	0.1058722957
0.2100000000	0.1065443885
0.2150000000	0.1069228162
0.2200000000	0.1069917525
0.2250000000	0.1067296974
0.2300000000	0.1061083640
0.2350000000	0.1050909218
0.2400000000	0.1036300082
0.2450000000	0.1016645809
0.2500000000	0.0991165999
0.2550000000	0.0958856502
0.2600000000	0.0918423343
0.2650000000	0.0960794072
0.2700000000	0.1068419994
0.2750000000	0.1222430175
0.2800000000	0.1437011433
0.2850000000	0.1753362106
0.2900000000	0.2145347025
0.2950000000	0.2707293747
0.3000000000	0.3462716487
0.3050000000	0.4620604784
0.3100000000	0.6233519124
0.3150000000	0.9354442203
0.3200000000	1.4228750309
0.3250000000	1.7565988044
0.3300000000	2.2182485527
0.3350000000	2.8727062858
0.3400000000	3.9000759325
0.3450000000	5.6627179073
0.3500000000	9.1775889995
0.3550000000	17.3141073494
0.3600000000	42.5518128080
0.3650000000	0.1920035669
0.3700000000	19.7215906968
0.3750000000	25.9332647500
0.3800000000	12.0840991164
0.3850000000	6.8071369043
0.3900000000	4.3662121082
0.3950000000	3.0768047583
0.4000000000	2.3302374280
0.4050000000	1.8435267011
0.4100000000	1.5266672910
0.4150000000	1.3176816524
0.4200000000	1.1855999914
0.4250000000	1.0818669097
0.4300000000	0.9592885689
0.4350000000	0.8622750307
0.4400000000	0.7855482655
0.4450000000	0.7245416260
0.4500000000	0.6763775007
0.4550000000	0.6381850390
0.4600000000	0.6083922159
0.4650000000	0.5853363010
0.4700000000	0.5679165516
0.4750000000	0.5553628293
0.4800000000	0.5470030721
0.4850000000	0.5422479834
0.4900000000	0.5407490880
0.4950000000	0.5422382790
0.5000000000	0.5464865015
0.5050000000	0.5533916666
0.5100000000	0.5628701495
0.5150000000	0.5748722763
0.5200000000	0.5894229463
0.5250000000	0.6065426001
0.5300000000	0.6264825571
0.5350000000	0.6493545793
0.5400000000	0.6753598706
0.5450000000	0.7047622726
0.5500000000	0.7379350925
0.5550000000	0.7752866443
0.5600000000	0.8173139358
0.5650000000	0.8646560323
0.5700000000	0.9181951581
0.5750000000	0.9785851903
0.5800000000	1.0470495776
0.5850000000	1.1252599339
0.5900000000	1.2143438459
0.5950000000	1.3166739224
0.6000000000	1.4353846994
0.6050000000	1.5728255350
0.6100000000	1.7343817651
0.6150000000	1.9245193626
0.6200000000	2.1509046127
0.6250000000	2.4245359966
0.6300000000	2.7566303332
0.6350000000	3.1682645310
0.6400000000	3.6826924028
0.6450000000	4.3421108514
0.6500000000	5.2004224074
0.6550000000	6.3489324555
0.6600000000	7.9418082233
0.6650000000	10.2226213653
0.6700000000	13.6763195246
0.6750000000	19.2293499490
0.6800000000	29.0453860166
0.6850000000	48.7419155315
0.6900000000	97.6867837716
0.6950000000	274.2219269278
0.7000000000	1330.0020995115
0.7050000000	646.6146064907
0.7100000000	166.1021498796
0.7150000000	70.6361729316
0.7200000000	38.5754226044
0.7250000000	24.2323287582
0.7300000000	16.6200761666
0.7350000000	12.1200899859
0.7400000000	9.2384591288
0.7450000000	7.2825197865
0.7500000000	5.8969675861
0.7550000000	4.8790416603
0.7600000000	4.1118072617
0.7650000000	3.5168273615
0.7700000000	3.0471512051
0.7750000000	2.6700887970
0.7800000000	2.3636748934
0.7850000000	2.1113741511
0.7900000000	1.9000045300
0.7950000000	1.7234719454
0.8000000000	1.5733715412
0.8050000000	1.4447738542
0.8100000000	1.3352986064
0.8150000000	1.2393480635
0.8200000000	1.1558128092
0.8250000000	1.0857121708
0.8300000000	1.0243508891
0.8350000000	0.9710061705
0.8400000000	0.9285251755
0.8450000000	0.8914582709
0.8500000000	0.8600295428
0.8550000000	0.8401640821
0.8600000000	0.8242516631
0.8650000000	0.8128584953
0.8700000000	0.8168259849
0.8750000000	0.8182160478
0.8800000000	0.8138126079
0.8850000000	0.7784277483
0.8900000000	0.6040845028
0.8950000000	-0.2696419981
0.9000000000	-4.9548100327
0.9050000000	-32.5567415731
0.9100000000	6.1994477704
0.9150000000	14.6853616812
0.9200000000	6.0961772706
0.9250000000	3.1714025051
0.9300000000	1.9358924058
0.9350000000	1.3456041931
0.9400000000	1.0271669509
0.9450000000	0.8506570366
0.9500000000	0.7253044989
0.9550000000	0.6413921184
0.9600000000	0.5894921615
0.9650000000	0.5466651941
0.9700000000	0.5160995170
0.9750000000	0.4952596495
0.9800000000	0.4825581359
0.9850000000	0.4801978193
0.9900000000	0.4847647494
0.9950000000	0.5033392106
1.0000000000	0.5478000527
1.0050000000	0.6516480504
1.0100000000	0.9238332408
1.0150000000	1.8567463449
1.0200000000	3.5647074101
1.0250000000	1.6212121674
1.0300000000	0.8309148843
1.0350000000	0.5953700200
1.0400000000	0.5027465905
1.0450000000	0.4592988024
1.0500000000	0.4375262745
1.0550000000	0.4261089358
1.0600000000	0.4209919348
1.0650000000	0.4200464186
1.0700000000	0.4220921089
1.0750000000	0.4267141346
1.0800000000	0.4330870183
1.0850000000	0.4417558126
1.0900000000	0.4542787044
1.0950000000	0.4688764838
1.1000000000	0.4856923630
1.1050000000	0.5047568536
1.1100000000	0.5263716810
1.1150000000	0.5508245278
1.1200000000	0.5784567401
1.1250000000	0.6095507651
1.1300000000	0.6449122128
1.1350000000	0.6850839740
1.1400000000	0.7308792347
1.1450000000	0.7833319147
1.1500000000	0.8432465114
1.1550000000	0.9131283317
1.1600000000	0.9945614503
1.1650000000	1.0896207130
1.1700000000	1.1987371330
1.1750000000	1.3094048641
1.1800000000	1.4141557205
1.1850000000	1.9654730207
1.1900000000	2.4391170356
1.1950000000	3.3435796015
1.2000000000	4.5536587237
1.2050000000	3.9944337771
1.2100000000	3.8228294082
1.2150000000	4.2559522410
1.2200000000	5.0901866362
1.2250000000	6.3712913294
1.2300000000	8.3192963839
1.2350000000	11.4008351371
1.2400000000	16.5916896208
1.2450000000	26.3660402525
1.2500000000	47.5345449967
1.2550000000	102.8975391863
1.2600000000	248.5408394147
1.2650000000	251.7619519696
1.2700000000	104.7280102200
1.2750000000	48.3426305089
1.2800000000	26.7730619359
1.2850000000	16.8365263145
1.2900000000	11.5399253649
1.2950000000	8.4104880200
1.3000000000	6.4171741346
1.3050000000	5.0750823394
1.3100000000	4.1286919702
1.3150000000	3.4448790060
1.3200000000	2.9379691550
1.3250000000	2.5565032035
1.3300000000	2.2692255261
1.3350000000	2.0569577857
1.3400000000	1.9097438823
1.3450000000	1.8248556292
1.3500000000	1.8146831574
1.3550000000	1.9074324243
1.3600000000	2.1748690167
1.3650000000	2.7996144005
1.3700000000	4.2915618246
1.3750000000	8.0036214107
1.3800000000	13.0734858971
1.3850000000	9.1327903862
1.3900000000	4.6540712668
1.3950000000	2.7004070411
1.4000000000	1.7684729945
1.4050000000	1.1957243594
1.4100000000	0.6773685233
1.4150000000	-0.0958700006
1.4200000000	-1.8269817760
1.4250000000	-6.4139318689
1.4300000000	-8.6239954112
1.4350000000	3.9510770833
1.4400000000	5.0540235856
1.4450000000	3.0301196662
1.4500000000	1.8854722035
1.4550000000	1.2997430817
1.4600000000	0.9597826083
1.4650000000	0.6910988024
1.4700000000	0.4036878581
1.4750000000	0.4744283612
1.4800000000	0.6955843057
1.4850000000	0.6316121087
1.4900000000	0.5592733636
1.4950000000	0.5124843377
1.5000000000	0.4817477789
1.5050000000	0.4614244078
1.5100000000	0.4475981993
1.5150000000	0.4400529959
1.5200000000	0.4344899402
1.5250000000	0.4324802527
1.5300000000	0.4342080176
1.5350000000	0.4404652958
1.5400000000	0.4532288242
1.5450000000	0.4768889320
1.5500000000	0.5213135415
1.5550000000	0.6061721201
1.5600000000	0.7335485985
1.5650000000	0.7539651311
1.5700000000	0.6390325956
1.5750000000	0.5583879053
1.5800000000	0.5236075863
1.5850000000	0.5126752543
1.5900000000	0.5141119740
1.5950000000	0.5229328844
1.6000000000	0.5369664094
1.6050000000	0.5554653241
1.6100000000	0.5778715169
1.6150000000	0.6041021875
1.6200000000	0.6345753523
1.6250000000	0.6696516313
1.6300000000	0.7099235013
1.6350000000	0.7561547297
1.6400000000	0.8093219279
1.6450000000	0.8706723936
1.6500000000	0.9417717744
1.6550000000	1.0246041642
1.6600000000	1.1217401550
1.6650000000	1.2364978287
1.6700000000	1.3721034650
1.6750000000	1.5364741285
1.6800000000	1.7366080376
1.6850000000	1.9835146191
1.6900000000	2.2928251663
1.6950000000	2.6874782583
1.7000000000	3.2020053048
1.7050000000	3.9118115823
1.7100000000	4.9021219865
1.7150000000	6.3415672256
1.7200000000	8.5353448112
1.7250000000	12.0157063425
1.7300000000	17.3640626687
1.7350000000	24.2275418376
1.7400000000	32.9036538048
1.7450000000	48.1288656403
1.7500000000	67.8928135462
1.7550000000	68.9849318097
1.7600000000	48.3973851417
1.7650000000	30.1471067478
1.7700000000	19.3255143201
1.7750000000	13.1719497356
1.7800000000	9.5354512797
1.7850000000	7.2985513440
1.7900000000	5.9113318405
1.7950000000	5.1175798313
1.8000000000	4.7971979938
1.8050000000	4.6957613472
1.8100000000	4.1778743198
1.8150000000	3.2372519570
1.8200000000	2.4857636689
1.8250000000	2.0983078635
1.8300000000	1.8268019764
1.8350000000	1.5855041784
1.8400000000	1.3887427589
1.8450000000	1.2326002273
1.8500000000	1.1067660354
1.8550000000	1.0028132331
1.8600000000	0.9071915611
1.8650000000	0.8263535157
1.8700000000	0.7446557976
1.8750000000	0.6268812468
1.8800000000	0.3584066204
1.8850000000	-0.2300218772
1.8900000000	-1.0215002518
1.8950000000	-1.1573094291
1.9000000000	0.1238552330
1.9050000000	1.3183593771
1.9100000000	1.4577408788
1.9150000000	1.2315190119
1.9200000000	1.0098000533
1.9250000000	0.8524657678
1.9300000000	0.7571805857
1.9350000000	0.6844306754
1.9400000000	0.6360294411
1.9450000000	0.6039834193
1.9500000000	0.5815826318
1.9550000000	0.5628493891
1.9600000000	0.5466853638
1.9650000000	0.5352116214
1.9700000000	0.5290865594
1.9750000000	0.5279022210
1.9800000000	0.5313286712
1.9850000000	0.5394658105
1.9900000000	0.5528478758
1.9950000000	0.5721428896
2.0000000000	0.5968492744
2.0050000000	0.6248786681
2.0100000000	0.6449891534
2.0150000000	0.6584087303
2.0200000000	0.6745907486
2.0250000000	0.6995628289
2.0300000000	0.7350992875
2.0350000000	0.7820890169
2.0400000000	0.8421458037
2.0450000000	0.9180692107
2.0500000000	1.0138795804
2.0550000000	1.1340443845
2.0600000000	1.2807300880
2.0650000000	1.4516305430
2.0700000000	1.6493131352
2.0750000000	1.8958301318
2.0800000000	2.2275894706
2.0850000000	2.6800891703
2.0900000000	3.2739736436
2.0950000000	3.9665748714
2.1000000000	4.5838762316
2.1050000000	4.8829985254
2.1100000000	4.7409509460
2.1150000000	4.4140787030
2.1200000000	4.1830438558
2.1250000000	4.1731912466
2.1300000000	4.4217083141
2.1350000000	4.9580699032
2.1400000000	5.8413125209
2.1450000000	7.1758804625
2.1500000000	9.1080299732
2.1550000000	11.7476225004
2.1600000000	14.8817940726
2.1650000000	17.5160154941
2.1700000000	18.1384541699
2.1750000000	16.2368615143
2.1800000000	13.1084572853
2.1850000000	10.1138018361
2.1900000000	7.7724251749
2.1950000000	6.0808529236
2.2000000000	4.8940793603
2.2050000000	4.0753098997
2.2100000000	3.5069212910
2.2150000000	3.0709604616
2.2200000000	2.6803034669
2.2250000000	2.3087171167
2.2300000000	1.9722673174
2.2350000000	1.6833776282
2.2400000000	1.4386985528
2.2450000000	1.2274280690
2.2500000000	1.0388137016
2.2550000000	0.8668414786
2.2600000000	0.6948654808
2.2650000000	0.5697551932
2.2700000000	0.5017926729
2.2750000000	0.5188959138
2.2800000000	0.6175956291
2.2850000000	0.7432796963
2.2900000000	0.8352762366
2.2950000000	0.8760468384
2.3000000000	0.8807043371
2.3050000000	0.8666274722
2.3100000000	0.8480881051
2.3150000000	0.8316634616
2.3200000000	0.8199537811
2.3250000000	0.8143857977
2.3300000000	0.8161130277
2.3350000000	0.8260911046
2.3400000000	0.8451368610
2.3450000000	0.8740772216
2.3500000000	0.9137884834
2.3550000000	0.9655844188
2.3600000000	1.0286147198
2.3650000000	1.1032718051
2.3700000000	1.1893483132
2.3750000000	1.2877788292
2.3800000000	1.4021164183
2.3850000000	1.5365769489
2.3900000000	1.6920924981
2.3950000000	1.8617381795
2.4000000000	2.0277120121
2.4050000000	2.1707447048
2.4100000000	2.2500246155
2.4150000000	2.2576035347
2.4200000000	2.2128641251
2.4250000000	2.1488583983
2.4300000000	2.0949208509
2.4350000000	2.0687594424
2.4400000000	2.0774409989
2.4450000000	2.1221081374
2.4500000000	2.2029045271
2.4550000000	2.3216306482
2.4600000000	2.4858970868
2.4650000000	2.7035053364
2.4700000000	2.9831430957
2.4750000000	3.3302363566
2.4800000000	3.7420464733
2.4850000000	4.2010028321
2.4900000000	4.6669132471
2.4950000000	5.0730810230
2.5000000000	5.3360446740
2.5050000000	5.3698538987
2.5100000000	5.1401892157
2.5150000000	4.7097385447
2.5200000000	4.1786663437
2.5250000000	3.6349697583
2.5300000000	3.1322885785
2.5350000000	2.6931604588
2.5400000000	2.3209034165
2.5450000000	2.0099945676
2.5500000000	1.7524301184
2.5550000000	1.5410188092
2.5600000000	1.3642422780
2.5650000000	1.2319456154
2.5700000000	1.1368857546
2.5750000000	1.0756727399
2.5800000000	1.0415125382
2.5850000000	1.0251131239
2.5900000000	1.0177541922
2.5950000000	1.0140056871
2.6000000000	1.0121167857
2.6050000000	1.0201849732
2.6100000000	1.0329695407
2.6150000000	1.0524281273
2.6200000000	1.0796007908
2.6250000000	1.1145515821
2.6300000000	1.1562939662
2.6350000000	1.2027341546
2.6400000000	1.2506730019
2.6450000000	1.2960536912
2.6500000000	1.3345798163
2.6550000000	1.3627287122
2.6600000000	1.3788640323
2.6650000000	1.3839468246
2.6700000000	1.3813323135
2.6750000000	1.3759250870
2.6800000000	1.3724776655
2.6850000000	1.3754304073
2.6900000000	1.3878756177
2.6950000000	1.4117137528
2.7000000000	1.4478560632
2.7050000000	1.5019543290
2.7100000000	1.5715747346
2.7150000000	1.6555918667
2.7200000000	1.7516793158
2.7250000000	1.8558878217
2.7300000000	1.9622552793
2.7350000000	2.0627435362
2.7400000000	2.1477911042
2.7450000000	2.2076899756
2.7500000000	2.2346152784
2.7550000000	2.2246247662
2.7600000000	2.1787255657
2.7650000000	2.1025108915
2.7700000000	2.0045395240
2.7750000000	1.8942941101
2.7800000000	1.7804696495
2.7850000000	1.6700221862
2.7900000000	1.5669843881
2.7950000000	1.4757691422
2.8000000000	1.3972894589
2.8050000000	1.3246020027
2.8100000000	1.2672923557
2.8150000000	1.2231045605
2.8200000000	1.1895878344
2.8250000000	1.1644932603
2.8300000000	1.1459094171
2.8350000000	1.1322508302
2.8400000000	1.1221777843
2.8450000000	1.1145528331
2.8500000000	1.1084625967
2.8550000000	1.1033007156
2.8600000000	1.0988618641
2.8650000000	1.0953720776
2.8700000000	1.0934313054
2.8750000000	1.0938647383
2.8800000000	1.0975400305
2.8850000000	1.1052025397
2.8900000000	1.1173604814
2.8950000000	1.1342157810
2.9000000000	1.1556299262
2.9050000000	1.1876601444
2.9100000000	1.2227845283
2.9150000000	1.2586580606
2.9200000000	1.2923171510
2.9250000000	1.3205781839
2.9300000000	1.3404852622
2.9350000000	1.3498283153
2.9400000000	1.3475707780
2.9450000000	1.3340475431
2.9500000000	1.3108397579
2.9550000000	1.2803718478
2.9600000000	1.2454005566
2.9650000000	1.2085371373
2.9700000000	1.1719290575
2.9750000000	1.1371207715
2.9800000000	1.1050631354
2.9850000000	1.0762160983
2.9900000000	1.0506866384
2.9950000000	1.0283628124
3.0000000000	1.0090231828
