# energy (eV)    P(omega), $W$ = 400 nm, $h$ = 300 nm, $s$ = 20 nm, $d/W = 5$, $E_{\rm e}$ = 200 keV
0.2000000000	0.1762730052
0.2050000000	0.1778771490
0.2100000000	0.1790079277
0.2150000000	0.1796462901
0.2200000000	0.1797656232
0.2250000000	0.1793297813
0.2300000000	0.1782912381
0.2350000000	0.1765881141
0.2400000000	0.1741408663
0.2450000000	0.1708469593
0.2500000000	0.1665753426
0.2550000000	0.1611573795
0.2600000000	0.1543757857
0.2650000000	0.1614889566
0.2700000000	0.1795539189
0.2750000000	0.2054051793
0.2800000000	0.2414248887
0.2850000000	0.2945293059
0.2900000000	0.3603339612
0.2950000000	0.4546742299
0.3000000000	0.5815011207
0.3050000000	0.7759028917
0.3100000000	1.0467121793
0.3150000000	1.5707230862
0.3200000000	2.3891642381
0.3250000000	2.9495957554
0.3300000000	3.7248771511
0.3350000000	4.8239839264
0.3400000000	6.5493958876
0.3450000000	9.5097093461
0.3500000000	15.4129466468
0.3550000000	29.0785366984
0.3600000000	71.4671112025
0.3650000000	0.3199012962
0.3700000000	33.1262736801
0.3750000000	43.5613300890
0.3800000000	20.2991318605
0.3850000000	11.4353080581
0.3900000000	7.3351523220
0.3950000000	5.1692280784
0.4000000000	3.9151434919
0.4050000000	3.0975548782
0.4100000000	2.5652867598
0.4150000000	2.2142340013
0.4200000000	1.9923784535
0.4250000000	1.8181425298
0.4300000000	1.6122231971
0.4350000000	1.4492501086
0.4400000000	1.3203579319
0.4450000000	1.2178758774
0.4500000000	1.1369705034
0.4550000000	1.0728190692
0.4600000000	1.0227811635
0.4650000000	0.9840634796
0.4700000000	0.9548169854
0.4750000000	0.9337481005
0.4800000000	0.9197279588
0.4850000000	0.9117666677
0.4900000000	0.9092790012
0.4950000000	0.9118147101
0.5000000000	0.9189893426
0.5050000000	0.9306316863
0.5100000000	0.9466015323
0.5150000000	0.9668158401
0.5200000000	0.9913168317
0.5250000000	1.0201393865
0.5300000000	1.0537064561
0.5350000000	1.0922065632
0.5400000000	1.1359784863
0.5450000000	1.1854663933
0.5500000000	1.2412987425
0.5550000000	1.3041627870
0.5600000000	1.3748951905
0.5650000000	1.4545714630
0.5700000000	1.5446765205
0.5750000000	1.6463110415
0.5800000000	1.7615341478
0.5850000000	1.8931590404
0.5900000000	2.0430840203
0.5950000000	2.2153020855
0.6000000000	2.4150886968
0.6050000000	2.6463987376
0.6100000000	2.9182954191
0.6150000000	3.2382961133
0.6200000000	3.6193038147
0.6250000000	4.0798294794
0.6300000000	4.6387540327
0.6350000000	5.3315509258
0.6400000000	6.1973613542
0.6450000000	7.3072070074
0.6500000000	8.7518155184
0.6550000000	10.6848689124
0.6600000000	13.3658541908
0.6650000000	17.2047509381
0.6700000000	23.0178122789
0.6750000000	32.3644345438
0.6800000000	48.8865180318
0.6850000000	82.0394960322
0.6900000000	164.4237645927
0.6950000000	461.5718183153
0.7000000000	2238.7088613043
0.7050000000	1088.4261393067
0.7100000000	279.5997416969
0.7150000000	118.9040596419
0.7200000000	64.9363878491
0.7250000000	40.7925094279
0.7300000000	27.9786058012
0.7350000000	20.4035910263
0.7400000000	15.5527769887
0.7450000000	12.2602018578
0.7500000000	9.9277801952
0.7550000000	8.2142013834
0.7600000000	6.9226262266
0.7650000000	5.9210186244
0.7700000000	5.1303446657
0.7750000000	4.4955759391
0.7800000000	3.9797372192
0.7850000000	3.5549929274
0.7900000000	3.1991529197
0.7950000000	2.9019592717
0.8000000000	2.6492627706
0.8050000000	2.4327650101
0.8100000000	2.2484598575
0.8150000000	2.0869228052
0.8200000000	1.9462867180
0.8250000000	1.8282694070
0.8300000000	1.7249651307
0.8350000000	1.6351572679
0.8400000000	1.5636417470
0.8450000000	1.5012413608
0.8500000000	1.4483339473
0.8550000000	1.4148995328
0.8600000000	1.3881212457
0.8650000000	1.3689529366
0.8700000000	1.3756558410
0.8750000000	1.3780160812
0.8800000000	1.3706150858
0.8850000000	1.3110219522
0.8900000000	1.0173389050
0.8950000000	-0.4545279432
0.9000000000	-8.3472457938
0.9050000000	-54.8466346531
0.9100000000	10.4438758521
0.9150000000	24.7401214621
0.9200000000	10.2700997226
0.9250000000	5.3427239766
0.9300000000	3.2612200431
0.9350000000	2.2667177451
0.9400000000	1.7302013090
0.9450000000	1.4327885130
0.9500000000	1.2215502774
0.9550000000	1.0801154198
0.9600000000	0.9925983440
0.9650000000	0.9203416296
0.9700000000	0.8687095387
0.9750000000	0.8334147162
0.9800000000	0.8117579157
0.9850000000	0.8074081866
0.9900000000	0.8145302567
0.9950000000	0.8448903100
1.0000000000	0.9181166485
1.0050000000	1.0896173910
1.0100000000	1.5394021354
1.0150000000	3.0815326095
1.0200000000	5.9052092645
1.0250000000	2.6923426264
1.0300000000	1.3857797003
1.0350000000	0.9963726395
1.0400000000	0.8432846485
1.0450000000	0.7715293596
1.0500000000	0.7356547862
1.0550000000	0.7169150687
1.0600000000	0.7086226224
1.0650000000	0.7072595380
1.0700000000	0.7108752924
1.0750000000	0.7187925084
1.0800000000	0.7296331349
1.0850000000	0.7443250120
1.0900000000	0.7655004203
1.0950000000	0.7901630023
1.1000000000	0.8185568761
1.1050000000	0.8507360535
1.1100000000	0.8872103567
1.1150000000	0.9284661886
1.1200000000	0.9750797912
1.1250000000	1.0275277520
1.1300000000	1.0871695533
1.1350000000	1.1549201526
1.1400000000	1.2321517082
1.1450000000	1.3206075664
1.1500000000	1.4216436471
1.1550000000	1.5394853940
1.1600000000	1.6768041525
1.1650000000	1.8371010726
1.1700000000	2.0211218273
1.1750000000	2.2078646426
1.1800000000	2.3849621765
1.1850000000	3.3141075585
1.1900000000	4.1123937155
1.1950000000	5.6368154860
1.2000000000	7.6763508154
1.2050000000	6.7345019920
1.2100000000	6.4459848908
1.2150000000	7.1767440894
1.2200000000	8.5837732847
1.2250000000	10.7443601359
1.2300000000	14.0296245090
1.2350000000	19.2265516001
1.2400000000	27.9807957214
1.2450000000	44.4650478104
1.2500000000	80.1654818491
1.2550000000	173.5350130500
1.2600000000	419.1638889782
1.2650000000	424.6001395640
1.2700000000	176.6268898795
1.2750000000	81.5320121793
1.2800000000	45.1543822835
1.2850000000	28.3960775157
1.2900000000	19.4631442781
1.2950000000	14.1852011984
1.3000000000	10.8233735897
1.3050000000	8.5598619264
1.3100000000	6.9637224287
1.3150000000	5.8104367267
1.3200000000	4.9555136405
1.3250000000	4.3121658205
1.3300000000	3.8276828701
1.3350000000	3.4697241314
1.3400000000	3.2215036261
1.3450000000	3.0784332716
1.3500000000	3.0614317516
1.3550000000	3.2181134274
1.3600000000	3.6696108002
1.3650000000	4.7241562230
1.3700000000	7.2423529548
1.3750000000	13.5076585001
1.3800000000	22.0647076602
1.3850000000	15.4137026975
1.3900000000	7.8545684280
1.3950000000	4.5572302558
1.4000000000	2.9843949328
1.4050000000	2.0178442678
1.4100000000	1.1432189833
1.4150000000	-0.1612796029
1.4200000000	-3.0815671223
1.4250000000	-10.8193744901
1.4300000000	-14.5476914329
1.4350000000	6.6653502788
1.4400000000	8.5259785427
1.4450000000	5.1117934885
1.4500000000	3.1808314186
1.4550000000	2.1927233594
1.4600000000	1.6192069597
1.4650000000	1.1659132588
1.4700000000	0.6810003806
1.4750000000	0.8003829376
1.4800000000	1.1735494676
1.4850000000	1.0656179028
1.4900000000	0.9435653974
1.4950000000	0.8646196761
1.5000000000	0.8127564869
1.5050000000	0.7784600572
1.5100000000	0.7551228372
1.5150000000	0.7423788497
1.5200000000	0.7329733567
1.5250000000	0.7295542515
1.5300000000	0.7324267840
1.5350000000	0.7429176998
1.5400000000	0.7643431858
1.5450000000	0.8040708989
1.5500000000	0.8786613154
1.5550000000	1.0211230555
1.5600000000	1.2349455682
1.5650000000	1.2692417989
1.5700000000	1.0764102388
1.5750000000	0.9411565875
1.5800000000	0.8828960092
1.5850000000	0.8646754979
1.5900000000	0.8672309007
1.5950000000	0.8821978295
1.6000000000	0.9059341430
1.6050000000	0.9371897133
1.6100000000	0.9750294754
1.6150000000	1.0193172707
1.6200000000	1.0707603546
1.6250000000	1.1299689144
1.6300000000	1.1979437274
1.6350000000	1.2759743815
1.6400000000	1.3657095628
1.6450000000	1.4692546505
1.6500000000	1.5892523160
1.6550000000	1.7290513931
1.6600000000	1.8929904950
1.6650000000	2.0866698281
1.6700000000	2.3155350667
1.6750000000	2.5929477972
1.6800000000	2.9307199963
1.6850000000	3.3474335092
1.6900000000	3.8694704937
1.6950000000	4.5355478560
1.7000000000	5.4039489777
1.7050000000	6.6019449300
1.7100000000	8.2733867877
1.7150000000	10.7029078035
1.7200000000	14.4056576289
1.7250000000	20.2800328276
1.7300000000	29.3073100942
1.7350000000	40.8912291973
1.7400000000	55.5330654450
1.7450000000	81.2275409011
1.7500000000	114.5826126870
1.7550000000	116.4259993117
1.7600000000	81.6807230737
1.7650000000	50.8797812127
1.7700000000	32.6160968579
1.7750000000	22.2305925124
1.7800000000	16.0931128471
1.7850000000	12.3176917205
1.7900000000	9.9761916222
1.7950000000	8.6361292679
1.8000000000	8.0947430840
1.8050000000	7.9228277953
1.8100000000	7.0488209131
1.8150000000	5.4620587779
1.8200000000	4.1944013900
1.8250000000	3.5408132726
1.8300000000	3.0827740733
1.8350000000	2.6756634227
1.8400000000	2.3436775408
1.8450000000	2.0802174239
1.8500000000	1.8678934224
1.8550000000	1.6924915885
1.8600000000	1.5311493915
1.8650000000	1.3947659807
1.8700000000	1.2569468473
1.8750000000	1.0582509502
1.8800000000	0.6051690107
1.8850000000	-0.3880497517
1.8900000000	-1.7240680054
1.8950000000	-1.9533779974
1.9000000000	0.2090722025
1.9050000000	2.2252679419
1.9100000000	2.4605103736
1.9150000000	2.0786430603
1.9200000000	1.7043720853
1.9250000000	1.4387698590
1.9300000000	1.2778891774
1.9350000000	1.1550242028
1.9400000000	1.0732269753
1.9450000000	1.0190082373
1.9500000000	0.9810956731
1.9550000000	0.9494895177
1.9600000000	0.9223195755
1.9650000000	0.9030725074
1.9700000000	0.8928192073
1.9750000000	0.8908729828
1.9800000000	0.8966859572
1.9850000000	0.9104326804
1.9900000000	0.9330172927
1.9950000000	0.9655671651
2.0000000000	1.0072371501
2.0050000000	1.0545146587
2.0100000000	1.0884511163
2.0150000000	1.1111255142
2.0200000000	1.1384724271
2.0250000000	1.1806495995
2.0300000000	1.2406488438
2.0350000000	1.3199717638
2.0400000000	1.4213441336
2.0450000000	1.5494920687
2.0500000000	1.7112001653
2.0550000000	1.9140038948
2.0600000000	2.1615519968
2.0650000000	2.4499469909
2.0700000000	2.7835173310
2.0750000000	3.1994754670
2.0800000000	3.7592601984
2.0850000000	4.5227715191
2.0900000000	5.5248435555
2.0950000000	6.6934889340
2.1000000000	7.7351124901
2.1050000000	8.2399392567
2.1100000000	8.0004751955
2.1150000000	7.4492373513
2.1200000000	7.0597709115
2.1250000000	7.0435825325
2.1300000000	7.4634520241
2.1350000000	8.3691682829
2.1400000000	9.8604242985
2.1450000000	12.1135592279
2.1500000000	15.3754805993
2.1550000000	19.8316387675
2.1600000000	25.1226894679
2.1650000000	29.5697520772
2.1700000000	30.6206285105
2.1750000000	27.4105342956
2.1800000000	22.1293623374
2.1850000000	17.0739668461
2.1900000000	13.1214176244
2.1950000000	10.2658627336
2.2000000000	8.2625216785
2.2050000000	6.8804679095
2.2100000000	5.9211037657
2.2150000000	5.1852371851
2.2200000000	4.5257248676
2.2250000000	3.8982942691
2.2300000000	3.3301383610
2.2350000000	2.8422843529
2.2400000000	2.4290951147
2.2450000000	2.0723327675
2.2500000000	1.7538366467
2.2550000000	1.4634433926
2.2600000000	1.1730380812
2.2650000000	0.9617448801
2.2700000000	0.8469311340
2.2750000000	0.8757463890
2.2800000000	1.0423388557
2.2850000000	1.2544946651
2.2900000000	1.4097655586
2.2950000000	1.4785338735
2.3000000000	1.4863177474
2.3050000000	1.4624634688
2.3100000000	1.4310893295
2.3150000000	1.4033194564
2.3200000000	1.3835501809
2.3250000000	1.3741781607
2.3300000000	1.3771306294
2.3350000000	1.3940049405
2.3400000000	1.4261717797
2.3450000000	1.4750238406
2.3500000000	1.5420398484
2.3550000000	1.6294382137
2.3600000000	1.7357851861
2.3650000000	1.8617463073
2.3700000000	2.0069745689
2.3750000000	2.1730488584
2.3800000000	2.3659633590
2.3850000000	2.5928288922
2.3900000000	2.8552161461
2.3950000000	3.1414421447
2.4000000000	3.4214747952
2.4050000000	3.6628104419
2.4100000000	3.7966011217
2.4150000000	3.8094392942
2.4200000000	3.7340274620
2.4250000000	3.6261261351
2.4300000000	3.5352263589
2.4350000000	3.4912080094
2.4400000000	3.5060021168
2.4450000000	3.5815480408
2.4500000000	3.7181004473
2.4550000000	3.9187060865
2.4600000000	4.1962111430
2.4650000000	4.5637815538
2.4700000000	5.0360784213
2.4750000000	5.6222558265
2.4800000000	6.3176849646
2.4850000000	7.0926960467
2.4900000000	7.8794263001
2.4950000000	8.5652650462
2.5000000000	9.0092945903
2.5050000000	9.0663964687
2.5100000000	8.6786267141
2.5150000000	7.9518336065
2.5200000000	7.0551420503
2.5250000000	6.1371315317
2.5300000000	5.2883707216
2.5350000000	4.5469135497
2.5400000000	3.9183616425
2.5450000000	3.3933906817
2.5500000000	2.9584856179
2.5550000000	2.6015038248
2.5600000000	2.3029966451
2.5650000000	2.0795870605
2.5700000000	1.9190451277
2.5750000000	1.8156473234
2.5800000000	1.7579231171
2.5850000000	1.7301846272
2.5900000000	1.7177100163
2.5950000000	1.7113322760
2.6000000000	1.7080956205
2.6050000000	1.7216649161
2.6100000000	1.7431925134
2.6150000000	1.7759794205
2.6200000000	1.8217792014
2.6250000000	1.8806997235
2.6300000000	1.9510778694
2.6350000000	2.0293839366
2.6400000000	2.1102253173
2.6450000000	2.1867631787
2.6500000000	2.2517545807
2.6550000000	2.2992604182
2.6600000000	2.3265215380
2.6650000000	2.3351576435
2.6700000000	2.3308258474
2.6750000000	2.3217962198
2.6800000000	2.3160828142
2.6850000000	2.3211744164
2.6900000000	2.3422866183
2.6950000000	2.3826255830
2.7000000000	2.4437291861
2.7050000000	2.5351486061
2.7100000000	2.6527657330
2.7150000000	2.7946814560
2.7200000000	2.9569689318
2.7250000000	3.1329606219
2.7300000000	3.3125904776
2.7350000000	3.4822871688
2.7400000000	3.6259056399
2.7450000000	3.7270548310
2.7500000000	3.7725220489
2.7550000000	3.7556519868
2.7600000000	3.6781442190
2.7650000000	3.5494437302
2.7700000000	3.3840020408
2.7750000000	3.1978317580
2.7800000000	3.0056130123
2.7850000000	2.8190926136
2.7900000000	2.6450799445
2.7950000000	2.4910265200
2.8000000000	2.3584749633
2.8050000000	2.2356966051
2.8100000000	2.1388838428
2.8150000000	2.0642294005
2.8200000000	2.0075967783
2.8250000000	1.9651902835
2.8300000000	1.9337836672
2.8350000000	1.9107007124
2.8400000000	1.8936798755
2.8450000000	1.8808010163
2.8500000000	1.8705220527
2.8550000000	1.8618191999
2.8600000000	1.8543451240
2.8650000000	1.8484803417
2.8700000000	1.8452360388
2.8750000000	1.8460036272
2.8800000000	1.8522459091
2.8850000000	1.8652198218
2.8900000000	1.8857818793
2.8950000000	1.9142722642
2.9000000000	1.9504562323
2.9050000000	2.0045640050
2.9100000000	2.0638898777
2.9150000000	2.1244745660
2.9200000000	2.1813144294
2.9250000000	2.2290344081
2.9300000000	2.2626439873
2.9350000000	2.2784121617
2.9400000000	2.2745893604
2.9450000000	2.2517418131
2.9500000000	2.2125400570
2.9550000000	2.1610785478
2.9600000000	2.1020129070
2.9650000000	2.0397530544
2.9700000000	1.9779256603
2.9750000000	1.9191392217
2.9800000000	1.8649996909
2.9850000000	1.8162839475
2.9900000000	1.7731729389
2.9950000000	1.7354776560
3.0000000000	1.7028241060
