# energy (eV)    P(omega), $W$ = 400 nm, $h$ = 300 nm, $s$ = 20 nm, $d/W = 5$, $E_{\rm e}$ = 200 keV
0.2000000000	0.0761021983
0.2050000000	0.0767944379
0.2100000000	0.0772817768
0.2150000000	0.0775560080
0.2200000000	0.0776056541
0.2250000000	0.0774151227
0.2300000000	0.0769638960
0.2350000000	0.0762252594
0.2400000000	0.0751648550
0.2450000000	0.0737384038
0.2500000000	0.0718892933
0.2550000000	0.0695446803
0.2600000000	0.0666106948
0.2650000000	0.0696846082
0.2700000000	0.0774929841
0.2750000000	0.0886665148
0.2800000000	0.1042343781
0.2850000000	0.1271854426
0.2900000000	0.1556233406
0.2950000000	0.1963913808
0.3000000000	0.2511951234
0.3050000000	0.3351960287
0.3100000000	0.4522063609
0.3150000000	0.6786159488
0.3200000000	1.0322228178
0.3250000000	1.2743149010
0.3300000000	1.6092058345
0.3350000000	2.0839609949
0.3400000000	2.8292298898
0.3450000000	4.1078708791
0.3500000000	6.6575892624
0.3550000000	12.5598627505
0.3600000000	30.8673375757
0.3650000000	0.1395397486
0.3700000000	14.3058319409
0.3750000000	18.8115788170
0.3800000000	8.7655229833
0.3850000000	4.9376843016
0.3900000000	3.1670781254
0.3950000000	2.2317671365
0.4000000000	1.6902231027
0.4050000000	1.3371746705
0.4100000000	1.1073323518
0.4150000000	0.9557384710
0.4200000000	0.8599276994
0.4250000000	0.7846804200
0.4300000000	0.6957659299
0.4350000000	0.6253953519
0.4400000000	0.5697400491
0.4450000000	0.5254874404
0.4500000000	0.4905501354
0.4550000000	0.4628457040
0.4600000000	0.4412338079
0.4650000000	0.4245083617
0.4700000000	0.4118709115
0.4750000000	0.4027628057
0.4800000000	0.3966965366
0.4850000000	0.3932446413
0.4900000000	0.3921543277
0.4950000000	0.3932311078
0.5000000000	0.3963087955
0.5050000000	0.4013133108
0.5100000000	0.4081839691
0.5150000000	0.4168846941
0.5200000000	0.4274335098
0.5250000000	0.4398451877
0.5300000000	0.4543019511
0.5350000000	0.4708847890
0.5400000000	0.4897395702
0.5450000000	0.5110575846
0.5500000000	0.5351094799
0.5550000000	0.5621913030
0.5600000000	0.5926633889
0.5650000000	0.6269891035
0.5700000000	0.6658080912
0.5750000000	0.7095944314
0.5800000000	0.7592351871
0.5850000000	0.8159423835
0.5900000000	0.8805335264
0.5950000000	0.9547289018
0.6000000000	1.0408012180
0.6050000000	1.1404537984
0.6100000000	1.2575913467
0.6150000000	1.3954518281
0.6200000000	1.5595936627
0.6250000000	1.7579913199
0.6300000000	1.9987772983
0.6350000000	2.2972334507
0.6400000000	2.6702195778
0.6450000000	3.1483303673
0.6500000000	3.7706472019
0.6550000000	4.6033700679
0.6600000000	5.7582764766
0.6650000000	7.4119645915
0.6700000000	9.9160399445
0.6750000000	13.9422099337
0.6800000000	21.0592147877
0.6850000000	35.3399265643
0.6900000000	70.8266827506
0.6950000000	198.8205736536
0.7000000000	964.2942163600
0.7050000000	468.8142905326
0.7100000000	120.4283413927
0.7150000000	51.2128264021
0.7200000000	27.9679370194
0.7250000000	17.5688391810
0.7300000000	12.0497798030
0.7350000000	8.7871927201
0.7400000000	6.6979526372
0.7450000000	5.2798605138
0.7500000000	4.2753116965
0.7550000000	3.5372996173
0.7600000000	2.9810439104
0.7650000000	2.5496759715
0.7700000000	2.2091555030
0.7750000000	1.9357815301
0.7800000000	1.7136287856
0.7850000000	1.5307089290
0.7900000000	1.3774646835
0.7950000000	1.2494776692
0.8000000000	1.1406542780
0.8050000000	1.0474205886
0.8100000000	0.9680507800
0.8150000000	0.8984865329
0.8200000000	0.8379234587
0.8250000000	0.7871003991
0.8300000000	0.7426133887
0.8350000000	0.7039383791
0.8400000000	0.6731393057
0.8450000000	0.6462654278
0.8500000000	0.6234791515
0.8550000000	0.6090756839
0.8600000000	0.5975380789
0.8650000000	0.5892767745
0.8700000000	0.5921508795
0.8750000000	0.5931566935
0.8800000000	0.5899629731
0.8850000000	0.5643110372
0.8900000000	0.4379288254
0.8950000000	-0.1954330294
0.9000000000	-3.5916828431
0.9050000000	-23.6000871450
0.9100000000	4.4939253978
0.9150000000	10.6452405157
0.9200000000	4.4190456461
0.9250000000	2.2989189714
0.9300000000	1.4033193866
0.9350000000	0.9754323211
0.9400000000	0.7446063072
0.9450000000	0.6166615399
0.9500000000	0.5258010716
0.9550000000	0.4649810961
0.9600000000	0.4273678613
0.9650000000	0.3963340482
0.9700000000	0.3741915372
0.9750000000	0.3591040117
0.9800000000	0.3499232869
0.9850000000	0.3482504759
0.9900000000	0.3516194103
0.9950000000	0.3651790422
1.0000000000	0.3975794317
1.0050000000	0.4732101715
1.0100000000	0.6714093456
1.0150000000	1.3506857495
1.0200000000	2.5942578553
1.0250000000	1.1791751137
1.0300000000	0.6037583979
1.0350000000	0.4322567663
1.0400000000	0.3648130869
1.0450000000	0.3331709572
1.0500000000	0.3173059446
1.0550000000	0.3089790411
1.0600000000	0.3052362488
1.0650000000	0.3045273737
1.0700000000	0.3059929728
1.0750000000	0.3093301070
1.0800000000	0.3139391075
1.0850000000	0.3202140953
1.0900000000	0.3292838458
1.0950000000	0.3398585223
1.1000000000	0.3520416412
1.1050000000	0.3658550590
1.1100000000	0.3815173363
1.1150000000	0.3992368343
1.1200000000	0.4192608710
1.1250000000	0.4417941095
1.1300000000	0.4674203005
1.1350000000	0.4965329391
1.1400000000	0.5297212772
1.1450000000	0.5677346286
1.1500000000	0.6111561022
1.1550000000	0.6618012754
1.1600000000	0.7208181258
1.1650000000	0.7897100203
1.1700000000	0.8687871266
1.1750000000	0.9489760731
1.1800000000	1.0248398061
1.1850000000	1.4244618145
1.1900000000	1.7677656423
1.1950000000	2.4233250559
1.2000000000	3.3003979966
1.2050000000	2.8950004878
1.2100000000	2.7705521526
1.2150000000	3.0844112056
1.2200000000	3.6889784127
1.2250000000	4.6174044647
1.2300000000	6.0291430634
1.2350000000	8.2623661489
1.2400000000	12.0242305067
1.2450000000	19.1077946685
1.2500000000	34.4487938323
1.2550000000	74.5707876830
1.2600000000	180.1194391082
1.2650000000	182.4534249560
1.2700000000	75.8968721654
1.2750000000	35.0340559990
1.2800000000	19.4024820358
1.2850000000	12.2014334093
1.2900000000	8.3629683431
1.2950000000	6.0950562982
1.3000000000	4.6504972434
1.3050000000	3.6778808336
1.3100000000	2.9920301637
1.3150000000	2.4964697434
1.3200000000	2.1291109107
1.3250000000	1.8526610273
1.3300000000	1.6444687270
1.3350000000	1.4906350643
1.3400000000	1.3839445059
1.3450000000	1.3224189238
1.3500000000	1.3150358667
1.3550000000	1.3822330772
1.3600000000	1.5760121766
1.3650000000	2.0287023959
1.3700000000	3.1097773886
1.3750000000	5.7995687748
1.3800000000	9.4732353550
1.3850000000	6.6177563475
1.3900000000	3.3724256249
1.3950000000	1.9567763230
1.4000000000	1.2814817042
1.4050000000	0.8664532296
1.4100000000	0.4908304852
1.4150000000	-0.0695033786
1.4200000000	-1.3239804115
1.4250000000	-4.6479905682
1.4300000000	-6.2495387452
1.4350000000	2.8631980020
1.4400000000	3.6624605326
1.4450000000	2.1958074149
1.4500000000	1.3663228471
1.4550000000	0.9418669617
1.4600000000	0.6955107088
1.4650000000	0.5008057142
1.4700000000	0.2925289993
1.4750000000	0.3437927875
1.4800000000	0.5040578290
1.4850000000	0.4576999181
1.4900000000	0.4052791010
1.4950000000	0.3713733534
1.5000000000	0.3491003639
1.5050000000	0.3343736072
1.5100000000	0.3243553375
1.5150000000	0.3188889918
1.5200000000	0.3148595972
1.5250000000	0.3134060024
1.5300000000	0.3146621237
1.5350000000	0.3192028511
1.5400000000	0.3284624629
1.5450000000	0.3456262489
1.5500000000	0.3778535783
1.5550000000	0.4394151217
1.5600000000	0.5318235906
1.5650000000	0.5466330064
1.5700000000	0.4632424024
1.5750000000	0.4047247915
1.5800000000	0.3794804296
1.5850000000	0.3715364819
1.5900000000	0.3725647642
1.5950000000	0.3789485414
1.6000000000	0.3891120749
1.6050000000	0.4025128611
1.6100000000	0.4187458262
1.6150000000	0.4377506231
1.6200000000	0.4598299746
1.6250000000	0.4852450269
1.6300000000	0.5144250057
1.6350000000	0.5479232745
1.6400000000	0.5864474379
1.6450000000	0.6309012518
1.6500000000	0.6824191415
1.6550000000	0.7424387483
1.6600000000	0.8128226877
1.6650000000	0.8959752018
1.6700000000	0.9942339794
1.6750000000	1.1133356874
1.6800000000	1.2583511123
1.6850000000	1.4372575217
1.6900000000	1.6613812102
1.6950000000	1.9473430568
1.7000000000	2.3201640284
1.7050000000	2.8344817126
1.7100000000	3.5520484911
1.7150000000	4.5950508384
1.7200000000	6.1846287817
1.7250000000	8.7064413317
1.7300000000	12.5817723950
1.7350000000	17.5549724986
1.7400000000	23.8416587314
1.7450000000	34.8737788091
1.7500000000	49.1945859848
1.7550000000	49.9858899640
1.7600000000	35.0682972830
1.7650000000	21.8442980825
1.7700000000	14.0030738713
1.7750000000	9.5442678476
1.7800000000	6.9093099161
1.7850000000	5.2884949911
1.7900000000	4.2833623349
1.7950000000	3.7082714451
1.8000000000	3.4762100397
1.8050000000	3.4027999379
1.8100000000	3.0275375870
1.8150000000	2.3458759489
1.8200000000	1.8012730594
1.8250000000	1.5204869775
1.8300000000	1.3237341426
1.8350000000	1.1488754003
1.8400000000	1.0062920948
1.8450000000	0.8931443932
1.8500000000	0.8019599623
1.8550000000	0.7266316893
1.8600000000	0.6573404137
1.8650000000	0.5987605479
1.8700000000	0.5395563611
1.8750000000	0.4542102439
1.8800000000	0.2596730706
1.8850000000	-0.1666850051
1.8900000000	-0.7401602103
1.8950000000	-0.8385562904
1.9000000000	0.0897425623
1.9050000000	0.9552479523
1.9100000000	1.0562419817
1.9150000000	0.8923306619
1.9200000000	0.7316824046
1.9250000000	0.6176861079
1.9300000000	0.5486499955
1.9350000000	0.4959444946
1.9400000000	0.4608844328
1.9450000000	0.4376776790
1.9500000000	0.4214570004
1.9550000000	0.4078820743
1.9600000000	0.3961587081
1.9650000000	0.3878331563
1.9700000000	0.3833865402
1.9750000000	0.3825230638
1.9800000000	0.3850027418
1.9850000000	0.3908973382
1.9900000000	0.4005936618
1.9950000000	0.4145757215
2.0000000000	0.4324799792
2.0050000000	0.4527923241
2.0100000000	0.4673650092
2.0150000000	0.4770871934
2.0200000000	0.4888101976
2.0250000000	0.5069028242
2.0300000000	0.5326509923
2.0350000000	0.5666987334
2.0400000000	0.6102152571
2.0450000000	0.6652290770
2.0500000000	0.7346534772
2.0550000000	0.8217261331
2.0600000000	0.9280177733
2.0650000000	1.0518580324
2.0700000000	1.1951078901
2.0750000000	1.3737473040
2.0800000000	1.6141587042
2.0850000000	1.9420655539
2.0900000000	2.3724279059
2.0950000000	2.8743251398
2.1000000000	3.3216515497
2.1050000000	3.5383980708
2.1100000000	3.4354347109
2.1150000000	3.1985262766
2.1200000000	3.0310591043
2.1250000000	3.0238639201
2.1300000000	3.2038846899
2.1350000000	3.5924735379
2.1400000000	4.2324016165
2.1450000000	5.1993415176
2.1500000000	6.5992628323
2.1550000000	8.5117674932
2.1600000000	10.7826246727
2.1650000000	12.6912430043
2.1700000000	13.1422215114
2.1750000000	11.7644125912
2.1800000000	9.4977191017
2.1850000000	7.3279341578
2.1900000000	5.6314813389
2.1950000000	4.4058419924
2.2000000000	3.5459509215
2.2050000000	2.9526931541
2.2100000000	2.5408481546
2.2150000000	2.2249606854
2.2200000000	1.9419122442
2.2250000000	1.6726940213
2.2300000000	1.4289386306
2.2350000000	1.2196414881
2.2400000000	1.0423737682
2.2450000000	0.8893091264
2.2500000000	0.7526578258
2.2550000000	0.6280636445
2.2600000000	0.5034673020
2.2650000000	0.4128280652
2.2700000000	0.3635947557
2.2750000000	0.3759932627
2.2800000000	0.4475093875
2.2850000000	0.5385760279
2.2900000000	0.6052359452
2.2950000000	0.6347827377
2.3000000000	0.6381658600
2.3050000000	0.6279762250
2.3100000000	0.6145518814
2.3150000000	0.6026561853
2.3200000000	0.5941724405
2.3250000000	0.5901356441
2.3300000000	0.5913837080
2.3350000000	0.5986107318
2.3400000000	0.6124094433
2.3450000000	0.6333793637
2.3500000000	0.6621555049
2.3550000000	0.6996897275
2.3600000000	0.7453657701
2.3650000000	0.7994676387
2.3700000000	0.8618447695
2.3750000000	0.9331742175
2.3800000000	1.0160308432
2.3850000000	1.1134699911
2.3900000000	1.2261673008
2.3950000000	1.3491044040
2.4000000000	1.4693803332
2.4050000000	1.5730302986
2.4100000000	1.6304782547
2.4150000000	1.6359640976
2.4200000000	1.6035338890
2.4250000000	1.5571399960
2.4300000000	1.5180405231
2.4350000000	1.4990675498
2.4400000000	1.5053413529
2.4450000000	1.5376887014
2.4500000000	1.5962123228
2.4550000000	1.6822159406
2.4600000000	1.8012139745
2.4650000000	1.9588594620
2.4700000000	2.1614476652
2.4750000000	2.4129106980
2.4800000000	2.7112648736
2.4850000000	3.0437802315
2.4900000000	3.3813366014
2.4950000000	3.6756102494
2.5000000000	3.8661309887
2.5050000000	3.8906252295
2.5100000000	3.7242272723
2.5150000000	3.4123556448
2.5200000000	3.0275816303
2.5250000000	2.6336612240
2.5300000000	2.2694576763
2.5350000000	1.9513000751
2.5400000000	1.6815925000
2.5450000000	1.4563333876
2.5500000000	1.2697239480
2.5550000000	1.1165539998
2.5600000000	0.9884782665
2.5650000000	0.8926297670
2.5700000000	0.8237607743
2.5750000000	0.7794151658
2.5800000000	0.7546704110
2.5850000000	0.7427940831
2.5900000000	0.7374678963
2.5950000000	0.7347574972
2.6000000000	0.7333943295
2.6050000000	0.7392460640
2.6100000000	0.7485155271
2.6150000000	0.7626215541
2.6200000000	0.7823179634
2.6250000000	0.8076511856
2.6300000000	0.8379061616
2.6350000000	0.8715652678
2.6400000000	0.9063096380
2.6450000000	0.9391987879
2.6500000000	0.9671185908
2.6550000000	0.9875158069
2.6600000000	0.9992044318
2.6650000000	1.0028810972
2.6700000000	1.0009776426
2.6750000000	0.9970488141
2.6800000000	0.9945390973
2.6850000000	0.9966666112
2.6900000000	1.0056724471
2.6950000000	1.0229338396
2.7000000000	1.0491110983
2.7050000000	1.0882981480
2.7100000000	1.1387326050
2.7150000000	1.1995989559
2.7200000000	1.2692115236
2.7250000000	1.3447089026
2.7300000000	1.4217713104
2.7350000000	1.4945747940
2.7400000000	1.5561919328
2.7450000000	1.5995889460
2.7500000000	1.6190965662
2.7550000000	1.6118584360
2.7600000000	1.5786043229
2.7650000000	1.5233865405
2.7700000000	1.4524060946
2.7750000000	1.3725332389
2.7800000000	1.2900678628
2.7850000000	1.2100495822
2.7900000000	1.1354001393
2.7950000000	1.0693167361
2.8000000000	1.0124607581
2.8050000000	0.9598021464
2.8100000000	0.9182850873
2.8150000000	0.8862748856
2.8200000000	0.8619957168
2.8250000000	0.8438180128
2.8300000000	0.8303567751
2.8350000000	0.8204631929
2.8400000000	0.8131665446
2.8450000000	0.8076426688
2.8500000000	0.8032297786
2.8550000000	0.7994885412
2.8600000000	0.7962702602
2.8650000000	0.7937388312
2.8700000000	0.7923291358
2.8750000000	0.7926392566
2.8800000000	0.7952980821
2.8850000000	0.8008458198
2.8900000000	0.8096508654
2.8950000000	0.8218596039
2.9000000000	0.8373717806
2.9050000000	0.8605757054
2.9100000000	0.8860221359
2.9150000000	0.9120120226
2.9200000000	0.9363981306
2.9250000000	0.9568738011
2.9300000000	0.9712973606
2.9350000000	0.9780674823
2.9400000000	0.9764330733
2.9450000000	0.9666366866
2.9500000000	0.9498238172
2.9550000000	0.9277509277
2.9600000000	0.9024152512
2.9650000000	0.8757086147
2.9700000000	0.8491868340
2.9750000000	0.8239688304
2.9800000000	0.8007434748
2.9850000000	0.7798439820
2.9900000000	0.7613478244
2.9950000000	0.7451738937
3.0000000000	0.7311617652
