# energy (eV)    P(omega), $W$ = 300 nm, $h$ = 300 nm, $s$ = 20 nm, $d/W = 5$, $E_{\rm e}$ = 200 keV
0.2000000000	0.1233736906
0.2050000000	0.1252225094
0.2100000000	0.1269512427
0.2150000000	0.1285638030
0.2200000000	0.1300635238
0.2250000000	0.1314532388
0.2300000000	0.1327351097
0.2350000000	0.1339105699
0.2400000000	0.1349801565
0.2450000000	0.1359434579
0.2500000000	0.1367988836
0.2550000000	0.1375434014
0.2600000000	0.1381724649
0.2650000000	0.1386794696
0.2700000000	0.1390554732
0.2750000000	0.1392886241
0.2800000000	0.1393635394
0.2850000000	0.1392604430
0.2900000000	0.1389540023
0.2950000000	0.1384120769
0.3000000000	0.1375936087
0.3050000000	0.1364462795
0.3100000000	0.1349031081
0.3150000000	0.1425708321
0.3200000000	0.1516772339
0.3250000000	0.1631949401
0.3300000000	0.1786195388
0.3350000000	0.1978192378
0.3400000000	0.2229615310
0.3450000000	0.2534567952
0.3500000000	0.2933494304
0.3550000000	0.3461338906
0.3600000000	0.4150531921
0.3650000000	0.5111326385
0.3700000000	0.6378179368
0.3750000000	0.8140389786
0.3800000000	1.0689007377
0.3850000000	1.4660187643
0.3900000000	2.0933692988
0.3950000000	3.1589862614
0.4000000000	5.1904109878
0.4050000000	9.7447788611
0.4100000000	22.1718413810
0.4150000000	71.1543963999
0.4200000000	45.3358625389
0.4250000000	-85.3336254639
0.4300000000	23.7288152461
0.4350000000	14.7866755144
0.4400000000	9.0389984542
0.4450000000	5.9451085831
0.4500000000	4.1640437854
0.4550000000	3.0679942859
0.4600000000	2.3541473650
0.4650000000	1.8677038424
0.4700000000	1.5238946297
0.4750000000	1.2752442145
0.4800000000	1.0908901610
0.4850000000	0.9521678687
0.4900000000	0.8462766125
0.4950000000	0.7646232751
0.5000000000	0.7013341777
0.5050000000	0.6520998711
0.5100000000	0.6141453395
0.5150000000	0.5854275831
0.5200000000	0.5638113781
0.5250000000	0.5483344738
0.5300000000	0.5379642048
0.5350000000	0.5319453122
0.5400000000	0.5297209823
0.5450000000	0.5308260581
0.5500000000	0.5351132844
0.5550000000	0.5423204286
0.5600000000	0.5523134546
0.5650000000	0.5650321284
0.5700000000	0.5804215621
0.5750000000	0.5985892630
0.5800000000	0.6197100019
0.5850000000	0.6438978042
0.5900000000	0.6713736832
0.5950000000	0.7024157098
0.6000000000	0.7373781014
0.6050000000	0.7767743054
0.6100000000	0.8210941584
0.6150000000	0.8710069149
0.6200000000	0.9274053212
0.6250000000	0.9911453140
0.6300000000	1.0634920463
0.6350000000	1.1460223514
0.6400000000	1.2403769198
0.6450000000	1.3489240212
0.6500000000	1.4747774888
0.6550000000	1.6211787388
0.6600000000	1.7931096633
0.6650000000	1.9969626377
0.6700000000	2.2402527643
0.6750000000	2.5344401165
0.6800000000	2.8949359054
0.6850000000	3.3419288769
0.6900000000	3.9066876445
0.6950000000	4.6329439855
0.7000000000	5.5901656243
0.7050000000	6.8845508542
0.7100000000	8.6960395479
0.7150000000	11.3449453604
0.7200000000	15.4275942527
0.7250000000	22.2045299217
0.7300000000	34.6436862849
0.7350000000	61.2599192386
0.7400000000	134.2558020629
0.7450000000	445.3925993535
0.7500000000	1379.8330802601
0.7550000000	347.1280538463
0.7600000000	114.9611639256
0.7650000000	55.0830215037
0.7700000000	32.0344202789
0.7750000000	20.9080284683
0.7800000000	14.7139069223
0.7850000000	10.9280600132
0.7900000000	8.4428436831
0.7950000000	6.7288429707
0.8000000000	5.4967084500
0.8050000000	4.5790416297
0.8100000000	3.8792684779
0.8150000000	3.3245461119
0.8200000000	2.8867432112
0.8250000000	2.5342289871
0.8300000000	2.2454642197
0.8350000000	2.0080459837
0.8400000000	1.8090200646
0.8450000000	1.6420114135
0.8500000000	1.5008409383
0.8550000000	1.3790165860
0.8600000000	1.2750192126
0.8650000000	1.1861880269
0.8700000000	1.1076982839
0.8750000000	1.0409318124
0.8800000000	0.9842793773
0.8850000000	0.9334873233
0.8900000000	0.8927443474
0.8950000000	0.8556807592
0.9000000000	0.8263075490
0.9050000000	0.8060808048
0.9100000000	0.7875450960
0.9150000000	0.7763052635
0.9200000000	0.7749610043
0.9250000000	0.7739661639
0.9300000000	0.7626205452
0.9350000000	0.7285562682
0.9400000000	0.5387497846
0.9450000000	-0.3240064826
0.9500000000	-4.8771820740
0.9550000000	-27.9717876695
0.9600000000	6.6003676635
0.9650000000	11.5945986937
0.9700000000	5.1426595099
0.9750000000	2.6997734500
0.9800000000	1.6919816058
0.9850000000	1.2206339125
0.9900000000	0.9490526212
0.9950000000	0.7843719644
1.0000000000	0.6792229102
1.0050000000	0.6125614213
1.0100000000	0.5608818438
1.0150000000	0.5231265855
1.0200000000	0.4976966732
1.0250000000	0.4763515708
1.0300000000	0.4601358970
1.0350000000	0.4478686337
1.0400000000	0.4400695946
1.0450000000	0.4335841384
1.0500000000	0.4293055393
1.0550000000	0.4269804809
1.0600000000	0.4271815420
1.0650000000	0.4283150597
1.0700000000	0.4310307299
1.0750000000	0.4353398579
1.0800000000	0.4416687327
1.0850000000	0.4497002467
1.0900000000	0.4615482893
1.0950000000	0.4756186329
1.1000000000	0.4923835173
1.1050000000	0.5117051864
1.1100000000	0.5341941459
1.1150000000	0.5603560015
1.1200000000	0.5907903635
1.1250000000	0.6262800983
1.1300000000	0.6678748909
1.1350000000	0.7168811370
1.1400000000	0.7747867396
1.1450000000	0.8443073034
1.1500000000	0.9283962922
1.1550000000	1.0313232269
1.1600000000	1.1591116324
1.1650000000	1.3195776023
1.1700000000	1.5273619860
1.1750000000	1.8019016942
1.1800000000	2.1753285582
1.1850000000	2.7004595269
1.1900000000	3.4768371538
1.1950000000	4.6955882233
1.2000000000	6.7627587699
1.2050000000	10.6691629904
1.2100000000	19.2624845995
1.2150000000	42.4902591324
1.2200000000	104.2799110081
1.2250000000	93.6902885024
1.2300000000	37.3734658126
1.2350000000	17.5294459751
1.2400000000	10.0130117924
1.2450000000	6.5618742911
1.2500000000	4.7412994921
1.2550000000	3.6906583060
1.2600000000	3.0513965830
1.2650000000	2.6510464562
1.2700000000	2.4124211044
1.2750000000	2.2854752674
1.2800000000	2.2463951301
1.2850000000	2.2847912414
1.2900000000	2.3998483983
1.2950000000	2.5975558314
1.3000000000	2.9023088131
1.3050000000	3.3453944465
1.3100000000	3.9851285743
1.3150000000	4.9224076620
1.3200000000	6.3386111255
1.3250000000	8.5794486101
1.3300000000	12.4020453656
1.3350000000	19.5618092543
1.3400000000	34.8643069765
1.3450000000	72.8531057068
1.3500000000	154.6131795835
1.3550000000	144.1998942216
1.3600000000	66.4977075382
1.3650000000	32.6727922532
1.3700000000	18.7374650050
1.3750000000	12.0498805208
1.3800000000	8.4034435272
1.3850000000	6.2068701433
1.3900000000	4.7911558316
1.3950000000	3.8252611014
1.4000000000	3.1382085770
1.4050000000	2.6335954588
1.4100000000	2.2530391349
1.4150000000	1.9616687205
1.4200000000	1.7348941391
1.4250000000	1.5662187698
1.4300000000	1.4590931453
1.4350000000	1.3885896408
1.4400000000	0.9552742234
1.4450000000	-0.2455044784
1.4500000000	-2.3343206300
1.4550000000	-0.7794951488
1.4600000000	2.3760350107
1.4650000000	1.3759763120
1.4700000000	-0.8800029722
1.4750000000	-4.4495737464
1.4800000000	-1.9632064950
1.4850000000	3.3628303256
1.4900000000	2.7223153372
1.4950000000	1.7661876886
1.5000000000	1.2434578559
1.5050000000	0.9604802858
1.5100000000	0.7984954590
1.5150000000	0.6991791170
1.5200000000	0.6341275344
1.5250000000	0.5928361966
1.5300000000	0.5602963758
1.5350000000	0.5366560831
1.5400000000	0.5195279470
1.5450000000	0.5074881506
1.5500000000	0.4995517899
1.5550000000	0.4953079339
1.5600000000	0.4956027822
1.5650000000	0.4987224832
1.5700000000	0.5064900334
1.5750000000	0.5203344115
1.5800000000	0.5431029525
1.5850000000	0.5804031924
1.5900000000	0.6440988439
1.5950000000	0.7604180647
1.6000000000	0.9846391622
1.6050000000	1.3526507380
1.6100000000	1.5243274666
1.6150000000	1.2142877959
1.6200000000	0.9267946668
1.6250000000	0.7807048095
1.6300000000	0.7137169239
1.6350000000	0.6861821967
1.6400000000	0.6801415308
1.6450000000	0.6873811422
1.6500000000	0.7039035209
1.6550000000	0.7280696016
1.6600000000	0.7590448814
1.6650000000	0.7967198712
1.6700000000	0.8414093992
1.6750000000	0.8937590001
1.6800000000	0.9547113458
1.6850000000	1.0255243863
1.6900000000	1.1076592170
1.6950000000	1.2019628004
1.7000000000	1.3105121500
1.7050000000	1.4360942557
1.7100000000	1.5883045954
1.7150000000	1.8442193299
1.7200000000	2.2307823803
1.7250000000	2.6485347173
1.7300000000	3.1452076301
1.7350000000	3.6826068085
1.7400000000	4.1788023962
1.7450000000	4.8041823008
1.7500000000	5.7628214086
1.7550000000	7.2006440676
1.7600000000	9.3578277715
1.7650000000	12.6858119812
1.7700000000	18.0468291018
1.7750000000	27.0763727737
1.7800000000	42.4552933359
1.7850000000	65.1179496983
1.7900000000	80.8708864452
1.7950000000	68.8085675202
1.8000000000	45.7501409786
1.8050000000	28.8588278396
1.8100000000	19.0009901859
1.8150000000	13.2244828609
1.8200000000	9.6698032000
1.8250000000	7.3648814008
1.8300000000	5.7990645356
1.8350000000	4.6926541815
1.8400000000	3.8851122711
1.8450000000	3.2789318591
1.8500000000	2.8125977313
1.8550000000	2.4475410662
1.8600000000	2.1566346706
1.8650000000	1.9212324846
1.8700000000	1.7277486312
1.8750000000	1.5657631742
1.8800000000	1.4264080721
1.8850000000	1.3010387363
1.8900000000	1.1789579194
1.8950000000	1.0439608749
1.9000000000	0.8685890714
1.9050000000	0.5632270478
1.9100000000	0.1247391153
1.9150000000	-0.2971584466
1.9200000000	0.2143248989
1.9250000000	2.2576002810
1.9300000000	3.8898281442
1.9350000000	3.9261000861
1.9400000000	3.1515128708
1.9450000000	2.3883626413
1.9500000000	1.8474760022
1.9550000000	1.4897113632
1.9600000000	1.2513056815
1.9650000000	1.0924455569
1.9700000000	0.9755090379
1.9750000000	0.8897616818
1.9800000000	0.8246796773
1.9850000000	0.7727159979
1.9900000000	0.7282524114
1.9950000000	0.6865262735
2.0000000000	0.6466819765
2.0050000000	0.6229867242
2.0100000000	0.6389119892
2.0150000000	0.6804438281
2.0200000000	0.7084985207
2.0250000000	0.7206823652
2.0300000000	0.7299640581
2.0350000000	0.7423442484
2.0400000000	0.7607393047
2.0450000000	0.7863852742
2.0500000000	0.8205377810
2.0550000000	0.8644453617
2.0600000000	0.9181796518
2.0650000000	0.9774571628
2.0700000000	1.0316146590
2.0750000000	1.0723258209
2.0800000000	1.1057844274
2.0850000000	1.1454484101
2.0900000000	1.1998793985
2.0950000000	1.2720471215
2.1000000000	1.3642294633
2.1050000000	1.4750398054
2.1100000000	1.6121984548
2.1150000000	1.7812398329
2.1200000000	1.9901224232
2.1250000000	2.2501385744
2.1300000000	2.5772877962
2.1350000000	2.9944620085
2.1400000000	3.5347230586
2.1450000000	4.2463970557
2.1500000000	5.1998591444
2.1550000000	6.4946469842
2.1600000000	8.2581135527
2.1650000000	10.5981863646
2.1700000000	13.4737295202
2.1750000000	16.3411050706
2.1800000000	18.1418479940
2.1850000000	18.3105694342
2.1900000000	17.6267885639
2.1950000000	17.1416553452
2.2000000000	16.9721658029
2.2050000000	16.1748007937
2.2100000000	14.3458119243
2.2150000000	12.0445389019
2.2200000000	9.9514158603
2.2250000000	8.2553065066
2.2300000000	6.8627354445
2.2350000000	5.6971343983
2.2400000000	4.7400160197
2.2450000000	3.9842340879
2.2500000000	3.3985475851
2.2550000000	2.9452740528
2.2600000000	2.5895244228
2.2650000000	2.2998461732
2.2700000000	2.0464628729
2.2750000000	1.8042059833
2.2800000000	1.5672224612
2.2850000000	1.3644434372
2.2900000000	1.2451581012
2.2950000000	1.2314677230
2.3000000000	1.2853377482
2.3050000000	1.3421171439
2.3100000000	1.3621724289
2.3150000000	1.3467482063
2.3200000000	1.3129796165
2.3250000000	1.2784782629
2.3300000000	1.2525940040
2.3350000000	1.2380558931
2.3400000000	1.2328097494
2.3450000000	1.2308799172
2.3500000000	1.2245695403
2.3550000000	1.2089616295
2.3600000000	1.1854165107
2.3650000000	1.1599318252
2.3700000000	1.1386036423
2.3750000000	1.1248204057
2.3800000000	1.1191265028
2.3850000000	1.1201614009
2.3900000000	1.1261871404
2.3950000000	1.1355378611
2.4000000000	1.1490430172
2.4050000000	1.1702252024
2.4100000000	1.2005805792
2.4150000000	1.2421759664
2.4200000000	1.2964368555
2.4250000000	1.3648918276
2.4300000000	1.4494169957
2.4350000000	1.5524176511
2.4400000000	1.6769892002
2.4450000000	1.8271006664
2.4500000000	2.0077823873
2.4550000000	2.2253815003
2.4600000000	2.4877021264
2.4650000000	2.8041528207
2.4700000000	3.1855596895
2.4750000000	3.6428389821
2.4800000000	4.1875099485
2.4850000000	4.8243563419
2.4900000000	5.5474100665
2.4950000000	6.3302942822
2.5000000000	7.1160669055
2.5050000000	7.8443423305
2.5100000000	8.3218680565
2.5150000000	8.4402400409
2.5200000000	8.1813358340
2.5250000000	7.6254508583
2.5300000000	6.9001752263
2.5350000000	6.1212613048
2.5400000000	5.3651011449
2.5450000000	4.6715592692
2.5500000000	4.0566888627
2.5550000000	3.5232471880
2.5600000000	3.0636250777
2.5650000000	2.6761492413
2.5700000000	2.3525925809
2.5750000000	2.0879842158
2.5800000000	1.8785241613
2.5850000000	1.7197282083
2.5900000000	1.6037555453
2.5950000000	1.5193524498
2.6000000000	1.4547551323
2.6050000000	1.4086615158
2.6100000000	1.3677950786
2.6150000000	1.3316077372
2.6200000000	1.3009490919
2.6250000000	1.2766902439
2.6300000000	1.2593898845
2.6350000000	1.2493159259
2.6400000000	1.2466093679
2.6450000000	1.2514133126
2.6500000000	1.2640218269
2.6550000000	1.2845005422
2.6600000000	1.3132989112
2.6650000000	1.3508445027
2.6700000000	1.3976409013
2.6750000000	1.4542770305
2.6800000000	1.5213825534
2.6850000000	1.5996017584
2.6900000000	1.6895046310
2.6950000000	1.7915274350
2.7000000000	1.9058303832
2.7050000000	2.0457876475
2.7100000000	2.2007581211
2.7150000000	2.3688505176
2.7200000000	2.5468868278
2.7250000000	2.7303479469
2.7300000000	2.9133843245
2.7350000000	3.0888364254
2.7400000000	3.2481875832
2.7450000000	3.3829394185
2.7500000000	3.4804719926
2.7550000000	3.5324317210
2.7600000000	3.5325100114
2.7650000000	3.4793173104
2.7700000000	3.3770903114
2.7750000000	3.2349771445
2.7800000000	3.0650518660
2.7850000000	2.8801567377
2.7900000000	2.6917970122
2.7950000000	2.5091947024
2.8000000000	2.3388751217
2.8050000000	2.1658736267
2.8100000000	2.0169483146
2.8150000000	1.8917659972
2.8200000000	1.7883712438
2.8250000000	1.7041642499
2.8300000000	1.6365227592
2.8350000000	1.5832147294
2.8400000000	1.5418657280
2.8450000000	1.5126203829
2.8500000000	1.4937342767
2.8550000000	1.4845478667
2.8600000000	1.4845748390
2.8650000000	1.4934023356
2.8700000000	1.5106280663
2.8750000000	1.5357924687
2.8800000000	1.5683341493
2.8850000000	1.6075418273
2.8900000000	1.6525667180
2.8950000000	1.7024025540
2.9000000000	1.7559428803
2.9050000000	1.8236457509
2.9100000000	1.8913089084
2.9150000000	1.9565164960
2.9200000000	2.0164950972
2.9250000000	2.0680441440
2.9300000000	2.1081824499
2.9350000000	2.1327284000
2.9400000000	2.1396896152
2.9450000000	2.1280925002
2.9500000000	2.0987322292
2.9550000000	2.0541059709
2.9600000000	1.9979275956
2.9650000000	1.9344728653
2.9700000000	1.8679242902
2.9750000000	1.8018880460
2.9800000000	1.7391527801
2.9850000000	1.6816457318
2.9900000000	1.6305545676
2.9950000000	1.5864550252
3.0000000000	1.5495141177
