# energy (eV)    P(omega), $W$ = 300 nm, $h$ = 300 nm, $s$ = 20 nm, $d/W = 5$, $E_{\rm e}$ = 200 keV
0.2000000000	0.1555558560
0.2050000000	0.1577893188
0.2100000000	0.1598893036
0.2150000000	0.1618599721
0.2200000000	0.1637049100
0.2250000000	0.1654270788
0.2300000000	0.1670286473
0.2350000000	0.1685109653
0.2400000000	0.1698744054
0.2450000000	0.1711180260
0.2500000000	0.1722397607
0.2550000000	0.1732356587
0.2600000000	0.1740999485
0.2650000000	0.1748246009
0.2700000000	0.1753986065
0.2750000000	0.1758075620
0.2800000000	0.1760327997
0.2850000000	0.1760504554
0.2900000000	0.1758298731
0.2950000000	0.1753323921
0.3000000000	0.1745082420
0.3050000000	0.1732945368
0.3100000000	0.1716105425
0.3150000000	0.1808430799
0.3200000000	0.1918095860
0.3250000000	0.2056720770
0.3300000000	0.2242216782
0.3350000000	0.2473189634
0.3400000000	0.2775684344
0.3450000000	0.3142919209
0.3500000000	0.3623535474
0.3550000000	0.4259810766
0.3600000000	0.5091241308
0.3650000000	0.6250914885
0.3700000000	0.7781592244
0.3750000000	0.9912512951
0.3800000000	1.2996741251
0.3850000000	1.7805635493
0.3900000000	2.5408638833
0.3950000000	3.8333136185
0.4000000000	6.2989095523
0.4050000000	11.8305651381
0.4100000000	26.9356861735
0.4150000000	86.5186888793
0.4200000000	55.0701812198
0.4250000000	-103.9665151757
0.4300000000	28.9743727997
0.4350000000	18.0797477724
0.4400000000	11.0695541063
0.4450000000	7.2932911007
0.4500000000	5.1179051473
0.4550000000	3.7783440536
0.4600000000	2.9053770313
0.4650000000	2.3101810059
0.4700000000	1.8893068904
0.4750000000	1.5848191524
0.4800000000	1.3590168893
0.4850000000	1.1891047435
0.4900000000	1.0594373821
0.4950000000	0.9595073307
0.5000000000	0.8821345605
0.5050000000	0.8220446534
0.5100000000	0.7758484464
0.5150000000	0.7410521847
0.5200000000	0.7150332226
0.5250000000	0.6966239838
0.5300000000	0.6845604269
0.5350000000	0.6779208513
0.5400000000	0.6760268987
0.5450000000	0.6783122214
0.5500000000	0.6846085541
0.5550000000	0.6946000990
0.5600000000	0.7081333120
0.5650000000	0.7251435275
0.5700000000	0.7455761803
0.5750000000	0.7695776157
0.5800000000	0.7973856560
0.5850000000	0.8291566636
0.5900000000	0.8651878456
0.5950000000	0.9058476341
0.6000000000	0.9516047240
0.6050000000	1.0031307152
0.6100000000	1.0610727177
0.6150000000	1.1263088220
0.6200000000	1.2000110817
0.6250000000	1.2833016391
0.6300000000	1.3778391164
0.6350000000	1.4856907797
0.6400000000	1.6090086498
0.6450000000	1.7508973537
0.6500000000	1.9154402832
0.6550000000	2.1068891464
0.6600000000	2.3317758633
0.6650000000	2.5984888767
0.6700000000	2.9168893927
0.6750000000	3.3020094683
0.6800000000	3.7740882132
0.6850000000	4.3596195568
0.6900000000	5.0996714841
0.6950000000	6.0516627940
0.7000000000	7.3068568368
0.7050000000	9.0047685072
0.7100000000	11.3818644474
0.7150000000	14.8591358155
0.7200000000	20.2205152627
0.7250000000	29.1234561165
0.7300000000	45.4712774861
0.7350000000	80.4647337905
0.7400000000	176.4747637093
0.7450000000	585.8926670603
0.7500000000	1816.4839510341
0.7550000000	457.3299302889
0.7600000000	151.5760987540
0.7650000000	72.6844410154
0.7700000000	42.3048182906
0.7750000000	27.6337431498
0.7800000000	19.4631403903
0.7850000000	14.4674118072
0.7900000000	11.1867697641
0.7950000000	8.9233454973
0.8000000000	7.2956790789
0.8050000000	6.0830074501
0.8100000000	5.1579522839
0.8150000000	4.4243489814
0.8200000000	3.8451823269
0.8250000000	3.3787091579
0.8300000000	2.9964628231
0.8350000000	2.6821148836
0.8400000000	2.4185356166
0.8450000000	2.1973090820
0.8500000000	2.0102926669
0.8550000000	1.8488589428
0.8600000000	1.7110455150
0.8650000000	1.5933578796
0.8700000000	1.4893388637
0.8750000000	1.4009032567
0.8800000000	1.3259331884
0.8850000000	1.2587111208
0.8900000000	1.2049342506
0.8950000000	1.1560079348
0.9000000000	1.1173923083
0.9050000000	1.0911006451
0.9100000000	1.0670218317
0.9150000000	1.0527870431
0.9200000000	1.0519667873
0.9250000000	1.0515459673
0.9300000000	1.0368611240
0.9350000000	0.9908283723
0.9400000000	0.7308777937
0.9450000000	-0.4537660623
0.9500000000	-6.7120305895
0.9550000000	-38.4782868518
0.9600000000	9.0886715990
0.9650000000	15.9746526119
0.9700000000	7.0902397197
0.9750000000	3.7239104232
0.9800000000	2.3343857465
0.9850000000	1.6843170527
0.9900000000	1.3095668309
0.9950000000	1.0822496932
1.0000000000	0.9370796657
1.0050000000	0.8450861049
1.0100000000	0.7736866166
1.0150000000	0.7214937765
1.0200000000	0.6863553924
1.0250000000	0.6567833602
1.0300000000	0.6342672404
1.0350000000	0.6171718114
1.0400000000	0.6062515955
1.0450000000	0.5970682244
1.0500000000	0.5908860229
1.0550000000	0.5873511702
1.0600000000	0.5872803244
1.0650000000	0.5884011360
1.0700000000	0.5916309403
1.0750000000	0.5969804664
1.0800000000	0.6050509622
1.0850000000	0.6153111579
1.0900000000	0.6306073323
1.0950000000	0.6487982630
1.1000000000	0.6705231207
1.1050000000	0.6955008069
1.1100000000	0.7245477802
1.1150000000	0.7583075955
1.1200000000	0.7975705236
1.1250000000	0.8432357088
1.1300000000	0.8966657827
1.1350000000	0.9595052512
1.1400000000	1.0336583060
1.1450000000	1.1224590240
1.1500000000	1.2296507149
1.1550000000	1.3605895893
1.1600000000	1.5228310386
1.1650000000	1.7262082618
1.1700000000	1.9889908746
1.1750000000	2.3355638797
1.1800000000	2.8061812254
1.1850000000	3.4669701310
1.1900000000	4.4427482051
1.1950000000	5.9727385475
1.2000000000	8.5657094176
1.2050000000	13.4631846557
1.2100000000	24.2340997911
1.2150000000	53.3516701543
1.2200000000	130.8490413698
1.2250000000	117.6788942057
1.2300000000	47.0839879210
1.2350000000	22.2021109602
1.2400000000	12.7823591989
1.2450000000	8.4656311702
1.2500000000	6.1979391938
1.2550000000	4.8999770585
1.2600000000	4.1224121162
1.2650000000	3.6494397400
1.2700000000	3.3857297794
1.2750000000	3.2697850790
1.2800000000	3.2738299662
1.2850000000	3.3877266463
1.2900000000	3.6146230205
1.2950000000	3.9674624180
1.3000000000	4.4867531313
1.3050000000	5.2252396534
1.3100000000	6.2782758160
1.3150000000	7.8101363503
1.3200000000	10.1149155586
1.3250000000	13.7542517278
1.3300000000	19.9539374060
1.3350000000	31.5601245459
1.3400000000	56.3640987643
1.3450000000	117.9542078117
1.3500000000	250.5802884791
1.3550000000	233.8563244853
1.3600000000	107.8840621129
1.3650000000	53.0153029491
1.3700000000	30.4035752669
1.3750000000	19.5503509680
1.3800000000	13.6323580378
1.3850000000	10.0680208647
1.3900000000	7.7719880576
1.3950000000	6.2065064876
1.4000000000	5.0948605465
1.4050000000	4.2808847989
1.4100000000	3.6709470384
1.4150000000	3.2108025038
1.4200000000	2.8649487498
1.4250000000	2.6336843263
1.4300000000	2.5500216340
1.4350000000	2.5995255970
1.4400000000	2.0049134630
1.4450000000	0.1808164737
1.4500000000	-2.7773847877
1.4550000000	-0.7757084547
1.4600000000	3.3740797881
1.4650000000	1.8244355734
1.4700000000	-1.7335663969
1.4750000000	-7.5717022179
1.4800000000	-3.3704206530
1.4850000000	5.5357883136
1.4900000000	4.4873874913
1.4950000000	2.9043913334
1.5000000000	2.0405540028
1.5050000000	1.5754356754
1.5100000000	1.3103410662
1.5150000000	1.1493622538
1.5200000000	1.0453835300
1.5250000000	0.9807862087
1.5300000000	0.9314527801
1.5350000000	0.8974590696
1.5400000000	0.8750815028
1.5450000000	0.8623238385
1.5500000000	0.8578967574
1.5550000000	0.8618371730
1.5600000000	0.8764471878
1.5650000000	0.9005563048
1.5700000000	0.9395692189
1.5750000000	1.0000858281
1.5800000000	1.0944971745
1.5850000000	1.2469229601
1.5900000000	1.5081801195
1.5950000000	1.9907253328
1.6000000000	2.9321112676
1.6050000000	4.4887490515
1.6100000000	5.2098051463
1.6150000000	3.8584152193
1.6200000000	2.5905305550
1.6250000000	1.9211926802
1.6300000000	1.5850555518
1.6350000000	1.4119376989
1.6400000000	1.3241214587
1.6450000000	1.2854833431
1.6500000000	1.2779316678
1.6550000000	1.2929912723
1.6600000000	1.3256008431
1.6650000000	1.3734469414
1.6700000000	1.4356466320
1.6750000000	1.5121987702
1.6800000000	1.6037819792
1.6850000000	1.7114511903
1.6900000000	1.8361327345
1.6950000000	1.9760246102
1.7000000000	2.1287238434
1.7050000000	2.2849910818
1.7100000000	2.4631770376
1.7150000000	2.9079140066
1.7200000000	3.6891149334
1.7250000000	4.4038015723
1.7300000000	5.1700025400
1.7350000000	6.0120817084
1.7400000000	6.8389747889
1.7450000000	7.9012902904
1.7500000000	9.5075020603
1.7550000000	11.8979545936
1.7600000000	15.4743934957
1.7650000000	20.9874511633
1.7700000000	29.8680260027
1.7750000000	44.8295504525
1.7800000000	70.3238765307
1.7850000000	107.9224951698
1.7900000000	134.1201115496
1.7950000000	114.2072038479
1.8000000000	76.0090838501
1.8050000000	48.0021947225
1.8100000000	31.6495346354
1.8150000000	22.0645471259
1.8200000000	16.1658005455
1.8250000000	12.3416236750
1.8300000000	9.7451496164
1.8350000000	7.9124674609
1.8400000000	6.5772950010
1.8450000000	5.5781024350
1.8500000000	4.8130908970
1.8550000000	4.2185639171
1.8600000000	3.7500907360
1.8650000000	3.3774790561
1.8700000000	3.0792606528
1.8750000000	2.8396819469
1.8800000000	2.6462568274
1.8850000000	2.4879651629
1.8900000000	2.3521208114
1.8950000000	2.2197969053
1.9000000000	2.0583019039
1.9050000000	1.7521408085
1.9100000000	1.3310785246
1.9150000000	1.1111715549
1.9200000000	2.7017881933
1.9250000000	7.0877279113
1.9300000000	10.5659030849
1.9350000000	10.4018246910
1.9400000000	8.1802930600
1.9450000000	6.0266477719
1.9500000000	4.5146229459
1.9550000000	3.5239513643
1.9600000000	2.8693167446
1.9650000000	2.4311476420
1.9700000000	2.1148611729
1.9750000000	1.8830119240
1.9800000000	1.7059986904
1.9850000000	1.5623439225
1.9900000000	1.4356106024
1.9950000000	1.3114513246
2.0000000000	1.1877768431
2.0050000000	1.1087383925
2.0100000000	1.1539869226
2.0150000000	1.2786704479
2.0200000000	1.3555099300
2.0250000000	1.3758461000
2.0300000000	1.3803203913
2.0350000000	1.3885308520
2.0400000000	1.4077478834
2.0450000000	1.4398150867
2.0500000000	1.4859205406
2.0550000000	1.5471408271
2.0600000000	1.6234761548
2.0650000000	1.7103273968
2.0700000000	1.7962887974
2.0750000000	1.8728206057
2.0800000000	1.9474846802
2.0850000000	2.0359045067
2.0900000000	2.1485636654
2.0950000000	2.2898908567
2.1000000000	2.4646709128
2.1050000000	2.6713342635
2.1100000000	2.9244058588
2.1150000000	3.2345065444
2.1200000000	3.6165264579
2.1250000000	4.0913488449
2.1300000000	4.6884086761
2.1350000000	5.4497285339
2.1400000000	6.4359880239
2.1450000000	7.7359005067
2.1500000000	9.4787251973
2.1550000000	11.8474010518
2.1600000000	15.0760619579
2.1650000000	19.3629950489
2.1700000000	24.6288647174
2.1750000000	29.8641575916
2.1800000000	33.0985825152
2.1850000000	33.2657456113
2.1900000000	31.7934817142
2.1950000000	30.6472096923
2.2000000000	30.1383768397
2.2050000000	28.7291245837
2.2100000000	25.7388190509
2.2150000000	22.0629070579
2.2200000000	18.7633674334
2.2250000000	16.0359025107
2.2300000000	13.6327279985
2.2350000000	11.4585231584
2.2400000000	9.5903147742
2.2450000000	8.0953464816
2.2500000000	6.9494031989
2.2550000000	6.0887380707
2.2600000000	5.4445444379
2.2650000000	4.9478227447
2.2700000000	4.5239263024
2.2750000000	4.0992563004
2.2800000000	3.6417303383
2.2850000000	3.2060526919
2.2900000000	2.9046864948
2.2950000000	2.8013734430
2.3000000000	2.8376198887
2.3050000000	2.8933189536
2.3100000000	2.8977732003
2.3150000000	2.8515401444
2.3200000000	2.7852197352
2.3250000000	2.7304207363
2.3300000000	2.7033121800
2.3350000000	2.7066575518
2.3400000000	2.7313621061
2.3450000000	2.7568590177
2.3500000000	2.7572534071
2.3550000000	2.7160241732
2.3600000000	2.6378465973
2.3650000000	2.5431515194
2.3700000000	2.4529996102
2.3750000000	2.3799728103
2.3800000000	2.3281656128
2.3850000000	2.2964363479
2.3900000000	2.2821629864
2.3950000000	2.2823028804
2.4000000000	2.2976804202
2.4050000000	2.3333610478
2.4100000000	2.3910353306
2.4150000000	2.4730478002
2.4200000000	2.5808061590
2.4250000000	2.7167859768
2.4300000000	2.8846023425
2.4350000000	3.0891051897
2.4400000000	3.3365532379
2.4450000000	3.6349376970
2.4500000000	3.9943401330
2.4550000000	4.4274316627
2.4600000000	4.9497801329
2.4650000000	5.5800629511
2.4700000000	6.3397005574
2.4750000000	7.2501469691
2.4800000000	8.3335545392
2.4850000000	9.5986852666
2.4900000000	11.0331621909
2.4950000000	12.5856499414
2.5000000000	14.1476100357
2.5050000000	15.6088121077
2.5100000000	16.5961151762
2.5150000000	16.8942686288
2.5200000000	16.4518873943
2.5250000000	15.4055142505
2.5300000000	13.9931792899
2.5350000000	12.4445401621
2.5400000000	10.9219168718
2.5450000000	9.5170582104
2.5500000000	8.2707838913
2.5550000000	7.1923964621
2.5600000000	6.2670716211
2.5650000000	5.4891184526
2.5700000000	4.8402105559
2.5750000000	4.3088737179
2.5800000000	3.8865379953
2.5850000000	3.5638920899
2.5900000000	3.3256266083
2.5950000000	3.1502203601
2.6000000000	3.0152656027
2.6050000000	2.9193549829
2.6100000000	2.8363188157
2.6150000000	2.7648403790
2.6200000000	2.7063297683
2.6250000000	2.6623511610
2.6300000000	2.6339493843
2.6350000000	2.6216576407
2.6400000000	2.6257862893
2.6450000000	2.6466231333
2.6500000000	2.6847326525
2.6550000000	2.7402734040
2.6600000000	2.8140971615
2.6650000000	2.9070650644
2.6700000000	3.0202348868
2.6750000000	3.1548875144
2.6800000000	3.3124426653
2.6850000000	3.4943517415
2.6900000000	3.7018022551
2.6950000000	3.9354810034
2.7000000000	4.1951470496
2.7050000000	4.5103269408
2.7100000000	4.8542711308
2.7150000000	5.2202683862
2.7200000000	5.5985627691
2.7250000000	5.9769051482
2.7300000000	6.3414840045
2.7350000000	6.6777248255
2.7400000000	6.9704836260
2.7450000000	7.2063297582
2.7500000000	7.3644219109
2.7550000000	7.4321519049
2.7600000000	7.3999522803
2.7650000000	7.2667179618
2.7700000000	7.0413694741
2.7750000000	6.7417719370
2.7800000000	6.3912097003
2.7850000000	6.0143839472
2.7900000000	5.6334585836
2.7950000000	5.2662070242
2.8000000000	4.9251969827
2.8050000000	4.5801800636
2.8100000000	4.2848995031
2.8150000000	4.0385639175
2.8200000000	3.8372077654
2.8250000000	3.6756049659
2.8300000000	3.5484908955
2.8350000000	3.4513594496
2.8400000000	3.3794678535
2.8450000000	3.3329804179
2.8500000000	3.3084501886
2.8550000000	3.3045634417
2.8600000000	3.3203389015
2.8650000000	3.3548920639
2.8700000000	3.4072330916
2.8750000000	3.4761053274
2.8800000000	3.5598615465
2.8850000000	3.6563593135
2.8900000000	3.7630229577
2.8950000000	3.8769404981
2.9000000000	3.9950502146
2.9050000000	4.1369382664
2.9100000000	4.2730200063
2.9150000000	4.3990187097
2.9200000000	4.5104483482
2.9250000000	4.6022204388
2.9300000000	4.6696498044
2.9350000000	4.7054445632
2.9400000000	4.7064599599
2.9450000000	4.6713577121
2.9500000000	4.6021619467
2.9550000000	4.5041286385
2.9600000000	4.3848426202
2.9650000000	4.2528977932
2.9700000000	4.1166036307
2.9750000000	3.9830611335
2.9800000000	3.8577110579
2.9850000000	3.7442652919
2.9900000000	3.6449560680
2.9950000000	3.5608306296
3.0000000000	3.4921088950
