# energy (eV)    P(omega), $W$ = 300 nm, $h$ = 300 nm, $s$ = 20 nm, $d/W = 5$, $E_{\rm e}$ = 200 keV
0.2000000000	0.2344257844
0.2050000000	0.2379386894
0.2100000000	0.2412229613
0.2150000000	0.2442860547
0.2200000000	0.2471343321
0.2250000000	0.2497731975
0.2300000000	0.2522067828
0.2350000000	0.2544378246
0.2400000000	0.2564673655
0.2450000000	0.2582946325
0.2500000000	0.2599166220
0.2550000000	0.2613275804
0.2600000000	0.2625188756
0.2650000000	0.2634779707
0.2700000000	0.2641878737
0.2750000000	0.2646260732
0.2800000000	0.2647633375
0.2850000000	0.2645620887
0.2900000000	0.2639741859
0.2950000000	0.2629385469
0.3000000000	0.2613771483
0.3050000000	0.2591905585
0.3100000000	0.2562514883
0.3150000000	0.2708239070
0.3200000000	0.2881305381
0.3250000000	0.3100202016
0.3300000000	0.3393356299
0.3350000000	0.3758256854
0.3400000000	0.4236100024
0.3450000000	0.4815668731
0.3500000000	0.5573830632
0.3550000000	0.6576992501
0.3600000000	0.7886775475
0.3650000000	0.9712707175
0.3700000000	1.2120237126
0.3750000000	1.5469093371
0.3800000000	2.0312344420
0.3850000000	2.7858857476
0.3900000000	3.9780338039
0.3950000000	6.0029841809
0.4000000000	9.8631670467
0.4050000000	18.5174124712
0.4100000000	42.1310574113
0.4150000000	135.2052634425
0.4200000000	86.1462750247
0.4250000000	-162.1411845402
0.4300000000	45.0851810532
0.4350000000	28.0942441187
0.4400000000	17.1733480216
0.4450000000	11.2948784942
0.4500000000	7.9108560608
0.4550000000	5.8283889912
0.4600000000	4.4721128413
0.4650000000	3.5479029103
0.4700000000	2.8946943743
0.4750000000	2.4222828309
0.4800000000	2.0720295697
0.4850000000	1.8084719134
0.4900000000	1.6072888446
0.4950000000	1.4521538144
0.5000000000	1.3319070647
0.5050000000	1.2383609036
0.5100000000	1.1662429087
0.5150000000	1.1116713096
0.5200000000	1.0705896416
0.5250000000	1.0411693773
0.5300000000	1.0214486420
0.5350000000	1.0099923852
0.5400000000	1.0057425755
0.5450000000	1.0078154619
0.5500000000	1.0159308510
0.5550000000	1.0295904607
0.5600000000	1.0485393099
0.5650000000	1.0726627159
0.5700000000	1.1018560475
0.5750000000	1.1363231274
0.5800000000	1.1763953957
0.5850000000	1.2222889539
0.5900000000	1.2744229942
0.5950000000	1.3333250702
0.6000000000	1.3996671596
0.6050000000	1.4744236005
0.6100000000	1.5585236727
0.6150000000	1.6532373005
0.6200000000	1.7602584558
0.6250000000	1.8812111931
0.6300000000	2.0184961981
0.6350000000	2.1751055312
0.6400000000	2.3541522914
0.6450000000	2.5601303777
0.6500000000	2.7989482848
0.6550000000	3.0767564816
0.6600000000	3.4030081994
0.6650000000	3.7898328151
0.6700000000	4.2514899740
0.6750000000	4.8097247705
0.6800000000	5.4937798420
0.6850000000	6.3419626188
0.6900000000	7.4136039272
0.6950000000	8.7916822791
0.7000000000	10.6080091912
0.7050000000	13.0640895891
0.7100000000	16.5013472048
0.7150000000	21.5275539336
0.7200000000	29.2741916567
0.7250000000	42.1330330079
0.7300000000	65.7354652572
0.7350000000	116.2375786983
0.7400000000	254.7403489345
0.7450000000	845.0885776891
0.7500000000	2618.0647127332
0.7550000000	658.6249166412
0.7600000000	218.1193610389
0.7650000000	104.5094298193
0.7700000000	60.7783996006
0.7750000000	39.6679890853
0.7800000000	27.9157834277
0.7850000000	20.7328794653
0.7900000000	16.0176965218
0.7950000000	12.7657545557
0.8000000000	10.4280620663
0.8050000000	8.6870096786
0.8100000000	7.3593659485
0.8150000000	6.3069268151
0.8200000000	5.4763155956
0.8250000000	4.8075198967
0.8300000000	4.2596734328
0.8350000000	3.8092439092
0.8400000000	3.4316539383
0.8450000000	3.1148078287
0.8500000000	2.8469820657
0.8550000000	2.6158605036
0.8600000000	2.4185599560
0.8650000000	2.2500319813
0.8700000000	2.1011241118
0.8750000000	1.9744564318
0.8800000000	1.8669757484
0.8850000000	1.7706134602
0.8900000000	1.6933136045
0.8950000000	1.6229945353
0.9000000000	1.5672631273
0.9050000000	1.5288803168
0.9100000000	1.4937060483
0.9150000000	1.4723698090
0.9200000000	1.4698013964
0.9250000000	1.4678966902
0.9300000000	1.4463645485
0.9350000000	1.3817534723
0.9400000000	1.0218113843
0.9450000000	-0.6142226237
0.9500000000	-9.2482164491
0.9550000000	-53.0410600940
0.9600000000	12.5157881782
0.9650000000	21.9857037951
0.9700000000	9.7514651446
0.9750000000	5.1192810930
0.9800000000	3.2083260487
0.9850000000	2.3145688167
0.9900000000	1.7996063675
0.9950000000	1.4873459688
1.0000000000	1.2879669923
1.0050000000	1.1615654525
1.0100000000	1.0635732393
1.0150000000	0.9919837859
1.0200000000	0.9437643401
1.0250000000	0.9032913971
1.0300000000	0.8725448536
1.0350000000	0.8492855047
1.0400000000	0.8344983211
1.0450000000	0.8222029463
1.0500000000	0.8140926018
1.0550000000	0.8096870316
1.0600000000	0.8100715388
1.0650000000	0.8122253224
1.0700000000	0.8173800040
1.0750000000	0.8255569611
1.0800000000	0.8375643688
1.0850000000	0.8528021986
1.0900000000	0.8752796914
1.0950000000	0.9019728844
1.1000000000	0.9337773517
1.1050000000	0.9704330533
1.1100000000	1.0130977684
1.1150000000	1.0627308124
1.1200000000	1.1204694175
1.1250000000	1.1878002434
1.1300000000	1.2667144575
1.1350000000	1.3596909197
1.1400000000	1.4695524308
1.1450000000	1.6014529910
1.1500000000	1.7609962229
1.1550000000	1.9562836577
1.1600000000	2.1987450369
1.1650000000	2.5032108811
1.1700000000	2.8974638533
1.1750000000	3.4183851976
1.1800000000	4.1269462111
1.1850000000	5.1233678664
1.1900000000	6.5965317045
1.1950000000	8.9091063608
1.2000000000	12.8315655896
1.2050000000	20.2439785265
1.2100000000	36.5498055639
1.2150000000	80.6242797666
1.2200000000	197.8684316023
1.2250000000	177.7723953750
1.2300000000	70.9121099183
1.2350000000	33.2586619098
1.2400000000	18.9964487977
1.2450000000	12.4479422251
1.2500000000	8.9933169838
1.2550000000	6.9995587135
1.2600000000	5.7863209378
1.2650000000	5.0263479943
1.2700000000	4.5731627772
1.2750000000	4.3317931420
1.2800000000	4.2570288711
1.2850000000	4.3291230380
1.2900000000	4.5464795733
1.2950000000	4.9204012639
1.3000000000	5.4970588388
1.3050000000	6.3356615110
1.3100000000	7.5466008245
1.3150000000	9.3208828333
1.3200000000	12.0018863417
1.3250000000	16.2440856265
1.3300000000	23.4808586673
1.3350000000	37.0354796846
1.3400000000	66.0056624053
1.3450000000	137.9246446427
1.3500000000	292.7089791711
1.3550000000	272.9931700605
1.3600000000	125.8902438126
1.3650000000	61.8544997987
1.3700000000	35.4728679341
1.3750000000	22.8123051824
1.3800000000	15.9090792440
1.3850000000	11.7506490444
1.3900000000	9.0704880702
1.3950000000	7.2418968000
1.4000000000	5.9411828163
1.4050000000	4.9858408807
1.4100000000	4.2653348296
1.4150000000	3.7136311027
1.4200000000	3.2841433703
1.4250000000	2.9644910535
1.4300000000	2.7609945651
1.4350000000	2.6262501074
1.4400000000	1.8048965250
1.4450000000	-0.4699004204
1.4500000000	-4.4287488446
1.4550000000	-1.4802267455
1.4600000000	4.5030512347
1.4650000000	2.6090246763
1.4700000000	-1.6629313336
1.4750000000	-8.4203073249
1.4800000000	-3.7147418766
1.4850000000	6.3658652407
1.4900000000	5.1533489922
1.4950000000	3.3435411137
1.5000000000	2.3540836261
1.5050000000	1.8184328142
1.5100000000	1.5118092442
1.5150000000	1.3238092428
1.5200000000	1.2006699322
1.5250000000	1.1225104497
1.5300000000	1.0609167569
1.5350000000	1.0161720624
1.5400000000	0.9837577709
1.5450000000	0.9609791921
1.5500000000	0.9459738383
1.5550000000	0.9379650018
1.5600000000	0.9385574452
1.5650000000	0.9445098704
1.5700000000	0.9592800302
1.5750000000	0.9855836620
1.5800000000	1.0288300673
1.5850000000	1.0996710416
1.5900000000	1.2206407044
1.5950000000	1.4415544564
1.6000000000	1.8673921673
1.6050000000	2.5662571536
1.6100000000	2.8920809906
1.6150000000	2.3030144269
1.6200000000	1.7568755491
1.6250000000	1.4793233438
1.6300000000	1.3519968774
1.6350000000	1.2995844213
1.6400000000	1.2879748379
1.6450000000	1.3015665219
1.6500000000	1.3327665870
1.6550000000	1.3784571816
1.6600000000	1.4370514620
1.6650000000	1.5083375941
1.6700000000	1.5929088165
1.6750000000	1.6919856317
1.6800000000	1.8073523576
1.6850000000	1.9413904943
1.6900000000	2.0968689264
1.6950000000	2.2753991232
1.7000000000	2.4809273184
1.7050000000	2.7187657009
1.7100000000	3.0070537961
1.7150000000	3.4913135371
1.7200000000	4.2225311104
1.7250000000	5.0132361237
1.7300000000	5.9536094149
1.7350000000	6.9709930789
1.7400000000	7.9100775244
1.7450000000	9.0935503946
1.7500000000	10.9078412718
1.7550000000	13.6291445284
1.7600000000	17.7120149443
1.7650000000	24.0108676783
1.7700000000	34.1576218210
1.7750000000	51.2477131780
1.7800000000	80.3550594472
1.7850000000	123.2478749869
1.7900000000	153.0622876619
1.7950000000	130.2313940507
1.8000000000	86.5889765839
1.8050000000	54.6192372948
1.8100000000	35.9616552796
1.8150000000	25.0287042494
1.8200000000	18.3009267850
1.8250000000	13.9385152302
1.8300000000	10.9749715168
1.8350000000	8.8809203357
1.8400000000	7.3525172870
1.8450000000	6.2052139055
1.8500000000	5.3225823512
1.8550000000	4.6316243920
1.8600000000	4.0809949701
1.8650000000	3.6354013020
1.8700000000	3.2691262170
1.8750000000	2.9624428949
1.8800000000	2.6985592831
1.8850000000	2.4611026547
1.8900000000	2.2298084752
1.8950000000	1.9739793279
1.9000000000	1.6416011072
1.9050000000	1.0629490488
1.9100000000	0.2319657057
1.9150000000	-0.5682397579
1.9200000000	0.3971066504
1.9250000000	4.2605452208
1.9300000000	7.3468382968
1.9350000000	7.4162738778
1.9400000000	5.9536939002
1.9450000000	4.5125914711
1.9500000000	3.4911536335
1.9550000000	2.8154997543
1.9600000000	2.3652406780
1.9650000000	2.0652202918
1.9700000000	1.8443535782
1.9750000000	1.6823954626
1.9800000000	1.5594730481
1.9850000000	1.4613352324
1.9900000000	1.3773747133
1.9950000000	1.2986006868
2.0000000000	1.2233962617
2.0050000000	1.1786903066
2.0100000000	1.2087614711
2.0150000000	1.2871657613
2.0200000000	1.3401564218
2.0250000000	1.3632191289
2.0300000000	1.3808301934
2.0350000000	1.4043130246
2.0400000000	1.4391798161
2.0450000000	1.4877727591
2.0500000000	1.5524743908
2.0550000000	1.6356541016
2.0600000000	1.7374472834
2.0650000000	1.8497256497
2.0700000000	1.9522562263
2.0750000000	2.0292376062
2.0800000000	2.0924144427
2.0850000000	2.1673120482
2.0900000000	2.2701648510
2.0950000000	2.4065977939
2.1000000000	2.5809146431
2.1050000000	2.7904846389
2.1100000000	3.0499087191
2.1150000000	3.3696517627
2.1200000000	3.7647660399
2.1250000000	4.2566098074
2.1300000000	4.8754471519
2.1350000000	5.6645789740
2.1400000000	6.6865441969
2.1450000000	8.0327556583
2.1500000000	9.8363322187
2.1550000000	12.2855558524
2.1600000000	15.6213205844
2.1650000000	20.0477720815
2.1700000000	25.4870942093
2.1750000000	30.9109684956
2.1800000000	34.3172847858
2.1850000000	34.6366740739
2.1900000000	33.3436896595
2.1950000000	32.4265628453
2.2000000000	32.1063049737
2.2050000000	30.5976208333
2.2100000000	27.1366409770
2.2150000000	22.7817818207
2.2200000000	18.8207034926
2.2250000000	15.6111667217
2.2300000000	12.9766417310
2.2350000000	10.7721290611
2.2400000000	8.9622436855
2.2450000000	7.5331674117
2.2500000000	6.4256873271
2.2550000000	5.5685110261
2.2600000000	4.8956657105
2.2650000000	4.3476997067
2.2700000000	3.8683558855
2.2750000000	3.4101127783
2.2800000000	2.9619654877
2.2850000000	2.5786336883
2.2900000000	2.3532814960
2.2950000000	2.3276416514
2.3000000000	2.4297378789
2.3050000000	2.5372931284
2.3100000000	2.5753395289
2.3150000000	2.5462401878
2.3200000000	2.4824099293
2.3250000000	2.4171636968
2.3300000000	2.3681886032
2.3350000000	2.3406524430
2.3400000000	2.3306808025
2.3450000000	2.3269902626
2.3500000000	2.3150457619
2.3550000000	2.2855619381
2.3600000000	2.2411076883
2.3650000000	2.1930089914
2.3700000000	2.1527767564
2.3750000000	2.1268070785
2.3800000000	2.1161222747
2.3850000000	2.1181443525
2.3900000000	2.1295825359
2.3950000000	2.1472846895
2.4000000000	2.1728219453
2.4050000000	2.2128603984
2.4100000000	2.2702355097
2.4150000000	2.3488608785
2.4200000000	2.4514347853
2.4250000000	2.5808487477
2.4300000000	2.7406497002
2.4350000000	2.9353842268
2.4400000000	3.1709042708
2.4450000000	3.4547135109
2.4500000000	3.7963221582
2.4550000000	4.2077297729
2.4600000000	4.7036916164
2.4650000000	5.3019956083
2.4700000000	6.0231120392
2.4750000000	6.8876810051
2.4800000000	7.9174873799
2.4850000000	9.1215818856
2.4900000000	10.4886884012
2.4950000000	11.9689394811
2.5000000000	13.4546630822
2.5050000000	14.8316633088
2.5100000000	15.7345022246
2.5150000000	15.9581990009
2.5200000000	15.4685181829
2.5250000000	14.4173345427
2.5300000000	13.0459324956
2.5350000000	11.5731777432
2.5400000000	10.1434882236
2.5450000000	8.8322118686
2.5500000000	7.6696819419
2.5550000000	6.6611039940
2.5600000000	5.7920903630
2.5650000000	5.0594818664
2.5700000000	4.4477275473
2.5750000000	3.9474311159
2.5800000000	3.5514092427
2.5850000000	3.2511838865
2.5900000000	3.0319291154
2.5950000000	2.8723645694
2.6000000000	2.7502460198
2.6050000000	2.6631087620
2.6100000000	2.5858494829
2.6150000000	2.5174321932
2.6200000000	2.4594637381
2.6250000000	2.4135907453
2.6300000000	2.3808689914
2.6350000000	2.3618041277
2.6400000000	2.3566629268
2.6450000000	2.3657158804
2.6500000000	2.3895190676
2.6550000000	2.4281967045
2.6600000000	2.4825981287
2.6650000000	2.5535309468
2.6700000000	2.6419469344
2.6750000000	2.7489588959
2.6800000000	2.8757563613
2.6850000000	3.0235577129
2.6900000000	3.1934407282
2.6950000000	3.3862312329
2.7000000000	3.6022341821
2.7050000000	3.8667262329
2.7100000000	4.1596046165
2.7150000000	4.4773009407
2.7200000000	4.8138149288
2.7250000000	5.1606112372
2.7300000000	5.5066357718
2.7350000000	5.8383535574
2.7400000000	6.1396589141
2.7450000000	6.3944769068
2.7500000000	6.5789390051
2.7550000000	6.6772433264
2.7600000000	6.6774564668
2.7650000000	6.5769485841
2.7700000000	6.3837288141
2.7750000000	6.1150933275
2.7800000000	5.7938706006
2.7850000000	5.4443412803
2.7900000000	5.0882580808
2.7950000000	4.7430560908
2.8000000000	4.4210719987
2.8050000000	4.0940180227
2.8100000000	3.8124769868
2.8150000000	3.5758180196
2.8200000000	3.3803443677
2.8250000000	3.2211408538
2.8300000000	3.0932497171
2.8350000000	2.9924510444
2.8400000000	2.9142563007
2.8450000000	2.8589377645
2.8500000000	2.8231984979
2.8550000000	2.8057911611
2.8600000000	2.8057970104
2.8650000000	2.8224360615
2.8700000000	2.8549484143
2.8750000000	2.9024656945
2.8800000000	2.9639290138
2.8850000000	3.0379954882
2.8900000000	3.1230614373
2.8950000000	3.2172282545
2.9000000000	3.3184047235
2.9050000000	3.4463644485
2.9100000000	3.5742624290
2.9150000000	3.6975309054
2.9200000000	3.8109243333
2.9250000000	3.9083896765
2.9300000000	3.9842881864
2.9350000000	4.0307132397
2.9400000000	4.0438962448
2.9450000000	4.0219952758
2.9500000000	3.9665134227
2.9550000000	3.8821701320
2.9600000000	3.7759856340
2.9650000000	3.6560430584
2.9700000000	3.5302480444
2.9750000000	3.4054178958
2.9800000000	3.2868243457
2.9850000000	3.1781108048
2.9900000000	3.0815220140
2.9950000000	2.9981469643
3.0000000000	2.9283013112
