# energy (eV)    P(omega), $W$ = 300 nm, $h$ = 300 nm, $s$ = 20 nm, $d/W = 5$, $E_{\rm e}$ = 200 keV
0.2000000000	0.0728828624
0.2050000000	0.0739297884
0.2100000000	0.0749139029
0.2150000000	0.0758371693
0.2200000000	0.0767012805
0.2250000000	0.0775076357
0.2300000000	0.0782572627
0.2350000000	0.0789508033
0.2400000000	0.0795884402
0.2450000000	0.0801697400
0.2500000000	0.0806937411
0.2550000000	0.0811585961
0.2600000000	0.0815616059
0.2650000000	0.0818990087
0.2700000000	0.0821656475
0.2750000000	0.0823547718
0.2800000000	0.0824576317
0.2850000000	0.0824630396
0.2900000000	0.0823566224
0.2950000000	0.0821202561
0.3000000000	0.0817306023
0.3050000000	0.0811581764
0.3100000000	0.0803651258
0.3150000000	0.0846942592
0.3200000000	0.0898364495
0.3250000000	0.0963367559
0.3300000000	0.1050352320
0.3350000000	0.1158661535
0.3400000000	0.1300508950
0.3450000000	0.1472708830
0.3500000000	0.1698070785
0.3550000000	0.1996415920
0.3600000000	0.2386256493
0.3650000000	0.2929993150
0.3700000000	0.3647654970
0.3750000000	0.4646712533
0.3800000000	0.6092676222
0.3850000000	0.8347151763
0.3900000000	1.1911437735
0.3950000000	1.7970262003
0.4000000000	2.9528324677
0.4050000000	5.5458583698
0.4100000000	12.6263529030
0.4150000000	40.5549691486
0.4200000000	25.8142286730
0.4250000000	-48.7296663870
0.4300000000	13.5794745478
0.4350000000	8.4730642052
0.4400000000	5.1874601749
0.4450000000	3.4176143715
0.4500000000	2.3980881612
0.4550000000	1.7702980935
0.4600000000	1.3611880253
0.4650000000	1.0822590392
0.4700000000	0.8850265666
0.4750000000	0.7423375614
0.4800000000	0.6365229939
0.4850000000	0.5568994745
0.4900000000	0.4961347935
0.4950000000	0.4493046670
0.5000000000	0.4130441916
0.5050000000	0.3848816100
0.5100000000	0.3632285577
0.5150000000	0.3469162870
0.5200000000	0.3347158956
0.5250000000	0.3260800646
0.5300000000	0.3204164529
0.5350000000	0.3172930676
0.5400000000	0.3163919598
0.5450000000	0.3174476869
0.5500000000	0.3203811983
0.5550000000	0.3250444307
0.5600000000	0.3313652570
0.5650000000	0.3393132235
0.5700000000	0.3488625639
0.5750000000	0.3600816152
0.5800000000	0.3730814577
0.5850000000	0.3879350831
0.5900000000	0.4047813562
0.5950000000	0.4237924793
0.6000000000	0.4451875310
0.6050000000	0.4692805378
0.6100000000	0.4963740064
0.6150000000	0.5268784849
0.6200000000	0.5613419613
0.6250000000	0.6002891111
0.6300000000	0.6444954264
0.6350000000	0.6949275134
0.6400000000	0.7525915423
0.6450000000	0.8189391327
0.6500000000	0.8958795367
0.6550000000	0.9854006661
0.6600000000	1.0905566575
0.6650000000	1.2152694347
0.6700000000	1.3641497574
0.6750000000	1.5442258487
0.6800000000	1.7649605225
0.6850000000	2.0387409196
0.6900000000	2.3847682154
0.6950000000	2.8298879970
0.7000000000	3.4167696181
0.7050000000	4.2106414102
0.7100000000	5.3220593579
0.7150000000	6.9478506273
0.7200000000	9.4545266254
0.7250000000	13.6169892456
0.7300000000	21.2601321834
0.7350000000	37.6205390846
0.7400000000	82.5073599039
0.7450000000	273.9168498403
0.7500000000	849.2251725889
0.7550000000	213.8018803800
0.7600000000	70.8603392605
0.7650000000	33.9785274306
0.7700000000	19.7762302472
0.7750000000	12.9176632867
0.7800000000	9.0980378384
0.7850000000	6.7626390706
0.7900000000	5.2290236646
0.7950000000	4.1709421158
0.8000000000	3.4100654449
0.8050000000	2.8431899222
0.8100000000	2.4107677995
0.8150000000	2.0678448147
0.8200000000	1.7971157690
0.8250000000	1.5790665896
0.8300000000	1.4003903213
0.8350000000	1.2534531859
0.8400000000	1.1302481076
0.8450000000	1.0268405888
0.8500000000	0.9394241849
0.8550000000	0.8639663536
0.8600000000	0.7995493518
0.8650000000	0.7445392813
0.8700000000	0.6959186793
0.8750000000	0.6545815668
0.8800000000	0.6195378849
0.8850000000	0.5881159786
0.8900000000	0.5629772016
0.8950000000	0.5401059362
0.9000000000	0.5220527342
0.9050000000	0.5097577191
0.9100000000	0.4984973022
0.9150000000	0.4918361415
0.9200000000	0.4914417653
0.9250000000	0.4912346714
0.9300000000	0.4843662918
0.9350000000	0.4628589448
0.9400000000	0.3414462078
0.9450000000	-0.2118178894
0.9500000000	-3.1345386739
0.9550000000	-17.9696745096
0.9600000000	4.2444254724
0.9650000000	7.4600548742
0.9700000000	3.3110530536
0.9750000000	1.7390102764
0.9800000000	1.0901239099
0.9850000000	0.7865537127
0.9900000000	0.6115541070
0.9950000000	0.5054029727
1.0000000000	0.4376125472
1.0050000000	0.3946535596
1.0100000000	0.3613122617
1.0150000000	0.3369400543
1.0200000000	0.3205313787
1.0250000000	0.3067227105
1.0300000000	0.2962091568
1.0350000000	0.2882271636
1.0400000000	0.2831287073
1.0450000000	0.2788420001
1.0500000000	0.2759571349
1.0550000000	0.2743089107
1.0600000000	0.2742784372
1.0650000000	0.2748052597
1.0700000000	0.2763175539
1.0750000000	0.2788203372
1.0800000000	0.2825942612
1.0850000000	0.2873920912
1.0900000000	0.2945435999
1.0950000000	0.3030482800
1.1000000000	0.3132047029
1.1050000000	0.3248823866
1.1100000000	0.3384627807
1.1150000000	0.3542468443
1.1200000000	0.3726038833
1.1250000000	0.3939553070
1.1300000000	0.4189380950
1.1350000000	0.4483214561
1.1400000000	0.4829957675
1.1450000000	0.5245213897
1.1500000000	0.5746489756
1.1550000000	0.6358840504
1.1600000000	0.7117608884
1.1650000000	0.8068789676
1.1700000000	0.9297852830
1.1750000000	1.0918866797
1.1800000000	1.3120134101
1.1850000000	1.6210993774
1.1900000000	2.0775313713
1.1950000000	2.7932168475
1.2000000000	4.0061490182
1.2050000000	6.2970901829
1.2100000000	11.3355132913
1.2150000000	24.9560452130
1.2200000000	61.2069471327
1.2250000000	55.0449048643
1.2300000000	22.0223330645
1.2350000000	10.3833289566
1.2400000000	5.9770228592
1.2450000000	3.9577058007
1.2500000000	2.8968218855
1.2550000000	2.2895060205
1.2600000000	1.9255722453
1.2650000000	1.7040702494
1.2700000000	1.5803941378
1.2750000000	1.5257663006
1.2800000000	1.5271751461
1.2850000000	1.5798521141
1.2900000000	1.6852315179
1.2950000000	1.8493183712
1.3000000000	2.0909696897
1.3050000000	2.4347339023
1.3100000000	2.9250105994
1.3150000000	3.6382958515
1.3200000000	4.7115456617
1.3250000000	6.4063020437
1.3300000000	9.2934136508
1.3350000000	14.6983035972
1.3400000000	26.2492881618
1.3450000000	54.9311445648
1.3500000000	116.6932015199
1.3550000000	108.9039410582
1.3600000000	50.2399750807
1.3650000000	24.6883826136
1.3700000000	14.1584734254
1.3750000000	9.1043184176
1.3800000000	6.3484167005
1.3850000000	4.6885663437
1.3900000000	3.6193367005
1.3950000000	2.8903086159
1.4000000000	2.3726160335
1.4050000000	1.9935341027
1.4100000000	1.7094533467
1.4150000000	1.4950994669
1.4200000000	1.3339145117
1.4250000000	1.2259758059
1.4300000000	1.1864995930
1.4350000000	1.2086104830
1.4400000000	0.9310248318
1.4450000000	0.0806644505
1.4500000000	-1.2997555395
1.4550000000	-0.3642892686
1.4600000000	1.5744001478
1.4650000000	0.8522687949
1.4700000000	-0.8053107951
1.4750000000	-3.5237741068
1.4800000000	-1.5683305610
1.4850000000	2.5775235543
1.4900000000	2.0893534143
1.4950000000	1.3523718933
1.5000000000	0.9501955784
1.5050000000	0.7336390847
1.5100000000	0.6102087632
1.5150000000	0.5352501698
1.5200000000	0.4868287128
1.5250000000	0.4567433962
1.5300000000	0.4337622567
1.5350000000	0.4179221273
1.5400000000	0.4074889533
1.5450000000	0.4015324186
1.5500000000	0.3994519027
1.5550000000	0.4012628823
1.5600000000	0.4080355565
1.5650000000	0.4192211188
1.5700000000	0.4373312816
1.5750000000	0.4654301784
1.5800000000	0.5092710880
1.5850000000	0.5800530785
1.5900000000	0.7013708867
1.5950000000	0.9254379698
1.6000000000	1.3625449836
1.6050000000	2.0852886843
1.6100000000	2.4200151054
1.6150000000	1.7925330575
1.6200000000	1.2038797253
1.6250000000	0.8931493422
1.6300000000	0.7371286573
1.6350000000	0.6568008696
1.6400000000	0.6160824454
1.6450000000	0.5982024431
1.6500000000	0.5947624147
1.6550000000	0.6018280566
1.6600000000	0.6170511841
1.6650000000	0.6393593861
1.6700000000	0.6683447534
1.6750000000	0.7040093605
1.6800000000	0.7466717328
1.6850000000	0.7968261055
1.6900000000	0.8549091512
1.6950000000	0.9200941940
1.7000000000	0.9912844095
1.7050000000	1.0642312067
1.7100000000	1.1474628486
1.7150000000	1.3544030812
1.7200000000	1.7175229366
1.7250000000	2.0501754523
1.7300000000	2.4071389747
1.7350000000	2.7993760490
1.7400000000	3.1842803979
1.7450000000	3.6786772522
1.7500000000	4.4263173694
1.7550000000	5.5390930702
1.7600000000	7.2040068597
1.7650000000	9.7704835247
1.7700000000	13.9046272628
1.7750000000	20.8695871745
1.7800000000	32.7377489038
1.7850000000	50.2405326824
1.7900000000	62.4355701970
1.7950000000	53.1651569677
1.8000000000	35.3829438275
1.8050000000	22.3451733187
1.8100000000	14.7327325910
1.8150000000	10.2707796382
1.8200000000	7.5248325897
1.8250000000	5.7446263833
1.8300000000	4.5359288299
1.8350000000	3.6827809254
1.8400000000	3.0612239721
1.8450000000	2.5960622770
1.8500000000	2.2399060190
1.8550000000	1.9631022825
1.8600000000	1.7449656545
1.8650000000	1.5714381363
1.8700000000	1.4325216180
1.8750000000	1.3208762860
1.8800000000	1.2306805373
1.8850000000	1.1567909052
1.8900000000	1.0932812008
1.8950000000	1.0313083630
1.9000000000	0.9556017999
1.9050000000	0.8122632501
1.9100000000	0.6150063906
1.9150000000	0.5106802100
1.9200000000	1.2480810404
1.9250000000	3.2856547404
1.9300000000	4.9015804434
1.9350000000	4.8261111586
1.9400000000	3.7958178263
1.9450000000	2.7969284823
1.9500000000	2.0955976044
1.9550000000	1.6360663944
1.9600000000	1.3323953412
1.9650000000	1.1291427810
1.9700000000	0.9824122670
1.9750000000	0.8748532760
1.9800000000	0.7927361012
1.9850000000	0.7260994664
1.9900000000	0.6673209477
1.9950000000	0.6097479770
2.0000000000	0.5524108025
2.0050000000	0.5157789439
2.0100000000	0.5367658923
2.0150000000	0.5945810197
2.0200000000	0.6302285673
2.0250000000	0.6396964059
2.0300000000	0.6418257904
2.0350000000	0.6457010050
2.0400000000	0.6546970108
2.0450000000	0.6696738408
2.0500000000	0.6911890989
2.0550000000	0.7197490450
2.0600000000	0.7553540428
2.0650000000	0.7958485536
2.0700000000	0.8358869215
2.0750000000	0.8714634002
2.0800000000	0.9061137212
2.0850000000	0.9471493727
2.0900000000	0.9994718713
2.0950000000	1.0651459132
2.1000000000	1.1463934108
2.1050000000	1.2424792003
2.1100000000	1.3601563167
2.1150000000	1.5043614607
2.1200000000	1.6820176760
2.1250000000	1.9028355189
2.1300000000	2.1805029386
2.1350000000	2.5345620623
2.1400000000	2.9932310914
2.1450000000	3.5977652177
2.1500000000	4.4082747830
2.1550000000	5.5098323737
2.1600000000	7.0113175712
2.1650000000	9.0049380587
2.1700000000	11.4538072057
2.1750000000	13.8884933691
2.1800000000	15.3928164342
2.1850000000	15.4709646671
2.1900000000	14.7869558686
2.1950000000	14.2546690911
2.2000000000	14.0186140059
2.2050000000	13.3629767611
2.2100000000	11.9710453486
2.2150000000	10.2596763226
2.2200000000	8.7233675719
2.2250000000	7.4536609438
2.2300000000	6.3356104373
2.2350000000	5.3247218997
2.2400000000	4.4564085235
2.2450000000	3.7616451342
2.2500000000	3.2290513768
2.2550000000	2.8289655852
2.2600000000	2.5294095469
2.2650000000	2.2983371192
2.2700000000	2.1011044583
2.2750000000	1.9035781693
2.2800000000	1.6909109185
2.2850000000	1.4885367959
2.2900000000	1.3486809824
2.2950000000	1.3009076265
2.3000000000	1.3179785753
2.3050000000	1.3440486635
2.3100000000	1.3462370848
2.3150000000	1.3248104456
2.3200000000	1.2940021091
2.3250000000	1.2685135382
2.3300000000	1.2558669403
2.3350000000	1.2573540760
2.3400000000	1.2687604472
2.3450000000	1.2805481710
2.3500000000	1.2807072662
2.3550000000	1.2615754509
2.3600000000	1.2253211928
2.3650000000	1.1814201918
2.3700000000	1.1396397470
2.3750000000	1.1058134415
2.3800000000	1.0818363928
2.3850000000	1.0671728127
2.3900000000	1.0606007060
2.3950000000	1.0607044626
2.4000000000	1.0678695528
2.4050000000	1.0844556582
2.4100000000	1.1112534816
2.4150000000	1.1493577013
2.4200000000	1.1994261984
2.4250000000	1.2626107329
2.4300000000	1.3405912028
2.4350000000	1.4356211356
2.4400000000	1.5506085210
2.4450000000	1.6892663826
2.4500000000	1.8562792382
2.4550000000	2.0575350977
2.4600000000	2.3002681205
2.4650000000	2.5931578386
2.4700000000	2.9461587434
2.4750000000	3.3692420598
2.4800000000	3.8727056235
2.4850000000	4.4606257621
2.4900000000	5.1272557849
2.4950000000	5.8487397850
2.5000000000	6.5746272912
2.5050000000	7.2536664148
2.5100000000	7.7124120863
2.5150000000	7.8508251010
2.5200000000	7.6450618030
2.5250000000	7.1586383649
2.5300000000	6.5022155469
2.5350000000	5.7825249214
2.5400000000	5.0749730864
2.5450000000	4.4221667295
2.5500000000	3.8430529974
2.5550000000	3.3419454345
2.5600000000	2.9119542734
2.5650000000	2.5504410515
2.5700000000	2.2488940521
2.5750000000	2.0019848017
2.5800000000	1.8057331627
2.5850000000	1.6558127074
2.5900000000	1.5451079023
2.5950000000	1.4636150947
2.6000000000	1.4009183574
2.6050000000	1.3563608106
2.6100000000	1.3177801931
2.6150000000	1.2845649259
2.6200000000	1.2573711478
2.6250000000	1.2369258426
2.6300000000	1.2237144759
2.6350000000	1.2179847573
2.6400000000	1.2198805780
2.6450000000	1.2295357988
2.6500000000	1.2472124670
2.6550000000	1.2729839980
2.6600000000	1.3072458635
2.6650000000	1.3503975870
2.6700000000	1.4029299599
2.6750000000	1.4654377087
2.6800000000	1.5385800023
2.6850000000	1.6230311125
2.6900000000	1.7193433069
2.6950000000	1.8278368210
2.7000000000	1.9484016535
2.7050000000	2.0947499439
2.7100000000	2.2544678546
2.7150000000	2.4244447708
2.7200000000	2.6001566800
2.7250000000	2.7759205207
2.7300000000	2.9453241136
2.7350000000	3.1015958603
2.7400000000	3.2376937930
2.7450000000	3.3473675197
2.7500000000	3.4209212383
2.7550000000	3.4524856334
2.7600000000	3.4376071178
2.7650000000	3.3757680469
2.7700000000	3.2711124261
2.7750000000	3.1319427460
2.7800000000	2.9690806827
2.7850000000	2.7940065447
2.7900000000	2.6170209975
2.7950000000	2.4463842270
2.8000000000	2.2879369964
2.8050000000	2.1276258135
2.8100000000	1.9904208296
2.8150000000	1.8759540389
2.8200000000	1.7823828230
2.8250000000	1.7072786371
2.8300000000	1.6481951240
2.8350000000	1.6030386318
2.8400000000	1.5696051964
2.8450000000	1.5479715179
2.8500000000	1.5365358800
2.8550000000	1.5346879719
2.8600000000	1.5419720540
2.8650000000	1.5579775518
2.8700000000	1.5822451708
2.8750000000	1.6141921713
2.8800000000	1.6530545871
2.8850000000	1.6978388649
2.8900000000	1.7473506801
2.8950000000	1.8002393014
2.9000000000	1.8550842988
2.9050000000	1.9209895276
2.9100000000	1.9842123011
2.9150000000	2.0427640684
2.9200000000	2.0945579231
2.9250000000	2.1372260248
2.9300000000	2.1685880822
2.9350000000	2.1852532431
2.9400000000	2.1857580630
2.9450000000	2.1694791902
2.9500000000	2.1373558315
2.9550000000	2.0918293509
2.9600000000	2.0364235394
2.9650000000	1.9751311334
2.9700000000	1.9118130539
2.9750000000	1.8497688518
2.9800000000	1.7915267525
2.9850000000	1.7388116852
2.9900000000	1.6926611283
2.9950000000	1.6535620780
3.0000000000	1.6216169870
