# energy (eV)    P(omega), $W$ = 300 nm, $h$ = 300 nm, $s$ = 20 nm, $d/W = 5$, $E_{\rm e}$ = 200 keV
0.2000000000	0.1426589344
0.2050000000	0.1447080878
0.2100000000	0.1466343341
0.2150000000	0.1484415148
0.2200000000	0.1501329415
0.2250000000	0.1517113515
0.2300000000	0.1531787547
0.2350000000	0.1545364060
0.2400000000	0.1557846623
0.2450000000	0.1569226738
0.2500000000	0.1579485574
0.2550000000	0.1588586966
0.2600000000	0.1596478078
0.2650000000	0.1603085273
0.2700000000	0.1608307612
0.2750000000	0.1612012963
0.2800000000	0.1614030063
0.2850000000	0.1614139941
0.2900000000	0.1612061273
0.2950000000	0.1607439322
0.3000000000	0.1599817295
0.3050000000	0.1588618098
0.3100000000	0.1573100855
0.3150000000	0.1657833218
0.3200000000	0.1758479216
0.3250000000	0.1885706799
0.3300000000	0.2055957722
0.3350000000	0.2267946079
0.3400000000	0.2545577162
0.3450000000	0.2882616477
0.3500000000	0.3323708102
0.3550000000	0.3907647477
0.3600000000	0.4670668954
0.3650000000	0.5734907363
0.3700000000	0.7139567822
0.3750000000	0.9095000907
0.3800000000	1.1925159180
0.3850000000	1.6337810630
0.3900000000	2.3314149517
0.3950000000	3.5173046450
0.4000000000	5.7795609887
0.4050000000	10.8548928613
0.4100000000	24.7135793369
0.4150000000	79.3785078975
0.4200000000	50.5262871715
0.4250000000	-95.3794360648
0.4300000000	26.5794823139
0.4350000000	16.5846208441
0.4400000000	10.1536343197
0.4450000000	6.6894685096
0.4500000000	4.6939193259
0.4550000000	3.4651249576
0.4600000000	2.6643589495
0.4650000000	2.1184003181
0.4700000000	1.7323489978
0.4750000000	1.4530576210
0.4800000000	1.2459420582
0.4850000000	1.0900913937
0.4900000000	0.9711540457
0.4950000000	0.8794915378
0.5000000000	0.8085176268
0.5050000000	0.7533942436
0.5100000000	0.7110124327
0.5150000000	0.6790845708
0.5200000000	0.6552052572
0.5250000000	0.6383032246
0.5300000000	0.6272190564
0.5350000000	0.6211072033
0.5400000000	0.6193453381
0.5450000000	0.6214139044
0.5500000000	0.6271582008
0.5550000000	0.6362884270
0.5600000000	0.6486634302
0.5650000000	0.6642236231
0.5700000000	0.6829185996
0.5750000000	0.7048821536
0.5800000000	0.7303317586
0.5850000000	0.7594103249
0.5900000000	0.7923897161
0.5950000000	0.8296070556
0.6000000000	0.8714912344
0.6050000000	0.9186570086
0.6100000000	0.9716965926
0.6150000000	1.0314137024
0.6200000000	1.0988811171
0.6250000000	1.1751259727
0.6300000000	1.2616664242
0.6350000000	1.3603947553
0.6400000000	1.4732807126
0.6450000000	1.6031660747
0.6500000000	1.7537885121
0.6550000000	1.9290396882
0.6600000000	2.1348985626
0.6650000000	2.3790429674
0.6700000000	2.6704992073
0.6750000000	3.0230261994
0.6800000000	3.4551489718
0.6850000000	3.9911174239
0.6900000000	4.6685210681
0.6950000000	5.5399146825
0.7000000000	6.6888307335
0.7050000000	8.2429647776
0.7100000000	10.4187490881
0.7150000000	13.6015065688
0.7200000000	18.5087464909
0.7250000000	26.6574737805
0.7300000000	41.6202356207
0.7350000000	73.6485610830
0.7400000000	161.5223479171
0.7450000000	536.2401858383
0.7500000000	1662.5095456679
0.7550000000	418.5559208535
0.7600000000	138.7221711260
0.7650000000	66.5193328940
0.7700000000	38.7157364630
0.7750000000	25.2888254892
0.7800000000	17.8111976142
0.7850000000	13.2392163546
0.7900000000	10.2368741603
0.7950000000	8.1654778872
0.8000000000	6.6759157335
0.8050000000	5.5661472604
0.8100000000	4.7195967266
0.8150000000	4.0482576335
0.8200000000	3.5182520004
0.8250000000	3.0913773709
0.8300000000	2.7415827968
0.8350000000	2.4539238076
0.8400000000	2.2127249480
0.8450000000	2.0102837308
0.8500000000	1.8391483224
0.8550000000	1.6914241752
0.8600000000	1.5653146891
0.8650000000	1.4576212436
0.8700000000	1.3624364268
0.8750000000	1.2815106101
0.8800000000	1.2129055675
0.8850000000	1.1513908660
0.8900000000	1.1021768844
0.8950000000	1.0574019848
0.9000000000	1.0220596281
0.9050000000	0.9979904307
0.9100000000	0.9759466332
0.9150000000	0.9629071152
0.9200000000	0.9621366049
0.9250000000	0.9617326555
0.9300000000	0.9482870139
0.9350000000	0.9061806363
0.9400000000	0.6684769443
0.9450000000	-0.4147170794
0.9500000000	-6.1369023178
0.9550000000	-35.1815884154
0.9600000000	8.3098769566
0.9650000000	14.6055619805
0.9700000000	6.4825038914
0.9750000000	3.4047009351
0.9800000000	2.1342862813
0.9850000000	1.5399446378
0.9900000000	1.1973232719
0.9950000000	0.9894961562
1.0000000000	0.8567732112
1.0050000000	0.7726663723
1.0100000000	0.7073893330
1.0150000000	0.6596723397
1.0200000000	0.6275467454
1.0250000000	0.6005114583
1.0300000000	0.5799274563
1.0350000000	0.5642998147
1.0400000000	0.5543176993
1.0450000000	0.5459247615
1.0500000000	0.5402763544
1.0550000000	0.5370490373
1.0600000000	0.5369889981
1.0650000000	0.5380199378
1.0700000000	0.5409801846
1.0750000000	0.5458795611
1.0800000000	0.5532675546
1.0850000000	0.5626599968
1.0900000000	0.5766602805
1.0950000000	0.5933096583
1.1000000000	0.6131926719
1.1050000000	0.6360537458
1.1100000000	0.6626396708
1.1150000000	0.6935396144
1.1200000000	0.7294765802
1.1250000000	0.7712754001
1.1300000000	0.8201830830
1.1350000000	0.8777054353
1.1400000000	0.9455855058
1.1450000000	1.0268777384
1.1500000000	1.1250092559
1.1550000000	1.2448848574
1.1600000000	1.3934232124
1.1650000000	1.5796282696
1.1700000000	1.8202314474
1.1750000000	2.1375627048
1.1800000000	2.5684839751
1.1850000000	3.1735511226
1.1900000000	4.0670617776
1.1950000000	5.4680846724
1.2000000000	7.8425134340
1.2050000000	12.3272439665
1.2100000000	22.1904253831
1.2150000000	48.8538958531
1.2200000000	119.8185245989
1.2250000000	107.7559395705
1.2300000000	43.1111392630
1.2350000000	20.3266722514
1.2400000000	11.7009092004
1.2450000000	7.7479139282
1.2500000000	5.6711499389
1.2550000000	4.4822950525
1.2600000000	3.7698903043
1.2650000000	3.3363162598
1.2700000000	3.0942545094
1.2750000000	2.9873717157
1.2800000000	2.9901991640
1.2850000000	3.0934057411
1.2900000000	3.2998047372
1.2950000000	3.6211586656
1.3000000000	4.0943951006
1.3050000000	4.7675877601
1.3100000000	5.7276824440
1.3150000000	7.1244774042
1.3200000000	9.2261652215
1.3250000000	12.5449085132
1.3300000000	18.1985635556
1.3350000000	28.7826246557
1.3400000000	51.4022003453
1.3450000000	107.5681122644
1.3500000000	228.5130136855
1.3550000000	213.2599424409
1.3600000000	98.3819170573
1.3650000000	48.3457787411
1.3700000000	27.7256875153
1.3750000000	17.8284362806
1.3800000000	12.4317173661
1.3850000000	9.1813313267
1.3900000000	7.0875236228
1.3950000000	5.6599128797
1.4000000000	4.6461490129
1.4050000000	3.9038194732
1.4100000000	3.3475273816
1.4150000000	2.9277815454
1.4200000000	2.6121611842
1.4250000000	2.4008267342
1.4300000000	2.3235982054
1.4350000000	2.3670342818
1.4400000000	1.8235543755
1.4450000000	0.1584755139
1.4500000000	-2.5443074675
1.4550000000	-0.7129217621
1.4600000000	3.0825973503
1.4650000000	1.6685613377
1.4700000000	-1.5772795672
1.4750000000	-6.9007217981
1.4800000000	-3.0713445743
1.4850000000	5.0474695214
1.4900000000	4.0915074118
1.4950000000	2.6482923782
1.5000000000	1.8607202385
1.5050000000	1.4366446221
1.5100000000	1.1949355711
1.5150000000	1.0481477553
1.5200000000	0.9533270424
1.5250000000	0.8944133707
1.5300000000	0.8494119860
1.5350000000	0.8183947993
1.5400000000	0.7979661301
1.5450000000	0.7863043097
1.5500000000	0.7822332250
1.5550000000	0.7857834574
1.5600000000	0.7990510199
1.5650000000	0.8209618187
1.5700000000	0.8564352358
1.5750000000	0.9114731003
1.5800000000	0.9973444853
1.5850000000	1.1359852355
1.5900000000	1.3736108670
1.5950000000	1.8124931518
1.6000000000	2.6686617490
1.6050000000	4.0843171385
1.6100000000	4.7399617010
1.6150000000	3.5109014536
1.6200000000	2.3578878047
1.6250000000	1.7492459025
1.6300000000	1.4436368344
1.6350000000	1.2862887072
1.6400000000	1.2065237171
1.6450000000	1.1714920357
1.6500000000	1.1647431918
1.6550000000	1.1785708411
1.6600000000	1.2083752620
1.6650000000	1.2520556218
1.6700000000	1.3088126091
1.6750000000	1.3786498733
1.6800000000	1.4621907717
1.6850000000	1.5604026745
1.6900000000	1.6741398861
1.6950000000	1.8017816914
1.7000000000	1.9411768857
1.7050000000	2.0839975501
1.7100000000	2.2469465952
1.7150000000	2.6522096564
1.7200000000	3.3633861049
1.7250000000	4.0148243187
1.7300000000	4.7138210918
1.7350000000	5.4819009044
1.7400000000	6.2356599482
1.7450000000	7.2038521434
1.7500000000	8.6679611597
1.7550000000	10.8471036233
1.7600000000	14.1074874663
1.7650000000	19.1333894298
1.7700000000	27.2292363031
1.7750000000	40.8686424230
1.7800000000	64.1099472526
1.7850000000	98.3855046059
1.7900000000	122.2670027075
1.7950000000	104.1129192828
1.8000000000	69.2902088024
1.8050000000	43.7584642865
1.8100000000	28.8510850656
1.8150000000	20.1132767295
1.8200000000	14.7359087425
1.8250000000	11.2497439585
1.8300000000	8.8827609673
1.8350000000	7.2120491372
1.8400000000	5.9948611603
1.8450000000	5.0839420615
1.8500000000	4.3864888615
1.8550000000	3.8444326734
1.8600000000	3.4172657486
1.8650000000	3.0774588737
1.8700000000	2.8054334763
1.8750000000	2.5868170024
1.8800000000	2.4102104212
1.8850000000	2.2655433408
1.8900000000	2.1412136451
1.8950000000	2.0199088909
1.9000000000	1.8717326409
1.9050000000	1.5911564349
1.9100000000	1.2050570406
1.9150000000	1.0010497000
1.9200000000	2.4455544642
1.9250000000	6.4363409025
1.9300000000	9.6012777927
1.9350000000	9.4533499280
1.9400000000	7.4351549322
1.9450000000	5.4784878939
1.9500000000	4.1046961487
1.9550000000	3.2045535457
1.9600000000	2.6097162002
1.9650000000	2.2115800245
1.9700000000	1.9241629612
1.9750000000	1.7134754743
1.9800000000	1.5526232710
1.9850000000	1.4220937314
1.9900000000	1.3069555322
1.9950000000	1.1941770401
2.0000000000	1.0818587754
2.0050000000	1.0100985921
2.0100000000	1.0512087312
2.0150000000	1.1644617564
2.0200000000	1.2342884824
2.0250000000	1.2528291481
2.0300000000	1.2569921478
2.0350000000	1.2645730160
2.0400000000	1.2821823509
2.0450000000	1.3115040908
2.0500000000	1.3536295199
2.0550000000	1.4095492936
2.0600000000	1.4792640814
2.0650000000	1.5585548307
2.0700000000	1.6369584464
2.0750000000	1.7066349338
2.0800000000	1.7745060196
2.0850000000	1.8548841161
2.0900000000	1.9573647285
2.0950000000	2.0859906898
2.1000000000	2.2451139596
2.1050000000	2.4332955264
2.1100000000	2.6637610674
2.1150000000	2.9461791826
2.1200000000	3.2941084733
2.1250000000	3.7265666525
2.1300000000	4.2703608640
2.1350000000	4.9637632554
2.1400000000	5.8620376075
2.1450000000	7.0459798740
2.1500000000	8.6333127961
2.1550000000	10.7906463933
2.1600000000	13.7312154271
2.1650000000	17.6356039395
2.1700000000	22.4315702985
2.1750000000	27.1997542840
2.1800000000	30.1458563427
2.1850000000	30.2988416801
2.1900000000	28.9591488931
2.1950000000	27.9165762900
2.2000000000	27.4541872802
2.2050000000	26.1701996764
2.2100000000	23.4443800616
2.2150000000	20.0930517679
2.2200000000	17.0845643859
2.2250000000	14.5981170677
2.2300000000	12.4085519686
2.2350000000	10.4287548431
2.2400000000	8.7281416644
2.2450000000	7.3674193858
2.2500000000	6.3243182221
2.2550000000	5.5407500649
2.2600000000	4.9540844868
2.2650000000	4.5015547103
2.2700000000	4.1153021671
2.2750000000	3.7284644295
2.2800000000	3.3119528653
2.2850000000	2.9155795391
2.2900000000	2.6416358380
2.2950000000	2.5480333600
2.3000000000	2.5814332741
2.3050000000	2.6324646552
2.3100000000	2.6367329317
2.3150000000	2.5947591462
2.3200000000	2.5344180567
2.3250000000	2.4845013166
2.3300000000	2.4597402880
2.3350000000	2.4626637841
2.3400000000	2.4850156265
2.3450000000	2.5081122773
2.3500000000	2.5084278454
2.3550000000	2.4709529583
2.3600000000	2.3999353344
2.3650000000	2.3139365826
2.3700000000	2.2320895887
2.3750000000	2.1658218279
2.3800000000	2.1188461738
2.3850000000	2.0901140480
2.3900000000	2.0772326290
2.3950000000	2.0774296146
2.4000000000	2.0914596020
2.4050000000	2.1239432684
2.4100000000	2.1764284885
2.4150000000	2.2510584552
2.4200000000	2.3491210821
2.4250000000	2.4728719350
2.4300000000	2.6256011819
2.4350000000	2.8117225065
2.4400000000	3.0369314168
2.4450000000	3.3085001365
2.4500000000	3.6356035860
2.4550000000	4.0297737753
2.4600000000	4.5051792070
2.4650000000	5.0788191699
2.4700000000	5.7701899879
2.4750000000	6.5988205933
2.4800000000	7.5848792995
2.4850000000	8.7363491431
2.4900000000	10.0419742558
2.4950000000	11.4550317353
2.5000000000	12.8767137041
2.5050000000	14.2066449833
2.5100000000	15.1051313499
2.5150000000	15.3762425203
2.5200000000	14.9732739263
2.5250000000	14.0206152733
2.5300000000	12.7349940060
2.5350000000	11.3254480679
2.5400000000	9.9396688996
2.5450000000	8.6611084603
2.5500000000	7.5268791334
2.5550000000	6.5454306835
2.5600000000	5.7032692894
2.5650000000	4.9952264386
2.5700000000	4.4046307712
2.5750000000	3.9210456316
2.5800000000	3.5366753457
2.5850000000	3.2430462912
2.5900000000	3.0262225132
2.5950000000	2.8666117626
2.6000000000	2.7438143753
2.6050000000	2.6565442683
2.6100000000	2.5809812043
2.6150000000	2.5159273225
2.6200000000	2.4626675726
2.6250000000	2.4226257640
2.6300000000	2.3967527141
2.6350000000	2.3855335811
2.6400000000	2.3892502338
2.6450000000	2.4081648255
2.6500000000	2.4427906252
2.6550000000	2.4932714574
2.6600000000	2.5603819174
2.6650000000	2.6449045791
2.6700000000	2.7478007874
2.6750000000	2.8702354145
2.6800000000	3.0134995664
2.6850000000	3.1789138742
2.6900000000	3.3675599294
2.6950000000	3.5800647723
2.7000000000	3.8162126691
2.7050000000	4.1028608965
2.7100000000	4.4156937688
2.7150000000	4.7486177409
2.7200000000	5.0927708245
2.7250000000	5.4370210479
2.7300000000	5.7688088979
2.7350000000	6.0748716765
2.7400000000	6.3414180351
2.7450000000	6.5562076872
2.7500000000	6.7002525931
2.7550000000	6.7620590022
2.7600000000	6.7329055162
2.7650000000	6.6117789473
2.7700000000	6.4067957518
2.7750000000	6.1342166902
2.7800000000	5.8152363397
2.7850000000	5.4723392011
2.7900000000	5.1256994725
2.7950000000	4.7914950020
2.8000000000	4.4811651298
2.8050000000	4.1671849475
2.8100000000	3.8984603889
2.8150000000	3.6742707249
2.8200000000	3.4910070631
2.8250000000	3.3439129689
2.8300000000	3.2281971102
2.8350000000	3.1397589100
2.8400000000	3.0742817908
2.8450000000	3.0319159220
2.8500000000	3.0095242490
2.8550000000	3.0059114221
2.8600000000	3.0201848168
2.8650000000	3.0515402389
2.8700000000	3.0990780332
2.8750000000	3.1616566909
2.8800000000	3.2377797142
2.8850000000	3.3255008649
2.8900000000	3.4224805996
2.8950000000	3.5260730597
2.9000000000	3.6334958977
2.9050000000	3.7625791242
2.9100000000	3.8864061956
2.9150000000	4.0010826181
2.9200000000	4.1025214340
2.9250000000	4.1860856130
2.9300000000	4.2475054229
2.9350000000	4.2801400739
2.9400000000	4.2811236591
2.9450000000	4.2492355369
2.9500000000	4.1863154078
2.9550000000	4.0971449700
2.9600000000	3.9886258782
2.9650000000	3.8685782317
2.9700000000	3.7445639078
2.9750000000	3.6230452798
2.9800000000	3.5089740162
2.9850000000	3.4057284689
2.9900000000	3.3153405660
2.9950000000	3.2387640623
3.0000000000	3.1761995760
