# energy (eV)    P(omega), $W$ = 300 nm, $h$ = 300 nm, $s$ = 20 nm, $d/W = 5$, $E_{\rm e}$ = 200 keV
0.2000000000	0.0631563360
0.2050000000	0.0641029087
0.2100000000	0.0649881480
0.2150000000	0.0658140508
0.2200000000	0.0665823138
0.2250000000	0.0672943812
0.2300000000	0.0679513525
0.2350000000	0.0685539564
0.2400000000	0.0691024613
0.2450000000	0.0695966526
0.2500000000	0.0700357109
0.2550000000	0.0704180803
0.2600000000	0.0707414310
0.2650000000	0.0710023788
0.2700000000	0.0711963440
0.2750000000	0.0713172577
0.2800000000	0.0713572440
0.2850000000	0.0713061800
0.2900000000	0.0711510969
0.2950000000	0.0708755439
0.3000000000	0.0704585040
0.3050000000	0.0698731977
0.3100000000	0.0690853394
0.3150000000	0.0730100345
0.3200000000	0.0776711006
0.3250000000	0.0835662596
0.3300000000	0.0914608977
0.3350000000	0.1012877684
0.3400000000	0.1141561879
0.3450000000	0.1297647096
0.3500000000	0.1501833076
0.3550000000	0.1772007491
0.3600000000	0.2124773295
0.3650000000	0.2616565003
0.3700000000	0.3265030445
0.3750000000	0.4167071281
0.3800000000	0.5471680880
0.3850000000	0.7504515009
0.3900000000	1.0715960008
0.3950000000	1.6171014402
0.4000000000	2.6570354736
0.4050000000	4.9885610508
0.4100000000	11.3504808038
0.4150000000	36.4270916337
0.4200000000	23.2093209384
0.4250000000	-43.6882703199
0.4300000000	12.1489303044
0.4350000000	7.5708586354
0.4400000000	4.6281645261
0.4450000000	3.0441281534
0.4500000000	2.1322288901
0.4550000000	1.5710469300
0.4600000000	1.2055494240
0.4650000000	0.9564818023
0.4700000000	0.7804436108
0.4750000000	0.6531278877
0.4800000000	0.5587331741
0.4850000000	0.4877032385
0.4900000000	0.4334840401
0.4950000000	0.3916758190
0.5000000000	0.3592712023
0.5050000000	0.3340636742
0.5100000000	0.3146324070
0.5150000000	0.2999314129
0.5200000000	0.2888673249
0.5250000000	0.2809475384
0.5300000000	0.2756432869
0.5350000000	0.2725678930
0.5400000000	0.2714362868
0.5450000000	0.2720103076
0.5500000000	0.2742146731
0.5550000000	0.2779151483
0.5600000000	0.2830431881
0.5650000000	0.2895680318
0.5700000000	0.2974616862
0.5750000000	0.3067793233
0.5800000000	0.3176106163
0.5850000000	0.3300141190
0.5900000000	0.3441032057
0.5950000000	0.3600204929
0.6000000000	0.3779476549
0.6050000000	0.3981479488
0.6100000000	0.4208725910
0.6150000000	0.4464647578
0.6200000000	0.4753822146
0.6250000000	0.5080638716
0.6300000000	0.5451584453
0.6350000000	0.5874744689
0.6400000000	0.6358532496
0.6450000000	0.6915091243
0.6500000000	0.7560387450
0.6550000000	0.8311042241
0.6600000000	0.9192600392
0.6650000000	1.0237840486
0.6700000000	1.1485297268
0.6750000000	1.2993735259
0.6800000000	1.4842176991
0.6850000000	1.7134145809
0.6900000000	2.0029978670
0.6950000000	2.3753922853
0.7000000000	2.8662192087
0.7050000000	3.5299350614
0.7100000000	4.4588096705
0.7150000000	5.8170944256
0.7200000000	7.9105765075
0.7250000000	11.3856463833
0.7300000000	17.7642274639
0.7350000000	31.4126617247
0.7400000000	68.8442089551
0.7450000000	228.3932904593
0.7500000000	707.5755993786
0.7550000000	178.0089818536
0.7600000000	58.9534506604
0.7650000000	28.2476067334
0.7700000000	16.4280712440
0.7750000000	10.7223141822
0.7800000000	7.5458674537
0.7850000000	5.6044102662
0.7900000000	4.3299336194
0.7950000000	3.4509485991
0.8000000000	2.8190732620
0.8050000000	2.3484633959
0.8100000000	1.9895943489
0.8150000000	1.7051104400
0.8200000000	1.4805863458
0.8250000000	1.2998008459
0.8300000000	1.1517081986
0.8350000000	1.0299479932
0.8400000000	0.9278767867
0.8450000000	0.8422254475
0.8500000000	0.7698251830
0.8550000000	0.7073463884
0.8600000000	0.6540102649
0.8650000000	0.6084523338
0.8700000000	0.5681979280
0.8750000000	0.5339561615
0.8800000000	0.5049017698
0.8850000000	0.4788528591
0.8900000000	0.4579583957
0.8950000000	0.4389508394
0.9000000000	0.4238880255
0.9050000000	0.4135171502
0.9100000000	0.4040134424
0.9150000000	0.3982524920
0.9200000000	0.3975682313
0.9250000000	0.3970629684
0.9300000000	0.3912464671
0.9350000000	0.3737722275
0.9400000000	0.2763849441
0.9450000000	-0.1663033767
0.9500000000	-2.5026200633
0.9550000000	-14.3530181376
0.9600000000	3.3868235438
0.9650000000	5.9495781500
0.9700000000	2.6388866374
0.9750000000	1.3853532498
0.9800000000	0.8682151267
0.9850000000	0.6263470455
0.9900000000	0.4869866143
0.9950000000	0.4024814000
1.0000000000	0.3485245754
1.0050000000	0.3143177858
1.0100000000	0.2877985708
1.0150000000	0.2684245594
1.0200000000	0.2553754683
1.0250000000	0.2444222109
1.0300000000	0.2361010460
1.0350000000	0.2298059058
1.0400000000	0.2258037025
1.0450000000	0.2224752915
1.0500000000	0.2202791966
1.0550000000	0.2190854227
1.0600000000	0.2191878928
1.0650000000	0.2197685415
1.0700000000	0.2211608534
1.0750000000	0.2233706431
1.0800000000	0.2266166980
1.0850000000	0.2307359665
1.0900000000	0.2368129392
1.0950000000	0.2440298263
1.1000000000	0.2526289305
1.1050000000	0.2625392628
1.1100000000	0.2740740773
1.1150000000	0.2874926690
1.1200000000	0.3031026745
1.1250000000	0.3213052585
1.1300000000	0.3426388849
1.1350000000	0.3677735068
1.1400000000	0.3974722916
1.1450000000	0.4331275668
1.1500000000	0.4762540785
1.1550000000	0.5290413165
1.1600000000	0.5945782703
1.1650000000	0.6768733601
1.1700000000	0.7834343290
1.1750000000	0.9242290026
1.1800000000	1.1157350973
1.1850000000	1.3850383278
1.1900000000	1.7831867400
1.1950000000	2.4081937021
1.2000000000	3.4682900116
1.2050000000	5.4715916835
1.2100000000	9.8784727709
1.2150000000	21.7903561984
1.2200000000	53.4782320871
1.2250000000	48.0482387562
1.2300000000	19.1672079955
1.2350000000	8.9904895492
1.2400000000	5.1357904753
1.2450000000	3.3659390063
1.2500000000	2.4323148335
1.2550000000	1.8935555976
1.2600000000	1.5657818902
1.2650000000	1.3605466396
1.2700000000	1.2382700399
1.2750000000	1.1732901088
1.2800000000	1.1534003983
1.2850000000	1.1732810159
1.2900000000	1.2325262563
1.2950000000	1.3342228831
1.3000000000	1.4909114803
1.3050000000	1.7186764746
1.3100000000	2.0474895016
1.3150000000	2.5292046296
1.3200000000	3.2570355960
1.3250000000	4.4086497839
1.3300000000	6.3731401216
1.3350000000	10.0526343757
1.3400000000	17.9167791392
1.3450000000	37.4397359838
1.3500000000	79.4575431068
1.3550000000	74.1064469610
1.3600000000	34.1742522689
1.3650000000	16.7910897019
1.3700000000	9.6294836688
1.3750000000	6.1926128404
1.3800000000	4.3186411402
1.3850000000	3.1897818147
1.3900000000	2.4622222721
1.3950000000	1.9658339968
1.4000000000	1.6127502620
1.4050000000	1.3534280148
1.4100000000	1.1578654108
1.4150000000	1.0081455317
1.4200000000	0.8916381384
1.4250000000	0.8050216736
1.4300000000	0.7501142388
1.4350000000	0.7141515235
1.4400000000	0.4917010918
1.4450000000	-0.1250071239
1.4500000000	-1.1974305944
1.4550000000	-0.3995501861
1.4600000000	1.2199285303
1.4650000000	0.7061658391
1.4700000000	-0.4529701667
1.4750000000	-2.2875113672
1.4800000000	-1.0093800287
1.4850000000	1.7283083700
1.4900000000	1.3991202296
1.4950000000	0.9076842971
1.5000000000	0.6390098506
1.5050000000	0.4935661302
1.5100000000	0.4103093569
1.5150000000	0.3592626280
1.5200000000	0.3258265343
1.5250000000	0.3046012614
1.5300000000	0.2878734918
1.5350000000	0.2757184951
1.5400000000	0.2669089382
1.5450000000	0.2607126446
1.5500000000	0.2566226291
1.5550000000	0.2544268697
1.5600000000	0.2545588013
1.5650000000	0.2561355871
1.5700000000	0.2600905329
1.5750000000	0.2671520495
1.5800000000	0.2787726632
1.5850000000	0.2978135398
1.5900000000	0.3303285966
1.5950000000	0.3897025992
1.6000000000	0.5041482292
1.6050000000	0.6919975351
1.6100000000	0.7796935656
1.6150000000	0.6215523622
1.6200000000	0.4748923016
1.6250000000	0.4003923086
1.6300000000	0.3662675694
1.6350000000	0.3522866066
1.6400000000	0.3492853704
1.6450000000	0.3530731135
1.6500000000	0.3616105434
1.6550000000	0.3740635913
1.6600000000	0.3900079135
1.6650000000	0.4093900071
1.6700000000	0.4323734157
1.6750000000	0.4592910519
1.6800000000	0.4906280268
1.6850000000	0.5270314536
1.6900000000	0.5692523093
1.6950000000	0.6177254752
1.7000000000	0.6735178250
1.7050000000	0.7380596391
1.7100000000	0.8162881951
1.7150000000	0.9478565713
1.7200000000	1.1466023810
1.7250000000	1.3613199344
1.7300000000	1.6165677054
1.7350000000	1.8927659224
1.7400000000	2.1478424840
1.7450000000	2.4693453181
1.7500000000	2.9621424788
1.7550000000	3.7012437965
1.7600000000	4.8101145048
1.7650000000	6.5208148419
1.7700000000	9.2765676192
1.7750000000	13.9180863934
1.7800000000	21.8234482690
1.7850000000	33.4730040148
1.7900000000	41.5708196990
1.7950000000	35.3705088052
1.8000000000	23.5176368795
1.8050000000	14.8348255909
1.8100000000	9.7674817874
1.8150000000	6.7981034725
1.8200000000	4.9708377924
1.8250000000	3.7860015602
1.8300000000	2.9810982906
1.8350000000	2.4123512833
1.8400000000	1.9972369993
1.8450000000	1.6856328261
1.8500000000	1.4459172486
1.8550000000	1.2582641966
1.8600000000	1.1087294672
1.8650000000	0.9877283970
1.8700000000	0.8882776468
1.8750000000	0.8050216006
1.8800000000	0.7334026540
1.8850000000	0.6689784713
1.8900000000	0.6062524036
1.8950000000	0.5368977287
1.9000000000	0.4468047479
1.9050000000	0.2899201353
1.9100000000	0.0646467152
1.9150000000	-0.1520216759
1.9200000000	0.1112493703
1.9250000000	1.1620891406
1.9300000000	2.0015271369
1.9350000000	2.0200794952
1.9400000000	1.6214651133
1.9450000000	1.2287492705
1.9500000000	0.9504154279
1.9550000000	0.7663179071
1.9600000000	0.6436421387
1.9650000000	0.5618970845
1.9700000000	0.5017275547
1.9750000000	0.4576064996
1.9800000000	0.4241183749
1.9850000000	0.3973794465
1.9900000000	0.3744983443
1.9950000000	0.3530239053
2.0000000000	0.3325160105
2.0050000000	0.3203181695
2.0100000000	0.3285140095
2.0150000000	0.3498892782
2.0200000000	0.3643242951
2.0250000000	0.3705866469
2.0300000000	0.3753516973
2.0350000000	0.3817082219
2.0400000000	0.3911561505
2.0450000000	0.4043301994
2.0500000000	0.4218746226
2.0550000000	0.4444300039
2.0600000000	0.4720332942
2.0650000000	0.5024871175
2.0700000000	0.5303209201
2.0750000000	0.5512635950
2.0800000000	0.5684943546
2.0850000000	0.5889197617
2.0900000000	0.6169345127
2.0950000000	0.6540642851
2.1000000000	0.7014815564
2.1050000000	0.7584749979
2.1100000000	0.8290152775
2.1150000000	0.9159493917
2.1200000000	1.0233704286
2.1250000000	1.1570859944
2.1300000000	1.3253240636
2.1350000000	1.5398571926
2.1400000000	1.8176876981
2.1450000000	2.1836675735
2.1500000000	2.6739880404
2.1550000000	3.3398373070
2.1600000000	4.2467084649
2.1650000000	5.4501061330
2.1700000000	6.9288793225
2.1750000000	8.4034605848
2.1800000000	9.3295244290
2.1850000000	9.4163018342
2.1900000000	9.0646576771
2.1950000000	8.8151623014
2.2000000000	8.7280110183
2.2050000000	8.3180420884
2.2100000000	7.3776336592
2.2150000000	6.1943946204
2.2200000000	5.1181878632
2.2250000000	4.2460788801
2.2300000000	3.5299599508
2.2350000000	2.9304761804
2.2400000000	2.4381744359
2.2450000000	2.0494189002
2.2500000000	1.7481583939
2.2550000000	1.5150152012
2.2600000000	1.3320437874
2.2650000000	1.1830635647
2.2700000000	1.0527536967
2.2750000000	0.9281612113
2.2800000000	0.8062688606
2.2850000000	0.7019554942
2.2900000000	0.6405766823
2.2950000000	0.6335066271
2.3000000000	0.6611885271
2.3050000000	0.6903717208
2.3100000000	0.7006727244
2.3150000000	0.6927301470
2.3200000000	0.6753557250
2.3250000000	0.6576065262
2.3300000000	0.6442909441
2.3350000000	0.6368120188
2.3400000000	0.6341127354
2.3450000000	0.6331189180
2.3500000000	0.6298710936
2.3550000000	0.6218398104
2.3600000000	0.6097248603
2.3650000000	0.5966116401
2.3700000000	0.5856362748
2.3750000000	0.5785421410
2.3800000000	0.5756097706
2.3850000000	0.5761399821
2.3900000000	0.5792395100
2.3950000000	0.5840518724
2.4000000000	0.5910033646
2.4050000000	0.6019054085
2.4100000000	0.6175265272
2.4150000000	0.6389292088
2.4200000000	0.6668465633
2.4250000000	0.7020648150
2.4300000000	0.7455491941
2.4350000000	0.7985372299
2.4400000000	0.8626214023
2.4450000000	0.9398435609
2.4500000000	1.0327914961
2.4550000000	1.1447306275
2.4600000000	1.2796754327
2.4650000000	1.4424661871
2.4700000000	1.6386717735
2.4750000000	1.8739076864
2.4800000000	2.1540987832
2.4850000000	2.4817048741
2.4900000000	2.8536543370
2.4950000000	3.2563773282
2.5000000000	3.6605825095
2.5050000000	4.0352083463
2.5100000000	4.2808500238
2.5150000000	4.3417466417
2.5200000000	4.2085745826
2.5250000000	3.9226341799
2.5300000000	3.5495550132
2.5350000000	3.1488798489
2.5400000000	2.7599062880
2.5450000000	2.4031423896
2.5500000000	2.0868472204
2.5550000000	1.8124395859
2.5600000000	1.5760053595
2.5650000000	1.3766836376
2.5700000000	1.2102421398
2.5750000000	1.0741237767
2.5800000000	0.9663739120
2.5850000000	0.8846858626
2.5900000000	0.8250263813
2.5950000000	0.7816066140
2.6000000000	0.7483751801
2.6050000000	0.7246624879
2.6100000000	0.7036389725
2.6150000000	0.6850227384
2.6200000000	0.6692509037
2.6250000000	0.6567717593
2.6300000000	0.6478728749
2.6350000000	0.6426923014
2.6400000000	0.6413025419
2.6450000000	0.6437771852
2.6500000000	0.6502674594
2.6550000000	0.6608070300
2.6600000000	0.6756271648
2.6650000000	0.6949479130
2.6700000000	0.7190283380
2.6750000000	0.7481715260
2.6800000000	0.7827015730
2.6850000000	0.8229498182
2.6900000000	0.8692094389
2.6950000000	0.9217048013
2.7000000000	0.9805180577
2.7050000000	1.0525305025
2.7100000000	1.1322664028
2.7150000000	1.2187523715
2.7200000000	1.3103528953
2.7250000000	1.4047425495
2.7300000000	1.4989116301
2.7350000000	1.5891768425
2.7400000000	1.6711570189
2.7450000000	1.7404806552
2.7500000000	1.7906558425
2.7550000000	1.8173854021
2.7600000000	1.8174241212
2.7650000000	1.7900571176
2.7700000000	1.7374639066
2.7750000000	1.6643506736
2.7800000000	1.5769289414
2.7850000000	1.4818055167
2.7900000000	1.3848994342
2.7950000000	1.2909551875
2.8000000000	1.2033299394
2.8050000000	1.1143242614
2.8100000000	1.0377051914
2.8150000000	0.9733014523
2.8200000000	0.9201071582
2.8250000000	0.8767848547
2.8300000000	0.8419855011
2.8350000000	0.8145609069
2.8400000000	0.7932894697
2.8450000000	0.7782458116
2.8500000000	0.7685323380
2.8550000000	0.7638097869
2.8600000000	0.7638279573
2.8650000000	0.7683742456
2.8700000000	0.7772417004
2.8750000000	0.7901938400
2.8800000000	0.8069415660
2.8850000000	0.8271188175
2.8900000000	0.8502889785
2.8950000000	0.8759339307
2.9000000000	0.9034845389
2.9050000000	0.9383212713
2.9100000000	0.9731368052
2.9150000000	1.0066881571
2.9200000000	1.0375486245
2.9250000000	1.0640715721
2.9300000000	1.0847234694
2.9350000000	1.0973527084
2.9400000000	1.1009344661
2.9450000000	1.0949678282
2.9500000000	1.0798617539
2.9550000000	1.0569012045
2.9600000000	1.0279969924
2.9650000000	0.9953489306
2.9700000000	0.9611091796
2.9750000000	0.9271331087
2.9800000000	0.8948555272
2.9850000000	0.8652680507
2.9900000000	0.8389819047
2.9950000000	0.8162931954
3.0000000000	0.7972879064
