# energy (eV)    P(omega), $W$ = 300 nm, $h$ = 300 nm, $s$ = 20 nm, $d/W = 5$, $E_{\rm e}$ = 200 keV
0.2000000000	0.1080169893
0.2050000000	0.1096366853
0.2100000000	0.1111522221
0.2150000000	0.1125669829
0.2200000000	0.1138838179
0.2250000000	0.1151051643
0.2300000000	0.1162328631
0.2350000000	0.1172681356
0.2400000000	0.1182114052
0.2450000000	0.1190622845
0.2500000000	0.1198193443
0.2550000000	0.1204799040
0.2600000000	0.1210399655
0.2650000000	0.1214937237
0.2700000000	0.1218333352
0.2750000000	0.1220484102
0.2800000000	0.1221254716
0.2850000000	0.1220472091
0.2900000000	0.1217914390
0.2950000000	0.1213300359
0.3000000000	0.1206270609
0.3050000000	0.1196367263
0.3100000000	0.1183004078
0.3150000000	0.1250102561
0.3200000000	0.1329789828
0.3250000000	0.1430569172
0.3300000000	0.1565519380
0.3350000000	0.1733501954
0.3400000000	0.1953476617
0.3450000000	0.2220308211
0.3500000000	0.2569378780
0.3550000000	0.3031277609
0.3600000000	0.3634409484
0.3650000000	0.4475267760
0.3700000000	0.5584082872
0.3750000000	0.7126574140
0.3800000000	0.9357577330
0.3850000000	1.2834071790
0.3900000000	1.8326501119
0.3950000000	2.7656617528
0.4000000000	4.5444151700
0.4050000000	8.5325688081
0.4100000000	19.4154403240
0.4150000000	62.3145228101
0.4200000000	39.7027341320
0.4250000000	-74.7476293046
0.4300000000	20.7885522549
0.4350000000	12.9559828464
0.4400000000	7.9209445315
0.4450000000	5.2104649256
0.4500000000	3.6500178303
0.4550000000	2.6896764141
0.4600000000	2.0641807439
0.4650000000	1.6379210674
0.4700000000	1.3366357801
0.4750000000	1.1187324910
0.4800000000	0.9571716860
0.4850000000	0.8356005926
0.4900000000	0.7428033067
0.4950000000	0.6712503392
0.5000000000	0.6157950920
0.5050000000	0.5726612752
0.5100000000	0.5394174070
0.5150000000	0.5142737016
0.5200000000	0.4953584433
0.5250000000	0.4818290262
0.5300000000	0.4727803827
0.5350000000	0.4675508963
0.5400000000	0.4656528407
0.5450000000	0.4666786659
0.5500000000	0.4705001403
0.5550000000	0.4768877043
0.5600000000	0.4857244906
0.5650000000	0.4969582815
0.5700000000	0.5105417512
0.5750000000	0.5265699927
0.5800000000	0.5451974660
0.5850000000	0.5665252867
0.5900000000	0.5907486057
0.5950000000	0.6181127675
0.6000000000	0.6489303284
0.6050000000	0.6836537544
0.6100000000	0.7227151605
0.6150000000	0.7667045478
0.6200000000	0.8164088581
0.6250000000	0.8725827241
0.6300000000	0.9363413282
0.6350000000	1.0090745903
0.6400000000	1.0922289313
0.6450000000	1.1878918155
0.6500000000	1.2988080416
0.6550000000	1.4278351601
0.6600000000	1.5793643428
0.6650000000	1.7590310698
0.6700000000	1.9734599595
0.6750000000	2.2327541314
0.6800000000	2.5504982522
0.6850000000	2.9444907690
0.6900000000	3.4422971329
0.6950000000	4.0824717680
0.7000000000	4.9262567713
0.7050000000	6.0672790938
0.7100000000	7.6641790723
0.7150000000	9.9993581868
0.7200000000	13.5985712175
0.7250000000	19.5732003347
0.7300000000	30.5400183192
0.7350000000	54.0065487153
0.7400000000	118.3661839112
0.7450000000	392.7009914753
0.7500000000	1216.6615747909
0.7550000000	306.0955488853
0.7600000000	101.3776878428
0.7650000000	48.5772256935
0.7700000000	28.2524075245
0.7750000000	18.4405995747
0.7800000000	12.9781639830
0.7850000000	9.6394321793
0.7900000000	7.4476643422
0.7950000000	5.9360092181
0.8000000000	4.8493052173
0.8050000000	4.0399312265
0.8100000000	3.4227217374
0.8150000000	2.9334338612
0.8200000000	2.5472654658
0.8250000000	2.2363191233
0.8300000000	1.9815994105
0.8350000000	1.7721685931
0.8400000000	1.5966005078
0.8450000000	1.4492738509
0.8500000000	1.3247390670
0.8550000000	1.2172683655
0.8600000000	1.1255237535
0.8650000000	1.0471588766
0.8700000000	0.9779157041
0.8750000000	0.9190162625
0.8800000000	0.8690412505
0.8850000000	0.8242356319
0.8900000000	0.7882998483
0.8950000000	0.7556092207
0.9000000000	0.7297074776
0.9050000000	0.7118821378
0.9100000000	0.6955479176
0.9150000000	0.6856569343
0.9200000000	0.6845071498
0.9250000000	0.6836641824
0.9300000000	0.6736707990
0.9350000000	0.6435917443
0.9400000000	0.4758463742
0.9450000000	-0.2867658732
0.9500000000	-4.3117114096
0.9550000000	-24.7279999714
0.9600000000	5.8350245289
0.9650000000	10.2507280630
0.9700000000	4.5467068738
0.9750000000	2.3869179079
0.9800000000	1.4958901879
0.9850000000	1.0791477945
0.9900000000	0.8390234841
0.9950000000	0.6934158719
1.0000000000	0.6004449286
1.0050000000	0.5415060573
1.0100000000	0.4958115906
1.0150000000	0.4624287189
1.0200000000	0.4399452241
1.0250000000	0.4210715548
1.0300000000	0.4067328613
1.0350000000	0.3958846775
1.0400000000	0.3889878166
1.0450000000	0.3832505313
1.0500000000	0.3794636438
1.0550000000	0.3774031293
1.0600000000	0.3775759971
1.0650000000	0.3785711744
1.0700000000	0.3809637811
1.0750000000	0.3847639061
1.0800000000	0.3903487398
1.0850000000	0.3974355986
1.0900000000	0.4078918459
1.0950000000	0.4203098651
1.1000000000	0.4351070255
1.1050000000	0.4521594284
1.1100000000	0.4720067034
1.1150000000	0.4950948166
1.1200000000	0.5219535775
1.1250000000	0.5532712685
1.1300000000	0.5899747611
1.1350000000	0.6332162229
1.1400000000	0.6843088281
1.1450000000	0.7456454615
1.1500000000	0.8198318514
1.1550000000	0.9106332660
1.1600000000	1.0233619213
1.1650000000	1.1649120634
1.1700000000	1.3481928880
1.1750000000	1.5903472253
1.1800000000	1.9197113885
1.1850000000	2.3828657968
1.1900000000	3.0676019458
1.1950000000	4.1424736088
1.2000000000	5.9655906833
1.2050000000	9.4108038633
1.2100000000	16.9896737934
1.2150000000	37.4758757097
1.2200000000	91.9748231862
1.2250000000	82.6398221548
1.2300000000	32.9692717577
1.2350000000	15.4665739499
1.2400000000	8.8369435730
1.2450000000	5.7930936398
1.2500000000	4.1875399350
1.2550000000	3.2611875050
1.2600000000	2.6977859478
1.2650000000	2.3452202635
1.2700000000	2.1354409414
1.2750000000	2.0243283586
1.2800000000	1.9909212030
1.2850000000	2.0261130427
1.2900000000	2.1292712446
1.2950000000	2.3057851257
1.3000000000	2.5773800891
1.3050000000	2.9719263758
1.3100000000	3.5413150303
1.3150000000	4.3753123529
1.3200000000	5.6352668247
1.3250000000	7.6287213411
1.3300000000	11.0291472839
1.3350000000	17.3980634955
1.3400000000	31.0102577152
1.3450000000	64.8031090141
1.3500000000	137.5340033153
1.3550000000	128.2739059757
1.3600000000	59.1541596868
1.3650000000	29.0647108841
1.3700000000	16.6682003612
1.3750000000	10.7190590803
1.3800000000	7.4752500650
1.3850000000	5.5212190511
1.3900000000	4.2618396988
1.3950000000	3.4026166658
1.4000000000	2.7914633725
1.4050000000	2.3426224508
1.4100000000	2.0041721105
1.4150000000	1.7451188350
1.4200000000	1.5436369062
1.4250000000	1.3940667805
1.4300000000	1.2997903979
1.4350000000	1.2389566352
1.4400000000	0.8551510730
1.4450000000	-0.2102853708
1.4500000000	-2.0610715739
1.4550000000	-0.6861174592
1.4600000000	2.1055792041
1.4650000000	1.2172434300
1.4700000000	-0.7878662212
1.4750000000	-3.9638019145
1.4800000000	-1.7495908036
1.4850000000	2.9921257304
1.4900000000	2.4222255882
1.4950000000	1.5712225076
1.5000000000	1.1059742975
1.5050000000	0.8541283762
1.5100000000	0.7099611201
1.5150000000	0.6215674148
1.5200000000	0.5636643729
1.5250000000	0.5268979315
1.5300000000	0.4979161915
1.5350000000	0.4768452530
1.5400000000	0.4615584101
1.5450000000	0.4507858871
1.5500000000	0.4436457370
1.5550000000	0.4397665035
1.5600000000	0.4398907979
1.5650000000	0.4424795152
1.5700000000	0.4491292605
1.5750000000	0.4610692026
1.5800000000	0.4807564283
1.5850000000	0.5130338781
1.5900000000	0.5681520281
1.5950000000	0.6687783647
1.6000000000	0.8627079536
1.6050000000	1.1810787988
1.6100000000	1.3300516971
1.6150000000	1.0626526440
1.6200000000	0.8145659425
1.6250000000	0.6886798863
1.6300000000	0.6312127433
1.6350000000	0.6079132171
1.6400000000	0.6032662502
1.6450000000	0.6101795960
1.6500000000	0.6252035183
1.6550000000	0.6469382114
1.6600000000	0.6746731866
1.6650000000	0.7083305262
1.6700000000	0.7482026080
1.6750000000	0.7948718712
1.6800000000	0.8491815294
1.6850000000	0.9122550922
1.6900000000	0.9853930496
1.6950000000	1.0693462836
1.7000000000	1.1659589640
1.7050000000	1.2776969912
1.7100000000	1.4131381111
1.7150000000	1.6411376578
1.7200000000	1.9855976025
1.7250000000	2.3574096027
1.7300000000	2.7992320501
1.7350000000	3.2774267072
1.7400000000	3.7193403035
1.7450000000	4.2764253212
1.7500000000	5.1301558235
1.7550000000	6.4104597783
1.7600000000	8.3312295532
1.7650000000	11.2944573669
1.7700000000	16.0679087263
1.7750000000	24.1079106087
1.7800000000	37.8016677735
1.7850000000	57.9815330779
1.7900000000	72.0096847791
1.7950000000	61.2704288068
1.8000000000	40.7390334173
1.8050000000	25.6984593756
1.8100000000	16.9205769801
1.8150000000	11.7768316493
1.8200000000	8.6115035170
1.8250000000	6.5590273585
1.8300000000	5.1646981753
1.8350000000	4.1794598342
1.8400000000	3.4603602122
1.8450000000	2.9205749835
1.8500000000	2.5053273669
1.8550000000	2.1802733572
1.8600000000	1.9212598161
1.8650000000	1.7116847603
1.8700000000	1.5394532477
1.8750000000	1.3952914962
1.8800000000	1.2713094769
1.8850000000	1.1598189123
1.8900000000	1.0513095328
1.8950000000	0.9313738928
1.9000000000	0.7755970111
1.9050000000	0.5042690468
1.9100000000	0.1146990724
1.9150000000	-0.2595681529
1.9200000000	0.1982749195
1.9250000000	2.0212275409
1.9300000000	3.4774325939
1.9350000000	3.5090909552
1.9400000000	2.8162989965
1.9450000000	2.1338248386
1.9500000000	1.6501557582
1.9550000000	1.3302641147
1.9600000000	1.1171123043
1.9650000000	0.9750742326
1.9700000000	0.8705396079
1.9750000000	0.7938872508
1.9800000000	0.7357058066
1.9850000000	0.6892457573
1.9900000000	0.6494811643
1.9950000000	0.6121507066
2.0000000000	0.5764904383
2.0050000000	0.5552705601
2.0100000000	0.5695173935
2.0150000000	0.6066798033
2.0200000000	0.6317556935
2.0250000000	0.6426001698
2.0300000000	0.6508226354
2.0350000000	0.6617952269
2.0400000000	0.6781202603
2.0450000000	0.7008937317
2.0500000000	0.7312254229
2.0550000000	0.7702186223
2.0600000000	0.8179380134
2.0650000000	0.8706008803
2.0700000000	0.9187874610
2.0750000000	0.9551461611
2.0800000000	0.9851597833
2.0850000000	1.0207325616
2.0900000000	1.0694439628
2.0950000000	1.1339321811
2.1000000000	1.2162363488
2.1050000000	1.3151318845
2.1100000000	1.4375079659
2.1150000000	1.5883071372
2.1200000000	1.7746305753
2.1250000000	2.0065534668
2.1300000000	2.2983472717
2.1350000000	2.6704318719
2.1400000000	3.1522967771
2.1450000000	3.7870458181
2.1500000000	4.6374518204
2.1550000000	5.7922986290
2.1600000000	7.3651844005
2.1650000000	9.4523893480
2.1700000000	12.0172468106
2.1750000000	14.5748781975
2.1800000000	16.1811766741
2.1850000000	16.3317517964
2.1900000000	15.7218324693
2.1950000000	15.2890472260
2.2000000000	15.1379504039
2.2050000000	14.4273143825
2.2100000000	12.7970757628
2.2150000000	10.7458916911
2.2200000000	8.8802938036
2.2250000000	7.3683320263
2.2300000000	6.1263738197
2.2350000000	5.0862686101
2.2400000000	4.2319002681
2.2450000000	3.5571651874
2.2500000000	3.0342997219
2.2550000000	2.6296982672
2.2600000000	2.3122168740
2.2650000000	2.0537608378
2.2700000000	1.8277154877
2.2750000000	1.6115640122
2.2800000000	1.4000358339
2.2850000000	1.2189415074
2.2900000000	1.1123010504
2.2950000000	1.0998858049
2.3000000000	1.1477897381
2.3050000000	1.1983239550
2.3100000000	1.2161257166
2.3150000000	1.2022951702
2.3200000000	1.1721150314
2.3250000000	1.1412951373
2.3300000000	1.1181762203
2.3350000000	1.1051897756
2.3400000000	1.1004993359
2.3450000000	1.0987672585
2.3500000000	1.0931196659
2.3550000000	1.0791651885
2.3600000000	1.0581187212
2.3650000000	1.0353369364
2.3700000000	1.0162650522
2.3750000000	1.0039310445
2.3800000000	0.9988243850
2.3850000000	0.9997348665
2.3900000000	1.0051157361
2.3950000000	1.0134825231
2.4000000000	1.0255732803
2.4050000000	1.0445293460
2.4100000000	1.0716790422
2.4150000000	1.1088632013
2.4200000000	1.1573536156
2.4250000000	1.2185146922
2.4300000000	1.2940227890
2.4350000000	1.3860274070
2.4400000000	1.4972939664
2.4450000000	1.6313678413
2.4500000000	1.7927420908
2.4550000000	1.9870874829
2.4600000000	2.2213728596
2.4650000000	2.5040030854
2.4700000000	2.8446447345
2.4750000000	3.2530465836
2.4800000000	3.7394901387
2.4850000000	4.3082403826
2.4900000000	4.9539568007
2.4950000000	5.6530753328
2.5000000000	6.3547477472
2.5050000000	7.0050588134
2.5100000000	7.4314754273
2.5150000000	7.5372144069
2.5200000000	7.3060841233
2.5250000000	6.8097589156
2.5300000000	6.1621500681
2.5350000000	5.4666155209
2.5400000000	4.7913789095
2.5450000000	4.1720485082
2.5500000000	3.6229676110
2.5550000000	3.1466014226
2.5600000000	2.7361556267
2.5650000000	2.3901350375
2.5700000000	2.1011916263
2.5750000000	1.8648862862
2.5800000000	1.6778264434
2.5850000000	1.5360079509
2.5900000000	1.4324299045
2.5950000000	1.3570438169
2.6000000000	1.2993447036
2.6050000000	1.2581712216
2.6100000000	1.2216673922
2.6150000000	1.1893440922
2.6200000000	1.1619605645
2.6250000000	1.1402960301
2.6300000000	1.1248506170
2.6350000000	1.1158652131
2.6400000000	1.1134655324
2.6450000000	1.1177791916
2.6500000000	1.1290684934
2.6550000000	1.1473913689
2.6600000000	1.1731496333
2.6650000000	1.2067258232
2.6700000000	1.2485697357
2.6750000000	1.2992082436
2.6800000000	1.3592049744
2.6850000000	1.4291346509
2.6900000000	1.5095060751
2.6950000000	1.6007084848
2.7000000000	1.7028831375
2.7050000000	1.8279835526
2.7100000000	1.9664944987
2.7150000000	2.1167237439
2.7200000000	2.2758284520
2.7250000000	2.4397679131
2.7300000000	2.6033140651
2.7350000000	2.7600708969
2.7400000000	2.9024321193
2.7450000000	3.0228095010
2.7500000000	3.1099325528
2.7550000000	3.1563412077
2.7600000000	3.1564016475
2.7650000000	3.1088723476
2.7700000000	3.0175375117
2.7750000000	2.8905685682
2.7800000000	2.7387513254
2.7850000000	2.5735583847
2.7900000000	2.4052683780
2.7950000000	2.2421208387
2.8000000000	2.0899462719
2.8050000000	1.9353709019
2.8100000000	1.8023067145
2.8150000000	1.6904569916
2.8200000000	1.5980755772
2.8250000000	1.5228402052
2.8300000000	1.4624082969
2.8350000000	1.4147865880
2.8400000000	1.3778535039
2.8450000000	1.3517397632
2.8500000000	1.3348858507
2.8550000000	1.3267028805
2.8600000000	1.3267563305
2.8650000000	1.3346759326
2.8700000000	1.3501023897
2.8750000000	1.3726247739
2.8800000000	1.4017395983
2.8850000000	1.4368105238
2.8900000000	1.4770796609
2.8950000000	1.5216450628
2.9000000000	1.5695189398
2.9050000000	1.6300456557
2.9100000000	1.6905317712
2.9150000000	1.7488181874
2.9200000000	1.8024279759
2.9250000000	1.8485013308
2.9300000000	1.8843761346
2.9350000000	1.9063143152
2.9400000000	1.9125371739
2.9450000000	1.9021746387
2.9500000000	1.8759361841
2.9550000000	1.8360545352
2.9600000000	1.7858487181
2.9650000000	1.7291392437
2.9700000000	1.6696655714
2.9750000000	1.6106502600
2.9800000000	1.5545857031
2.9850000000	1.5031945193
2.9900000000	1.4575392523
2.9950000000	1.4181336328
3.0000000000	1.3851273012
