# energy (eV)    P(omega), $W$ = 300 nm, $h$ = 300 nm, $s$ = 20 nm, $d/W = 5$, $E_{\rm e}$ = 200 keV
0.2000000000	0.1610615142
0.2050000000	0.1633754757
0.2100000000	0.1655504463
0.2150000000	0.1675907742
0.2200000000	0.1695002084
0.2250000000	0.1712818492
0.2300000000	0.1729379753
0.2350000000	0.1744700111
0.2400000000	0.1758783662
0.2450000000	0.1771620878
0.2500000000	0.1783190548
0.2550000000	0.1793451873
0.2600000000	0.1802345240
0.2650000000	0.1809787510
0.2700000000	0.1815664729
0.2750000000	0.1819827701
0.2800000000	0.1822083037
0.2850000000	0.1822183455
0.2900000000	0.1819811248
0.2950000000	0.1814565827
0.3000000000	0.1805931297
0.3050000000	0.1793255934
0.3100000000	0.1775703046
0.3150000000	0.1871396566
0.3200000000	0.1985062326
0.3250000000	0.2128749880
0.3300000000	0.2321029510
0.3350000000	0.2560446088
0.3400000000	0.2873998374
0.3450000000	0.3254640559
0.3500000000	0.3752793365
0.3550000000	0.4412268516
0.3600000000	0.5273981397
0.3650000000	0.6475862958
0.3700000000	0.8062172028
0.3750000000	1.0270454018
0.3800000000	1.3466533988
0.3850000000	1.8449667940
0.3900000000	2.6327842994
0.3950000000	3.9719600940
0.4000000000	6.5266062665
0.4050000000	12.2578528271
0.4100000000	27.9074108632
0.4150000000	89.6356864391
0.4200000000	57.0556685964
0.4250000000	-107.7010539415
0.4300000000	30.0123424818
0.4350000000	18.7262608209
0.4400000000	11.4645796218
0.4450000000	7.5529859602
0.4500000000	5.2997155840
0.4550000000	3.9122370931
0.4600000000	3.0080692377
0.4650000000	2.3916163593
0.4700000000	1.9557208584
0.4750000000	1.6403708580
0.4800000000	1.4065158432
0.4850000000	1.2305442661
0.4900000000	1.0962512330
0.4950000000	0.9927536419
0.5000000000	0.9126147523
0.5050000000	0.8503718074
0.5100000000	0.8025143551
0.5150000000	0.7664593147
0.5200000000	0.7394908338
0.5250000000	0.7203991946
0.5300000000	0.7078753022
0.5350000000	0.7009643844
0.5400000000	0.6989637223
0.5450000000	0.7012866408
0.5500000000	0.7077583065
0.5550000000	0.7180514397
0.5600000000	0.7320065145
0.5650000000	0.7495561267
0.5700000000	0.7706432037
0.5750000000	0.7954186010
0.5800000000	0.8241275698
0.5850000000	0.8569312273
0.5900000000	0.8941361993
0.5950000000	0.9361227522
0.6000000000	0.9833746794
0.6050000000	1.0365855233
0.6100000000	1.0964233390
0.6150000000	1.1637948185
0.6200000000	1.2399101888
0.6250000000	1.3259282128
0.6300000000	1.4235615636
0.6350000000	1.5349450332
0.6400000000	1.6623007445
0.6450000000	1.8088346439
0.6500000000	1.9787633386
0.6550000000	2.1764771600
0.6600000000	2.4087212850
0.6650000000	2.6841571862
0.6700000000	3.0129678691
0.6750000000	3.4106751519
0.6800000000	3.8981776631
0.6850000000	4.5028323562
0.6900000000	5.2670449577
0.6950000000	6.2501035599
0.7000000000	7.5462428912
0.7050000000	9.2995185385
0.7100000000	11.7540907250
0.7150000000	15.3446474440
0.7200000000	20.8806184047
0.7250000000	30.0733471899
0.7300000000	46.9530425790
0.7350000000	83.0844783324
0.7400000000	182.2152324350
0.7450000000	604.9337594920
0.7500000000	1875.4652132191
0.7550000000	472.1660454073
0.7600000000	156.4888983196
0.7650000000	75.0381164928
0.7700000000	43.6734937048
0.7750000000	28.5269561137
0.7800000000	20.0916802007
0.7850000000	14.9341929656
0.7900000000	11.5473726433
0.7950000000	9.2107238256
0.8000000000	7.5304222125
0.8050000000	6.2785519680
0.8100000000	5.3236073073
0.8150000000	4.5663118442
0.8200000000	3.9684478983
0.8250000000	3.4869206352
0.8300000000	3.0923434435
0.8350000000	2.7678574964
0.8400000000	2.4957805071
0.8450000000	2.2674234128
0.8500000000	2.0743800360
0.8550000000	1.9077454195
0.8600000000	1.7654925240
0.8650000000	1.6440128467
0.8700000000	1.5366434440
0.8750000000	1.4453578885
0.8800000000	1.3679697351
0.8850000000	1.2985797286
0.8900000000	1.2430638263
0.8950000000	1.1925554827
0.9000000000	1.1526859689
0.9050000000	1.1255307262
0.9100000000	1.1006603903
0.9150000000	1.0859452218
0.9200000000	1.0850666634
0.9250000000	1.0846020974
0.9300000000	1.0694315563
0.9350000000	1.0219432055
0.9400000000	0.7538915377
0.9450000000	-0.4675642397
0.9500000000	-6.9200798271
0.9550000000	-39.6715482837
0.9600000000	9.3703485679
0.9650000000	16.4693500946
0.9700000000	7.3096872176
0.9750000000	3.8391399658
0.9800000000	2.4066204776
0.9850000000	1.7364424002
0.9900000000	1.3501050924
0.9950000000	1.1157613664
1.0000000000	0.9661044850
1.0050000000	0.8712661355
1.0100000000	0.7976607721
1.0150000000	0.7438560189
1.0200000000	0.7076315794
1.0250000000	0.6771475026
1.0300000000	0.6539379978
1.0350000000	0.6363174452
1.0400000000	0.6250626273
1.0450000000	0.6156003548
1.0500000000	0.6092331208
1.0550000000	0.6055962355
1.0600000000	0.6055308773
1.0650000000	0.6066964244
1.0700000000	0.6100379966
1.0750000000	0.6155666762
1.0800000000	0.6239019583
1.0850000000	0.6344986506
1.0900000000	0.6502928706
1.0950000000	0.6690754248
1.1000000000	0.6915055228
1.1050000000	0.7172956765
1.1100000000	0.7472881211
1.1150000000	0.7821475912
1.1200000000	0.8226895809
1.1250000000	0.8698455173
1.1300000000	0.9250221190
1.1350000000	0.9899184432
1.1400000000	1.0665009862
1.1450000000	1.1582169632
1.1500000000	1.2689331009
1.1550000000	1.4041838616
1.1600000000	1.5717761097
1.1650000000	1.7818694228
1.1700000000	2.0533438759
1.1750000000	2.4113960474
1.1800000000	2.8976203268
1.1850000000	3.5803472967
1.1900000000	4.5885473808
1.1950000000	6.1694157918
1.2000000000	8.8486574183
1.2050000000	13.9091211577
1.2100000000	25.0385077945
1.2150000000	55.1248748710
1.2200000000	135.1990225755
1.2250000000	121.5867686753
1.2300000000	48.6433342867
1.2350000000	22.9340676293
1.2400000000	13.2010061054
1.2450000000	8.7404991900
1.2500000000	6.3970322954
1.2550000000	5.0554161268
1.2600000000	4.2513721292
1.2650000000	3.7619097620
1.2700000000	3.4884899338
1.2750000000	3.3675380151
1.2800000000	3.3702991171
1.2850000000	3.4862207736
1.2900000000	3.7184436278
1.2950000000	4.0801960610
1.3000000000	4.6130648477
1.3050000000	5.3711848455
1.3100000000	6.4524818215
1.3150000000	8.0256756247
1.3200000000	10.3928426862
1.3250000000	14.1308475682
1.3300000000	20.4987890457
1.3350000000	32.4200854102
1.3400000000	57.8975246297
1.3450000000	121.1596161853
1.3500000000	257.3846400281
1.3550000000	240.2034717998
1.3600000000	110.8113654020
1.3650000000	54.4536843089
1.3700000000	31.2285026095
1.3750000000	20.0808687756
1.3800000000	14.0023507372
1.3850000000	10.3413212546
1.3900000000	7.9829822690
1.3950000000	6.3750021070
1.4000000000	5.2331456231
1.4050000000	4.3970070742
1.4100000000	3.7703947254
1.4150000000	3.2975524805
1.4200000000	2.9419403128
1.4250000000	2.7036818474
1.4300000000	2.6162191883
1.4350000000	2.6642718892
1.4400000000	2.0515079325
1.4450000000	0.1752615283
1.4500000000	-2.8715415754
1.4550000000	-0.8057723343
1.4600000000	3.4748857864
1.4650000000	1.8817654638
1.4700000000	-1.7747562662
1.4750000000	-7.7705057204
1.4800000000	-3.4582715397
1.4850000000	5.6847699149
1.4900000000	4.6080829656
1.4950000000	2.9827130828
1.5000000000	2.0957307715
1.5050000000	1.6181155204
1.5100000000	1.3458865942
1.5150000000	1.1805585473
1.5200000000	1.0737563851
1.5250000000	1.0073944292
1.5300000000	0.9566982888
1.5350000000	0.9217502511
1.5400000000	0.8987254282
1.5450000000	0.8855711270
1.5500000000	0.8809621410
1.5550000000	0.8849308483
1.5600000000	0.8998356395
1.5650000000	0.9244621415
1.5700000000	0.9643446317
1.5750000000	1.0262314282
1.5800000000	1.1227938798
1.5850000000	1.2786976047
1.5900000000	1.5459092921
1.5950000000	2.0394268383
1.6000000000	3.0021575406
1.6050000000	4.5939770907
1.6100000000	5.3311689866
1.6150000000	3.9491563859
1.6200000000	2.6527013650
1.6250000000	1.9683735614
1.6300000000	1.6247925336
1.6350000000	1.4479262365
1.6400000000	1.3583029348
1.6450000000	1.3189864038
1.6500000000	1.3114807021
1.6550000000	1.3271217056
1.6600000000	1.3607392700
1.6650000000	1.4099732185
1.6700000000	1.4739272880
1.6750000000	1.5526086422
1.6800000000	1.6467222345
1.6850000000	1.7573609419
1.6900000000	1.8854925281
1.6950000000	2.0293042887
1.7000000000	2.1863960917
1.7050000000	2.3474431493
1.7100000000	2.5312427825
1.7150000000	2.9875505100
1.7200000000	3.7879071357
1.7250000000	4.5214826335
1.7300000000	5.3089474285
1.7350000000	6.1741671600
1.7400000000	7.0230083676
1.7450000000	8.1132423818
1.7500000000	9.7620127483
1.7550000000	12.2160911874
1.7600000000	15.8878765282
1.7650000000	21.5479779644
1.7700000000	30.6654070879
1.7750000000	46.0258902015
1.7800000000	72.1998093970
1.7850000000	110.8001251682
1.7900000000	137.6945466195
1.7950000000	117.2492852817
1.8000000000	78.0324591210
1.8050000000	49.2791278757
1.8100000000	32.4907868944
1.8150000000	22.6504905761
1.8200000000	16.5946411486
1.8250000000	12.6686142929
1.8300000000	10.0029761520
1.8350000000	8.1214541897
1.8400000000	6.7506721663
1.8450000000	5.7247941626
1.8500000000	4.9393068416
1.8550000000	4.3288132240
1.8600000000	3.8476922414
1.8650000000	3.4649381154
1.8700000000	3.1584976220
1.8750000000	2.9121783879
1.8800000000	2.7131339680
1.8850000000	2.5500097874
1.8900000000	2.4097191183
1.8950000000	2.2727325929
1.9000000000	2.1053289632
1.9050000000	1.7885298963
1.9100000000	1.3524600773
1.9150000000	1.1207439388
1.9200000000	2.7444436074
1.9250000000	7.2346188465
1.9300000000	10.7956759718
1.9350000000	10.6300010058
1.9400000000	8.3610341215
1.9450000000	6.1611588674
1.9500000000	4.6165744855
1.9550000000	3.6045015199
1.9600000000	2.9356841708
1.9650000000	2.4880366021
1.9700000000	2.1648613847
1.9750000000	1.9279615949
1.9800000000	1.7470997662
1.9850000000	1.6003382560
1.9900000000	1.4708911366
1.9950000000	1.3441090579
2.0000000000	1.2178556761
2.0050000000	1.1372040381
2.0100000000	1.1834237015
2.0150000000	1.3107375707
2.0200000000	1.3892509770
2.0250000000	1.4101315018
2.0300000000	1.4148659500
2.0350000000	1.4234558947
2.0400000000	1.4433362850
2.0450000000	1.4764050739
2.0500000000	1.5238955141
2.0550000000	1.5869280688
2.0600000000	1.6655038107
2.0650000000	1.7548580341
2.0700000000	1.8431743704
2.0750000000	1.9215957279
2.0800000000	1.9979314499
2.0850000000	2.0883352238
2.0900000000	2.2036327379
2.0950000000	2.3483797099
2.1000000000	2.5274720758
2.1050000000	2.7392851801
2.1100000000	2.9987052964
2.1150000000	3.3166139261
2.1200000000	3.7082723169
2.1250000000	4.1950874100
2.1300000000	4.8072348753
2.1350000000	5.5877967975
2.1400000000	6.5989820192
2.1450000000	7.9317406051
2.1500000000	9.7185898546
2.1550000000	12.1470774160
2.1600000000	15.4572347793
2.1650000000	19.8523378105
2.1700000000	25.2510759452
2.1750000000	30.6185833895
2.1800000000	33.9351499944
2.1850000000	34.1078112597
2.1900000000	32.6004548157
2.1950000000	31.4276892568
2.2000000000	30.9078150856
2.2050000000	29.4622050771
2.2100000000	26.3924766068
2.2150000000	22.6179998412
2.2200000000	19.2294803981
2.2250000000	16.4291806197
2.2300000000	13.9639313535
2.2350000000	11.7355020809
2.2400000000	9.8216223590
2.2450000000	8.2903304330
2.2500000000	7.1164366196
2.2550000000	6.2345346301
2.2600000000	5.5741419492
2.2650000000	5.0646452943
2.2700000000	4.6297296211
2.2750000000	4.1942258146
2.2800000000	3.7254644446
2.2850000000	3.2795120213
2.2900000000	2.9714380359
2.2950000000	2.8663508607
2.3000000000	2.9041699382
2.3050000000	2.9617872568
2.3100000000	2.9667103781
2.3150000000	2.9195329615
2.3200000000	2.8516361181
2.3250000000	2.7954321905
2.3300000000	2.7675070654
2.3350000000	2.7707146368
2.3400000000	2.7957777550
2.3450000000	2.8216945193
2.3500000000	2.8220185775
2.3550000000	2.7798774402
2.3600000000	2.7000461659
2.3650000000	2.6033902249
2.3700000000	2.5114168350
2.3750000000	2.4369699798
2.3800000000	2.3842192529
2.3850000000	2.3519793735
2.3900000000	2.3375543685
2.3950000000	2.3378230413
2.4000000000	2.3536371158
2.4050000000	2.3902023911
2.4100000000	2.4492656577
2.4150000000	2.5332441528
2.4200000000	2.6435913488
2.4250000000	2.7828470522
2.4300000000	2.9547137838
2.4350000000	3.1641581250
2.4400000000	3.4175890025
2.4450000000	3.7231894259
2.4500000000	4.0912838465
2.4550000000	4.5348491467
2.4600000000	5.0698292461
2.4650000000	5.7153538741
2.4700000000	6.4933629317
2.4750000000	7.4258340809
2.4800000000	8.5354663304
2.4850000000	9.8312470845
2.4900000000	11.3005137302
2.4950000000	12.8906865266
2.5000000000	14.4905612622
2.5050000000	15.9871541168
2.5100000000	16.9981569769
2.5150000000	17.3030777616
2.5200000000	16.8493998224
2.5250000000	15.7771711865
2.5300000000	14.3303294690
2.5350000000	12.7441159269
2.5400000000	11.1847025246
2.5450000000	9.7459657812
2.5500000000	8.4696440293
2.5550000000	7.3652353269
2.5600000000	6.4175538195
2.5650000000	5.6207900300
2.5700000000	4.9561887633
2.5750000000	4.4120095932
2.5800000000	3.9794826898
2.5850000000	3.6490732920
2.5900000000	3.4050978798
2.5950000000	3.2255060916
2.6000000000	3.0873386343
2.6050000000	2.9891450246
2.6100000000	2.9041188293
2.6150000000	2.8309125011
2.6200000000	2.7709729257
2.6250000000	2.7259026278
2.6300000000	2.6967715529
2.6350000000	2.6841256736
2.6400000000	2.6882818316
2.6450000000	2.7095352020
2.6500000000	2.7484631868
2.6550000000	2.8052274365
2.6600000000	2.8806994353
2.6650000000	2.9757593940
2.6700000000	3.0914885488
2.6750000000	3.2291973628
2.6800000000	3.3903380898
2.6850000000	3.5763965468
2.6900000000	3.7885900610
2.6950000000	4.0276252440
2.7000000000	4.2932612033
2.7050000000	4.6157116864
2.7100000000	4.9676313741
2.7150000000	5.3421718203
2.7200000000	5.7293708627
2.7250000000	6.1167113371
2.7300000000	6.4900663396
2.7350000000	6.8345122530
2.7400000000	7.1345244057
2.7450000000	7.3763183964
2.7500000000	7.5385146085
2.7550000000	7.6081674200
2.7600000000	7.5754540516
2.7650000000	7.4392296684
2.7700000000	7.2086264128
2.7750000000	6.9019435479
2.7800000000	6.5430334510
2.7850000000	6.1572004639
2.7900000000	5.7671484589
2.7950000000	5.3910839013
2.8000000000	5.0418804866
2.8050000000	4.6885665016
2.8100000000	4.3861731386
2.8150000000	4.1338892701
2.8200000000	3.9276539977
2.8250000000	3.7621148823
2.8300000000	3.6318802488
2.8350000000	3.5323360150
2.8400000000	3.4586246658
2.8450000000	3.4109155376
2.8500000000	3.3856784890
2.8550000000	3.3815685175
2.8600000000	3.3975813191
2.8650000000	3.4328122708
2.8700000000	3.4862496688
2.8750000000	3.5566101601
2.8800000000	3.6422113274
2.8850000000	3.7408652099
2.8900000000	3.8499418475
2.8950000000	3.9664665118
2.9000000000	4.0873107220
2.9050000000	4.2325417153
2.9100000000	4.3718749402
2.9150000000	4.5009264623
2.9200000000	4.6150945424
2.9250000000	4.7091573598
2.9300000000	4.7783066852
2.9350000000	4.8150667831
2.9400000000	4.8162102693
2.9450000000	4.7803619408
2.9500000000	4.7095905472
2.9550000000	4.6092759599
2.9600000000	4.4871839285
2.9650000000	4.3521138375
2.9700000000	4.2125748944
2.9750000000	4.0758392196
2.9800000000	3.9474790197
2.9850000000	3.8312961943
2.9900000000	3.7295775234
2.9950000000	3.6433966444
3.0000000000	3.5729796171
