# energy (eV)    P(omega), $W$ = 400 nm, $h$ = 300 nm, $s$ = 20 nm, $d/W = 5$, $E_{\rm e}$ = 200 keV
0.2000000000	0.0806824619
0.2050000000	0.0814163931
0.2100000000	0.0819331141
0.2150000000	0.0822239226
0.2200000000	0.0822766499
0.2250000000	0.0820747641
0.2300000000	0.0815965123
0.2350000000	0.0808135713
0.2400000000	0.0796895159
0.2450000000	0.0781774020
0.2500000000	0.0762172104
0.2550000000	0.0737317147
0.2600000000	0.0706213967
0.2650000000	0.0738802235
0.2700000000	0.0821582329
0.2750000000	0.0940038112
0.2800000000	0.1105080578
0.2850000000	0.1348396343
0.2900000000	0.1649881743
0.2950000000	0.2082086378
0.3000000000	0.2663092684
0.3050000000	0.3553636417
0.3100000000	0.4794135705
0.3150000000	0.7194445936
0.3200000000	1.0943262512
0.3250000000	1.3509857884
0.3300000000	1.7060286705
0.3350000000	2.2093527684
0.3400000000	2.9994698368
0.3450000000	4.3550570422
0.3500000000	7.0582151332
0.3550000000	13.3156888811
0.3600000000	32.7249338288
0.3650000000	0.1478787852
0.3700000000	15.1668336605
0.3750000000	19.9437954964
0.3800000000	9.2931169616
0.3850000000	5.2348945001
0.3900000000	3.3577198900
0.3950000000	2.3661139386
0.4000000000	1.7919748662
0.4050000000	1.4176764833
0.4100000000	1.1739999768
0.4150000000	1.0132818236
0.4200000000	0.9117046483
0.4250000000	0.8319286520
0.4300000000	0.7376621764
0.4350000000	0.6630558163
0.4400000000	0.6040505047
0.4450000000	0.5571342909
0.4500000000	0.5200941511
0.4550000000	0.4907223116
0.4600000000	0.4678098039
0.4650000000	0.4500779416
0.4700000000	0.4366802142
0.4750000000	0.4270243453
0.4800000000	0.4205934879
0.4850000000	0.4169344512
0.4900000000	0.4157792300
0.4950000000	0.4169216318
0.5000000000	0.4201854766
0.5050000000	0.4254922332
0.5100000000	0.4327775676
0.5150000000	0.4420032444
0.5200000000	0.4531883793
0.5250000000	0.4663486483
0.5300000000	0.4816772579
0.5350000000	0.4992600948
0.5400000000	0.5192518225
0.5450000000	0.5418552690
0.5500000000	0.5673574034
0.5550000000	0.5960721241
0.5600000000	0.6283814987
0.5650000000	0.6647768254
0.5700000000	0.7059363226
0.5750000000	0.7523626560
0.5800000000	0.8049963750
0.5850000000	0.8651225783
0.5900000000	0.9336080758
0.5950000000	1.0122768699
0.6000000000	1.1035387036
0.6050000000	1.2091996185
0.6100000000	1.3333997361
0.6150000000	1.4795722766
0.6200000000	1.6536108106
0.6250000000	1.8639706168
0.6300000000	2.1192746211
0.6350000000	2.4357260714
0.6400000000	2.8312014333
0.6450000000	3.3381401328
0.6500000000	3.9979800921
0.6550000000	4.8809130958
0.6600000000	6.1054565643
0.6650000000	7.8588575007
0.6700000000	10.5139227720
0.6750000000	14.7828633931
0.6800000000	22.3290138674
0.6850000000	37.4708399605
0.6900000000	75.0974343803
0.6950000000	210.8093791240
0.7000000000	1022.4417200801
0.7050000000	497.0845151589
0.7100000000	127.6904689605
0.7150000000	54.3011342906
0.7200000000	29.6545241311
0.7250000000	18.6283314557
0.7300000000	12.7764547375
0.7350000000	9.3171213800
0.7400000000	7.1018912859
0.7450000000	5.5982815173
0.7500000000	4.5331532045
0.7550000000	3.7506348622
0.7600000000	3.1608335605
0.7650000000	2.7034513345
0.7700000000	2.3423951196
0.7750000000	2.0525346862
0.7800000000	1.8169844206
0.7850000000	1.6230329855
0.7900000000	1.4605467949
0.7950000000	1.3248410199
0.8000000000	1.2094545651
0.8050000000	1.1105979794
0.8100000000	1.0264413810
0.8150000000	0.9526816859
0.8200000000	0.8884660052
0.8250000000	0.8345777743
0.8300000000	0.7874077168
0.8350000000	0.7464001805
0.8400000000	0.7137436317
0.8450000000	0.6852490064
0.8500000000	0.6610885198
0.8550000000	0.6458165203
0.8600000000	0.6335832371
0.8650000000	0.6248238778
0.8700000000	0.6278717153
0.8750000000	0.6289385116
0.8800000000	0.6255523482
0.8850000000	0.5983528580
0.8900000000	0.4643451783
0.8950000000	-0.2072325528
0.9000000000	-3.8084084372
0.9050000000	-25.0241113922
0.9100000000	4.7650835020
0.9150000000	11.2875765114
0.9200000000	4.6856898082
0.9250000000	2.4376321328
0.9300000000	1.4879901311
0.9350000000	1.0342827832
0.9400000000	0.7895272633
0.9450000000	0.6538608432
0.9500000000	0.5575161407
0.9550000000	0.4930242681
0.9600000000	0.4531390267
0.9650000000	0.4202295078
0.9700000000	0.3967468717
0.9750000000	0.3807435326
0.9800000000	0.3710013037
0.9850000000	0.3692166719
0.9900000000	0.3727722486
0.9950000000	0.3871229440
1.0000000000	0.4214295342
1.0050000000	0.5015231215
1.0100000000	0.7114253709
1.0150000000	1.4308228411
1.0200000000	2.7478454898
1.0250000000	1.2491728322
1.0300000000	0.6397673358
1.0350000000	0.4581363288
1.0400000000	0.3867105451
1.0450000000	0.3532018175
1.0500000000	0.3364033584
1.0550000000	0.3275886201
1.0600000000	0.3236296148
1.0650000000	0.3228846509
1.0700000000	0.3244435483
1.0750000000	0.3279857305
1.0800000000	0.3328757122
1.0850000000	0.3395316778
1.0900000000	0.3491507004
1.0950000000	0.3603651678
1.1000000000	0.3732849361
1.1050000000	0.3879332380
1.1100000000	0.4045418705
1.1150000000	0.4233318121
1.1200000000	0.4445653332
1.1250000000	0.4684594766
1.1300000000	0.4956332501
1.1350000000	0.5265039125
1.1400000000	0.5616963158
1.1450000000	0.6020050359
1.1500000000	0.6480484067
1.1550000000	0.7017516770
1.1600000000	0.7643322782
1.1650000000	0.8373848029
1.1700000000	0.9212398570
1.1750000000	1.0062837653
1.1800000000	1.0867643203
1.1850000000	1.5104467552
1.1900000000	1.8744732239
1.1950000000	2.5696254697
1.2000000000	3.4996598615
1.2050000000	3.0697868276
1.2100000000	2.9378248969
1.2150000000	3.2706344368
1.2200000000	3.9117046462
1.2250000000	4.8961878672
1.2300000000	6.3931655617
1.2350000000	8.7612283166
1.2400000000	12.7502306939
1.2450000000	20.2614953778
1.2500000000	36.5287754546
1.2550000000	79.0733200477
1.2600000000	190.9949854311
1.2650000000	193.4699481416
1.2700000000	80.4795374497
1.2750000000	37.1494237695
1.2800000000	20.5740121679
1.2850000000	12.9381611580
1.2900000000	8.8679269909
1.2950000000	6.4630761378
1.3000000000	4.9312924603
1.3050000000	3.8999473558
1.3100000000	3.1726827997
1.3150000000	2.6471979692
1.3200000000	2.2576551966
1.3250000000	1.9645098297
1.3300000000	1.7437425947
1.3350000000	1.5806149336
1.3400000000	1.4674748745
1.3450000000	1.4022237384
1.3500000000	1.3943790395
1.3550000000	1.4656084425
1.3600000000	1.6710445321
1.3650000000	2.1509849609
1.3700000000	3.2971528578
1.3750000000	6.1489158712
1.3800000000	10.0438072612
1.3850000000	7.0163671517
1.3900000000	3.5755944724
1.3950000000	2.0746854985
1.4000000000	1.3587130362
1.4050000000	0.9186737948
1.4100000000	0.5203976391
1.4150000000	-0.0737551088
1.4200000000	-1.4039749434
1.4250000000	-4.9287062925
1.4300000000	-6.6269634173
1.4350000000	3.0360771106
1.4400000000	3.8836097033
1.4450000000	2.3283911703
1.4500000000	1.4488181978
1.4550000000	0.9987333575
1.4600000000	0.7375057763
1.4650000000	0.5310570027
1.4700000000	0.3102316760
1.4750000000	0.3645690168
1.4800000000	0.5344704580
1.4850000000	0.4853169866
1.4900000000	0.4297372126
1.4950000000	0.3937877462
1.5000000000	0.3701718426
1.5050000000	0.3545570137
1.5100000000	0.3439345052
1.5150000000	0.3381384958
1.5200000000	0.3338659750
1.5250000000	0.3323245993
1.5300000000	0.3336563396
1.5350000000	0.3384707290
1.5400000000	0.3482884589
1.5450000000	0.3664867585
1.5500000000	0.4006563804
1.5550000000	0.4659278486
1.5600000000	0.5639048876
1.5650000000	0.5796067730
1.5700000000	0.4911918838
1.5750000000	0.4291491422
1.5800000000	0.4023847483
1.5850000000	0.3939633575
1.5900000000	0.3950549733
1.5950000000	0.4018249431
1.6000000000	0.4126026078
1.6050000000	0.4268128112
1.6100000000	0.4440260851
1.6150000000	0.4641784716
1.6200000000	0.4875909854
1.6250000000	0.5145405546
1.6300000000	0.5454823232
1.6350000000	0.5810030655
1.6400000000	0.6218531082
1.6450000000	0.6689907663
1.6500000000	0.7236189514
1.6550000000	0.7872620927
1.6600000000	0.8618952440
1.6650000000	0.9500677792
1.6700000000	1.0542584788
1.6750000000	1.1805503276
1.6800000000	1.3343201721
1.6850000000	1.5240267833
1.6900000000	1.7616800402
1.6950000000	2.0649039894
1.7000000000	2.4602295988
1.7050000000	3.0055918419
1.7100000000	3.7664691220
1.7150000000	4.8724202994
1.7200000000	6.5579272347
1.7250000000	9.2319171074
1.7300000000	13.3411088636
1.7350000000	18.6145419043
1.7400000000	25.2810051272
1.7450000000	36.9795369738
1.7500000000	52.1653046998
1.7550000000	53.0044578065
1.7600000000	37.1860078197
1.7650000000	23.1634140936
1.7700000000	14.8486583832
1.7750000000	10.1205817138
1.7800000000	7.3264904538
1.7850000000	5.6077784543
1.7900000000	4.5419165418
1.7950000000	3.9320440014
1.8000000000	3.6858844293
1.8050000000	3.6079511675
1.8100000000	3.2100391946
1.8150000000	2.4873201174
1.8200000000	1.9099172510
1.8250000000	1.6122097437
1.8300000000	1.4035949811
1.8350000000	1.2181945988
1.8400000000	1.0670144660
1.8450000000	0.9470435017
1.8500000000	0.8503593995
1.8550000000	0.7704872338
1.8600000000	0.6970155585
1.8650000000	0.6349016088
1.8700000000	0.5721254867
1.8750000000	0.4816287410
1.8800000000	0.2753460961
1.8850000000	-0.1767593438
1.8900000000	-0.7848677942
1.8950000000	-0.8892063232
1.9000000000	0.0951531495
1.9050000000	1.0129260670
1.9100000000	1.1200183212
1.9150000000	0.9462077505
1.9200000000	0.7758573464
1.9250000000	0.6549760981
1.9300000000	0.5817699125
1.9350000000	0.5258800298
1.9400000000	0.4887004843
1.9450000000	0.4640894052
1.9500000000	0.4468867899
1.9550000000	0.4324922208
1.9600000000	0.4200632571
1.9650000000	0.4112375085
1.9700000000	0.4065242673
1.9750000000	0.4056099479
1.9800000000	0.4082403465
1.9850000000	0.4144918105
1.9900000000	0.4247747457
1.9950000000	0.4396025617
2.0000000000	0.4585896430
2.0050000000	0.4801293903
2.0100000000	0.4955803482
2.0150000000	0.5058854588
2.0200000000	0.5183114926
2.0250000000	0.5374919629
2.0300000000	0.5647904132
2.0350000000	0.6008894232
2.0400000000	0.6470284429
2.0450000000	0.7053580724
2.0500000000	0.7789669898
2.0550000000	0.8712876387
2.0600000000	0.9839847666
2.0650000000	1.1152865510
2.0700000000	1.2671653286
2.0750000000	1.4565636040
2.0800000000	1.7114532640
2.0850000000	2.0591071241
2.0900000000	2.5153862910
2.0950000000	3.0475091675
2.1000000000	3.5217796698
2.1050000000	3.7515947121
2.1100000000	3.6424608115
2.1150000000	3.3913266492
2.1200000000	3.2138236910
2.1250000000	3.2062537595
2.1300000000	3.3971878766
2.1350000000	3.8092713001
2.1400000000	4.4878612570
2.1450000000	5.5132015111
2.1500000000	6.9976597205
2.1550000000	9.0256414784
2.1600000000	11.4336035339
2.1650000000	13.4574532162
2.1700000000	13.9356591515
2.1750000000	12.4746671770
2.1800000000	10.0711262867
2.1850000000	7.7703463823
2.1900000000	5.9714774804
2.1950000000	4.6718489873
2.2000000000	3.7600528722
2.2050000000	3.1309902598
2.2100000000	2.6942932838
2.2150000000	2.3593426701
2.2200000000	2.0592047764
2.2250000000	1.7737241950
2.2300000000	1.5152408541
2.2350000000	1.2932970700
2.2400000000	1.1053185862
2.2450000000	0.9430064109
2.2500000000	0.7980999289
2.2550000000	0.6659791892
2.2600000000	0.5338560257
2.2650000000	0.4377396961
2.2700000000	0.3855292731
2.2750000000	0.3986727745
2.2800000000	0.4745044451
2.2850000000	0.5710674076
2.2900000000	0.6417494714
2.2950000000	0.6730766736
2.3000000000	0.6766597484
2.3050000000	0.6658500867
2.3100000000	0.6516108811
2.3150000000	0.6389938949
2.3200000000	0.6299963951
2.3250000000	0.6257153421
2.3300000000	0.6270383420
2.3350000000	0.6347006502
2.3400000000	0.6493303398
2.3450000000	0.6715628780
2.3500000000	0.7020714797
2.3550000000	0.7418653840
2.3600000000	0.7902911634
2.3650000000	0.8476500775
2.3700000000	0.9137825919
2.3750000000	0.9894065926
2.3800000000	1.0772519283
2.3850000000	1.1805578160
2.3900000000	1.3000405437
2.3950000000	1.4303797643
2.4000000000	1.5578981272
2.4050000000	1.6677908693
2.4100000000	1.7287018901
2.4150000000	1.7345244428
2.4200000000	1.7001500853
2.4250000000	1.6509728707
2.4300000000	1.6095305854
2.4350000000	1.5894280787
2.4400000000	1.5960943377
2.4450000000	1.6304065954
2.4500000000	1.6924745645
2.4550000000	1.7836813128
2.4600000000	1.9098740829
2.4650000000	2.0770469920
2.4700000000	2.2918749181
2.4750000000	2.5585268170
2.4800000000	2.8748988242
2.4850000000	3.2274921741
2.4900000000	3.5854287336
2.4950000000	3.8974678810
2.5000000000	4.0994895016
2.5050000000	4.1254613454
2.5100000000	3.9490172639
2.5150000000	3.6183179492
2.5200000000	3.2103156846
2.5250000000	2.7926151297
2.5300000000	2.4064254617
2.5350000000	2.0690613959
2.5400000000	1.7830720213
2.5450000000	1.5442142036
2.5500000000	1.3463390043
2.5550000000	1.1839216651
2.5600000000	1.0481131060
2.5650000000	0.9464768558
2.5700000000	0.8734483626
2.5750000000	0.8264232168
2.5800000000	0.8001817641
2.5850000000	0.7875852389
2.5900000000	0.7819340654
2.5950000000	0.7790564702
2.6000000000	0.7776073366
2.6050000000	0.7838079136
2.6100000000	0.7936320432
2.6150000000	0.8085839582
2.6200000000	0.8294628433
2.6250000000	0.8563179368
2.6300000000	0.8883912076
2.6350000000	0.9240738144
2.6400000000	0.9609075420
2.6450000000	0.9957751814
2.6500000000	1.0253754417
2.6550000000	1.0470016121
2.6600000000	1.0593964004
2.6650000000	1.0632983083
2.6700000000	1.0612853978
2.6750000000	1.0571261757
2.6800000000	1.0544722728
2.6850000000	1.0567353967
2.6900000000	1.0662914780
2.6950000000	1.0846006589
2.7000000000	1.1123630326
2.7050000000	1.1539201665
2.7100000000	1.2074026967
2.7150000000	1.2719459637
2.7200000000	1.3457626320
2.7250000000	1.4258186570
2.7300000000	1.5075336070
2.7350000000	1.5847321099
2.7400000000	1.6500686522
2.7450000000	1.6960850325
2.7500000000	1.7167698479
2.7550000000	1.7090944338
2.7600000000	1.6738326129
2.7650000000	1.6152813207
2.7700000000	1.5400158282
2.7750000000	1.4553210848
2.7800000000	1.3678771134
2.7850000000	1.2830277466
2.7900000000	1.2038710516
2.7950000000	1.1337971854
2.8000000000	1.0735074885
2.8050000000	1.0176680307
2.8100000000	0.9736424715
2.8150000000	0.9396975631
2.8200000000	0.9139504051
2.8250000000	0.8946731825
2.8300000000	0.8803973985
2.8350000000	0.8699049868
2.8400000000	0.8621667067
2.8450000000	0.8563087209
2.8500000000	0.8516293433
2.8550000000	0.8476627541
2.8600000000	0.8442512544
2.8650000000	0.8415685581
2.8700000000	0.8400756653
2.8750000000	0.8404066122
2.8800000000	0.8432280801
2.8850000000	0.8491127538
2.8900000000	0.8584511476
2.8950000000	0.8713984163
2.9000000000	0.8878481956
2.9050000000	0.9124537684
2.9100000000	0.9394367386
2.9150000000	0.9669955548
2.9200000000	0.9928534430
2.9250000000	1.0145645961
2.9300000000	1.0298581502
2.9350000000	1.0370362047
2.9400000000	1.0353023947
2.9450000000	1.0249139603
2.9500000000	1.0070855627
2.9550000000	0.9836797000
2.9600000000	0.9568141627
2.9650000000	0.9284949744
2.9700000000	0.9003718660
2.9750000000	0.8736313092
2.9800000000	0.8490037680
2.9850000000	0.8268425788
2.9900000000	0.8072299124
2.9950000000	0.7900797729
3.0000000000	0.7752220566
