# energy (eV)    P(omega), $W$ = 300 nm, $h$ = 300 nm, $s$ = 20 nm, $d/W = 5$, $E_{\rm e}$ = 200 keV
0.2000000000	0.0989952722
0.2050000000	0.1004171973
0.2100000000	0.1017538573
0.2150000000	0.1030079169
0.2200000000	0.1041816728
0.2250000000	0.1052770236
0.2300000000	0.1062953631
0.2350000000	0.1072375611
0.2400000000	0.1081038647
0.2450000000	0.1088936834
0.2500000000	0.1096057100
0.2550000000	0.1102374346
0.2600000000	0.1107851903
0.2650000000	0.1112438671
0.2700000000	0.1116064605
0.2750000000	0.1118638018
0.2800000000	0.1120040067
0.2850000000	0.1120118807
0.2900000000	0.1118679029
0.2950000000	0.1115474580
0.3000000000	0.1110188493
0.3050000000	0.1102420325
0.3100000000	0.1091655984
0.3150000000	0.1150451268
0.3200000000	0.1220288928
0.3250000000	0.1308571228
0.3300000000	0.1426706834
0.3350000000	0.1573803764
0.3400000000	0.1766449653
0.3450000000	0.2000318924
0.3500000000	0.2306389689
0.3550000000	0.2711582122
0.3600000000	0.3241039679
0.3650000000	0.3979511359
0.3700000000	0.4954203228
0.3750000000	0.6311078029
0.3800000000	0.8274928125
0.3850000000	1.1336876846
0.3900000000	1.6177783280
0.3950000000	2.4406729551
0.4000000000	4.0104663178
0.4050000000	7.5322757487
0.4100000000	17.1489358872
0.4150000000	55.0814628715
0.4200000000	35.0606019635
0.4250000000	-66.1849854241
0.4300000000	18.4439205125
0.4350000000	11.5083644428
0.4400000000	7.0458125876
0.4450000000	4.6419750216
0.4500000000	3.2572306873
0.4550000000	2.4045488250
0.4600000000	1.8488825263
0.4650000000	1.4700312771
0.4700000000	1.2021425085
0.4750000000	1.0083364529
0.4800000000	0.8646146103
0.4850000000	0.7564665546
0.4900000000	0.6739334700
0.4950000000	0.6103270423
0.5000000000	0.5610769588
0.5050000000	0.5228259887
0.5100000000	0.4934167751
0.5150000000	0.4712619001
0.5200000000	0.4546921957
0.5250000000	0.4429643022
0.5300000000	0.4352736753
0.5350000000	0.4310335767
0.5400000000	0.4298121654
0.5450000000	0.4312489143
0.5500000000	0.4352364901
0.5550000000	0.4415738008
0.5600000000	0.4501629128
0.5650000000	0.4609624902
0.5700000000	0.4739375724
0.5750000000	0.4891810230
0.5800000000	0.5068437834
0.5850000000	0.5270250467
0.5900000000	0.5499135006
0.5950000000	0.5757431215
0.6000000000	0.6048115747
0.6050000000	0.6375455133
0.6100000000	0.6743559515
0.6150000000	0.7158006871
0.6200000000	0.7626242533
0.6250000000	0.8155395044
0.6300000000	0.8756000739
0.6350000000	0.9441192450
0.6400000000	1.0224640668
0.6450000000	1.1126067937
0.6500000000	1.2171414485
0.6550000000	1.3387689317
0.6600000000	1.4816387643
0.6650000000	1.6510795447
0.6700000000	1.8533557190
0.6750000000	2.0980162893
0.6800000000	2.3979180439
0.6850000000	2.7698909713
0.6900000000	3.2400230590
0.6950000000	3.8447885656
0.7000000000	4.6421609897
0.7050000000	5.7207641056
0.7100000000	7.2308071700
0.7150000000	9.4397136523
0.7200000000	12.8454526850
0.7250000000	18.5008636368
0.7300000000	28.8853843097
0.7350000000	51.1138372135
0.7400000000	112.1004719940
0.7450000000	372.1643634740
0.7500000000	1153.8256295030
0.7550000000	290.4892933358
0.7600000000	96.2771273855
0.7650000000	46.1663711506
0.7700000000	26.8698960972
0.7750000000	17.5512370069
0.7800000000	12.3615463689
0.7850000000	9.1884566521
0.7900000000	7.1047412783
0.7950000000	5.6671292967
0.8000000000	4.6333272203
0.8050000000	3.8631131711
0.8100000000	3.2755802408
0.8150000000	2.8096492665
0.8200000000	2.4418080508
0.8250000000	2.1455429645
0.8300000000	1.9027738284
0.8350000000	1.7031287904
0.8400000000	1.5357285595
0.8450000000	1.3952274019
0.8500000000	1.2764535219
0.8550000000	1.1739278164
0.8600000000	1.0864034252
0.8650000000	1.0116604368
0.8700000000	0.9455988335
0.8750000000	0.8894335218
0.8800000000	0.8418193158
0.8850000000	0.7991260376
0.8900000000	0.7649700163
0.8950000000	0.7338948504
0.9000000000	0.7093663202
0.9050000000	0.6926619589
0.9100000000	0.6773632727
0.9150000000	0.6683140518
0.9200000000	0.6677802552
0.9250000000	0.6675008137
0.9300000000	0.6581694513
0.9350000000	0.6289453285
0.9400000000	0.4639624036
0.9450000000	-0.2878529429
0.9500000000	-4.2594718751
0.9550000000	-24.4186516970
0.9600000000	5.7676809078
0.9650000000	10.1373726593
0.9700000000	4.4993551762
0.9750000000	2.3631245666
0.9800000000	1.4813589410
0.9850000000	1.0688399057
0.9900000000	0.8310340304
0.9950000000	0.6867857897
1.0000000000	0.5946656911
1.0050000000	0.5362890155
1.0100000000	0.4909816203
1.0150000000	0.4578622595
1.0200000000	0.4355645864
1.0250000000	0.4167999248
1.0300000000	0.4025129420
1.0350000000	0.3916660389
1.0400000000	0.3847375826
1.0450000000	0.3789120788
1.0500000000	0.3749914602
1.0550000000	0.3727512318
1.0600000000	0.3727093281
1.0650000000	0.3734245759
1.0700000000	0.3754788579
1.0750000000	0.3788789909
1.0800000000	0.3840063723
1.0850000000	0.3905248760
1.0900000000	0.4002414034
1.0950000000	0.4117964852
1.1000000000	0.4255958303
1.1050000000	0.4414619799
1.1100000000	0.4599132488
1.1150000000	0.4813585265
1.1200000000	0.5062996098
1.1250000000	0.5353088607
1.1300000000	0.5692517414
1.1350000000	0.6091732869
1.1400000000	0.6562832048
1.1450000000	0.7127012134
1.1500000000	0.7808057704
1.1550000000	0.8640008060
1.1600000000	0.9670878755
1.1650000000	1.0963157446
1.1700000000	1.2632959424
1.1750000000	1.4835254569
1.1800000000	1.7825864429
1.1850000000	2.2025045849
1.1900000000	2.8226024621
1.1950000000	3.7949134305
1.2000000000	5.4427674820
1.2050000000	8.5551700618
1.2100000000	15.4002166505
1.2150000000	33.9046700311
1.2200000000	83.1541870705
1.2250000000	74.7828691692
1.2300000000	29.9193568346
1.2350000000	14.1069180624
1.2400000000	8.1206337609
1.2450000000	5.3772589088
1.2500000000	3.9359940902
1.2550000000	3.1109426974
1.2600000000	2.6165520037
1.2650000000	2.3156742554
1.2700000000	2.1477115797
1.2750000000	2.0735695753
1.2800000000	2.0755746108
1.2850000000	2.1472532250
1.2900000000	2.2905612213
1.2950000000	2.5136661774
1.3000000000	2.8422039622
1.3050000000	3.3095487416
1.3100000000	3.9760590381
1.3150000000	4.9457256562
1.3200000000	6.4047286881
1.3250000000	8.7086134811
1.3300000000	12.6333981002
1.3350000000	19.9808819243
1.3400000000	35.6834514621
1.3450000000	74.6739852445
1.3500000000	158.6343193159
1.3550000000	148.0456913249
1.3600000000	68.2970460152
1.3650000000	33.5618002162
1.3700000000	19.2472633209
1.3750000000	12.3765569889
1.3800000000	8.6301356170
1.3850000000	6.3737064237
1.3900000000	4.9201785040
1.3950000000	3.9291271309
1.4000000000	3.2253703954
1.4050000000	2.7100451325
1.4100000000	2.3238691236
1.4150000000	2.0324866155
1.4200000000	1.8133932404
1.4250000000	1.6667059045
1.4300000000	1.6131398387
1.4350000000	1.6433777522
1.4400000000	1.2661532819
1.4450000000	0.1103305799
1.4500000000	-1.7656978604
1.4550000000	-0.4946398713
1.4600000000	2.1396689779
1.4650000000	1.1580838335
1.4700000000	-1.0951295865
1.4750000000	-4.7907045305
1.4800000000	-2.1322463822
1.4850000000	3.5040066663
1.4900000000	2.8403698046
1.4950000000	1.8384677377
1.5000000000	1.2917237035
1.5050000000	0.9973252938
1.5100000000	0.8295283037
1.5150000000	0.7276271497
1.5200000000	0.6618023550
1.5250000000	0.6209046377
1.5300000000	0.5896652421
1.5350000000	0.5681339555
1.5400000000	0.5539534927
1.5450000000	0.5458593130
1.5500000000	0.5430349801
1.5550000000	0.5455018879
1.5600000000	0.5547152774
1.5650000000	0.5699298679
1.5700000000	0.5945612142
1.5750000000	0.6327767117
1.5800000000	0.6924010400
1.5850000000	0.7886653424
1.5900000000	0.9536593538
1.5950000000	1.2583955576
1.6000000000	1.8528747225
1.6050000000	2.8358360025
1.6100000000	3.2910882120
1.6150000000	2.4376919703
1.6200000000	1.6370936982
1.6250000000	1.2144786991
1.6300000000	1.0022742873
1.6350000000	0.8930146329
1.6400000000	0.8376244852
1.6450000000	0.8132944344
1.6500000000	0.8086019457
1.6550000000	0.8181960390
1.6600000000	0.8388827282
1.6650000000	0.8692031337
1.6700000000	0.9086020563
1.6750000000	0.9570817816
1.6800000000	1.0150748107
1.6850000000	1.0832524166
1.6900000000	1.1622071721
1.6950000000	1.2508128253
1.7000000000	1.3475739616
1.7050000000	1.4467043535
1.7100000000	1.5598007678
1.7150000000	1.8411506991
1.7200000000	2.3349130809
1.7250000000	2.7871587407
1.7300000000	3.2723903391
1.7350000000	3.8055851189
1.7400000000	4.3288619090
1.7450000000	5.0010114925
1.7500000000	6.0174317300
1.7550000000	7.5302369562
1.7600000000	9.7936574068
1.7650000000	13.2827320553
1.7700000000	18.9030198090
1.7750000000	28.3717521406
1.7800000000	44.5063101507
1.7850000000	68.3010739801
1.7900000000	84.8801128788
1.7950000000	72.2772478759
1.8000000000	48.1026710092
1.8050000000	30.3780421223
1.8100000000	20.0290476967
1.8150000000	13.9630882423
1.8200000000	10.2300124230
1.8250000000	7.8098474721
1.8300000000	6.1666411364
1.8350000000	5.0068006311
1.8400000000	4.1618060089
1.8450000000	3.5294300595
1.8500000000	3.0452472060
1.8550000000	2.6689449942
1.8600000000	2.3724023488
1.8650000000	2.1365082235
1.8700000000	1.9476711818
1.8750000000	1.7959140883
1.8800000000	1.6733243446
1.8850000000	1.5729121146
1.8900000000	1.4866248633
1.8950000000	1.4024469063
1.9000000000	1.2996283208
1.9050000000	1.1049213905
1.9100000000	0.8369975143
1.9150000000	0.6955504586
1.9200000000	1.6986333715
1.9250000000	4.4694948332
1.9300000000	6.6669502438
1.9350000000	6.5641724265
1.9400000000	5.1627486470
1.9450000000	3.8040569133
1.9500000000	2.8501115549
1.9550000000	2.2250648380
1.9600000000	1.8120191453
1.9650000000	1.5355592126
1.9700000000	1.3359824231
1.9750000000	1.1896851772
1.9800000000	1.0779923489
1.9850000000	0.9873545246
1.9900000000	0.9074034116
1.9950000000	0.8290897813
2.0000000000	0.7510947200
2.0050000000	0.7012625914
2.0100000000	0.7298090991
2.0150000000	0.8084523481
2.0200000000	0.8569386440
2.0250000000	0.8698098571
2.0300000000	0.8726956527
2.0350000000	0.8779536033
2.0400000000	0.8901737909
2.0450000000	0.9105250793
2.0500000000	0.9397646512
2.0550000000	0.9785797802
2.0600000000	1.0269709056
2.0650000000	1.0820103808
2.0700000000	1.1364377487
2.0750000000	1.1848130480
2.0800000000	1.2319400847
2.0850000000	1.2877513699
2.0900000000	1.3589063915
2.0950000000	1.4482114903
2.1000000000	1.5586883765
2.1050000000	1.6893384619
2.1100000000	1.8493440444
2.1150000000	2.0454179293
2.1200000000	2.2869735355
2.1250000000	2.5872143184
2.1300000000	2.9647516346
2.1350000000	3.4461565717
2.1400000000	4.0697969645
2.1450000000	4.8917667728
2.1500000000	5.9937970298
2.1550000000	7.4915596746
2.1600000000	9.5330967200
2.1650000000	12.2437820176
2.1700000000	15.5734598458
2.1750000000	18.8838458124
2.1800000000	20.9292093580
2.1850000000	21.0353836346
2.1900000000	20.1052185415
2.1950000000	19.3813227788
2.2000000000	19.0602479143
2.2050000000	18.1688428038
2.2100000000	16.2765175289
2.2150000000	13.9499779580
2.2200000000	11.8614586033
2.2250000000	10.1353226371
2.2300000000	8.6152244697
2.2350000000	7.2406987919
2.2400000000	6.0599760993
2.2450000000	5.1152303216
2.2500000000	4.3910112297
2.2550000000	3.8469917353
2.2600000000	3.4396878256
2.2650000000	3.1255188143
2.2700000000	2.8573663217
2.2750000000	2.5888014088
2.2800000000	2.2996221398
2.2850000000	2.0244118950
2.2900000000	1.8341950810
2.2950000000	1.7691850222
2.3000000000	1.7923536937
2.3050000000	1.8277676562
2.3100000000	1.8307202564
2.3150000000	1.8015725709
2.3200000000	1.7596768320
2.3250000000	1.7250219337
2.3300000000	1.7078350981
2.3350000000	1.7098713769
2.3400000000	1.7253973776
2.3450000000	1.7414392458
2.3500000000	1.7416607066
2.3550000000	1.7156393041
2.3600000000	1.6663246285
2.3650000000	1.6066057918
2.3700000000	1.5497686435
2.3750000000	1.5037485492
2.3800000000	1.4711240749
2.3850000000	1.4511676734
2.3900000000	1.4422183251
2.3950000000	1.4423513684
2.4000000000	1.4520904995
2.4050000000	1.4746433234
2.4100000000	1.5110840684
2.4150000000	1.5629002752
2.4200000000	1.6309857932
2.4250000000	1.7169065339
2.4300000000	1.8229468648
2.4350000000	1.9521712307
2.4400000000	2.1085340639
2.4450000000	2.2970845209
2.4500000000	2.5241927873
2.4550000000	2.7978655695
2.4600000000	3.1279400872
2.4650000000	3.5262189454
2.4700000000	4.0062384186
2.4750000000	4.5815573198
2.4800000000	5.2661781984
2.4850000000	6.0656432743
2.4900000000	6.9721371676
2.4950000000	7.9532201964
2.5000000000	8.9402911692
2.5050000000	9.8636621209
2.5100000000	10.4874873199
2.5150000000	10.6757332697
2.5200000000	10.3959696300
2.5250000000	9.7345542213
2.5300000000	8.8419566018
2.5350000000	7.8633111286
2.5400000000	6.9011623127
2.5450000000	6.0134536531
2.5500000000	5.2259543618
2.5550000000	4.5445319986
2.5600000000	3.9598178801
2.5650000000	3.4682229325
2.5700000000	3.0581717842
2.5750000000	2.7224179180
2.5800000000	2.4555485703
2.5850000000	2.2516804457
2.5900000000	2.1011379138
2.5950000000	1.9903183170
2.6000000000	1.9050584366
2.6050000000	1.8444656155
2.6100000000	1.7920015549
2.6150000000	1.7468345489
2.6200000000	1.7098566588
2.6250000000	1.6820564223
2.6300000000	1.6640939978
2.6350000000	1.6563062355
2.6400000000	1.6588888678
2.6450000000	1.6720238960
2.6500000000	1.6960677057
2.6550000000	1.7311201773
2.6600000000	1.7777191407
2.6650000000	1.8364079922
2.6700000000	1.9078542595
2.6750000000	1.9928667575
2.6800000000	2.0923419560
2.6850000000	2.2071967905
2.6900000000	2.3381821766
2.6950000000	2.4857333720
2.7000000000	2.6497004150
2.7050000000	2.8487311480
2.7100000000	3.0659416303
2.7150000000	3.2971003554
2.7200000000	3.5360535457
2.7250000000	3.7750714170
2.7300000000	4.0054333281
2.7350000000	4.2179308721
2.7400000000	4.4029891334
2.7450000000	4.5521105334
2.7500000000	4.6521126812
2.7550000000	4.6950164254
2.7600000000	4.6747672058
2.7650000000	4.5906619540
2.7700000000	4.4483360575
2.7750000000	4.2590793176
2.7800000000	4.0376070051
2.7850000000	3.7995299615
2.7900000000	3.5588550369
2.7950000000	3.3268144338
2.8000000000	3.1113504381
2.8050000000	2.8933522273
2.8100000000	2.7067756024
2.8150000000	2.5511201796
2.8200000000	2.4238802853
2.8250000000	2.3217535213
2.8300000000	2.2414132525
2.8350000000	2.1800124143
2.8400000000	2.1345540036
2.8450000000	2.1051422513
2.8500000000	2.0895990919
2.8550000000	2.0870945776
2.8600000000	2.0970089367
2.8650000000	2.1187837773
2.8700000000	2.1517944057
2.8750000000	2.1952481595
2.8800000000	2.2481058795
2.8850000000	2.3090161023
2.8900000000	2.3763542405
2.8950000000	2.4482830419
2.9000000000	2.5228705017
2.9050000000	2.6124957961
2.9100000000	2.6984702702
2.9150000000	2.7780900854
2.9200000000	2.8485178779
2.9250000000	2.9065344591
2.9300000000	2.9491756409
2.9350000000	2.9718309394
2.9400000000	2.9725107488
2.9450000000	2.9503677128
2.9500000000	2.9066792671
2.9550000000	2.8447654467
2.9600000000	2.7694181540
2.9650000000	2.6860669639
2.9700000000	2.5999621338
2.9750000000	2.5155905156
2.9800000000	2.4363900627
2.9850000000	2.3647063620
2.9900000000	2.3019501668
2.9950000000	2.2487836378
3.0000000000	2.2053460403
