# energy (eV)    P(omega), $W$ = 300 nm, $h$ = 300 nm, $s$ = 20 nm, $d/W = 5$, $E_{\rm e}$ = 200 keV
0.2000000000	0.1238688453
0.2050000000	0.1257247240
0.2100000000	0.1274596695
0.2150000000	0.1290776261
0.2200000000	0.1305819658
0.2250000000	0.1319755500
0.2300000000	0.1332605686
0.2350000000	0.1344384732
0.2400000000	0.1355098204
0.2450000000	0.1364742069
0.2500000000	0.1373300497
0.2550000000	0.1380743138
0.2600000000	0.1387024413
0.2650000000	0.1392078096
0.2700000000	0.1395814453
0.2750000000	0.1398114547
0.2800000000	0.1398823960
0.2850000000	0.1397744122
0.2900000000	0.1394620705
0.2950000000	0.1389130958
0.3000000000	0.1380862620
0.3050000000	0.1369290336
0.3100000000	0.1353741527
0.3150000000	0.1430739861
0.3200000000	0.1522185493
0.3250000000	0.1637848381
0.3300000000	0.1792750296
0.3350000000	0.1985562286
0.3400000000	0.2238052851
0.3450000000	0.2544291925
0.3500000000	0.2944896438
0.3550000000	0.3474953472
0.3600000000	0.4167019320
0.3650000000	0.5131803662
0.3700000000	0.6403878790
0.3750000000	0.8173310831
0.3800000000	1.0732314181
0.3850000000	1.4719598281
0.3900000000	2.1018391502
0.3950000000	3.1717260722
0.4000000000	5.2112463378
0.4050000000	9.7836655139
0.4100000000	22.2596907271
0.4150000000	71.4340743570
0.4200000000	45.5143727143
0.4250000000	-85.6632781738
0.4300000000	23.8192127298
0.4350000000	14.8424319674
0.4400000000	9.0726948894
0.4450000000	5.9670023336
0.4500000000	4.1791806574
0.4550000000	3.0789946352
0.4600000000	2.3624663837
0.4650000000	1.8742039802
0.4700000000	1.5291140268
0.4750000000	1.2795400087
0.4800000000	1.0945023885
0.4850000000	0.9552658052
0.4900000000	0.8489812635
0.4950000000	0.7670233402
0.5000000000	0.7034962539
0.5050000000	0.6540744468
0.5100000000	0.6159724510
0.5150000000	0.5871394598
0.5200000000	0.5654325146
0.5250000000	0.5498855441
0.5300000000	0.5394620846
0.5350000000	0.5334039781
0.5400000000	0.5311522543
0.5450000000	0.5322399968
0.5500000000	0.5365190978
0.5550000000	0.5437262603
0.5600000000	0.5537267267
0.5650000000	0.5664598275
0.5700000000	0.5818701821
0.5750000000	0.6000653678
0.5800000000	0.6212203185
0.5850000000	0.6454490394
0.5900000000	0.6729728157
0.5950000000	0.7040701320
0.6000000000	0.7390957218
0.6050000000	0.7785640028
0.6100000000	0.8229655653
0.6150000000	0.8729708419
0.6200000000	0.9294741800
0.6250000000	0.9933330001
0.6300000000	1.0658147368
0.6350000000	1.1484990656
0.6400000000	1.2430295528
0.6450000000	1.3517787660
0.6500000000	1.4778661232
0.6550000000	1.6245387471
0.6600000000	1.7967875719
0.6650000000	2.0010161864
0.6700000000	2.2447531018
0.6750000000	2.5394784943
0.6800000000	2.9006312421
0.6850000000	3.3484354311
0.6900000000	3.9142147727
0.6950000000	4.6417774266
0.7000000000	5.6007129775
0.7050000000	6.8974047151
0.7100000000	8.7121055436
0.7150000000	11.3656850636
0.7200000000	15.4555006528
0.7250000000	22.2442704228
0.7300000000	34.7050340373
0.7350000000	61.3672456874
0.7400000000	134.4885106306
0.7450000000	446.1563483751
0.7500000000	1382.1737820433
0.7550000000	347.7105646780
0.7600000000	115.1519882197
0.7650000000	55.1734607483
0.7700000000	32.0864410337
0.7750000000	20.9416096656
0.7800000000	14.7372788128
0.7850000000	10.9452261414
0.7900000000	8.4559584499
0.7950000000	6.7391784152
0.8000000000	5.5050566224
0.8050000000	4.5859174450
0.8100000000	3.8850274469
0.8150000000	3.3294254055
0.8200000000	2.8909313445
0.8250000000	2.5378634710
0.8300000000	2.2486472743
0.8350000000	2.0108593546
0.8400000000	1.8115249523
0.8450000000	1.6442582595
0.8500000000	1.5028701389
0.8550000000	1.3808588180
0.8600000000	1.2767020105
0.8650000000	1.1877344909
0.8700000000	1.1091247659
0.8750000000	1.0422556581
0.8800000000	0.9855153378
0.8850000000	0.9346445817
0.8900000000	0.8938365397
0.8950000000	0.8567138015
0.9000000000	0.8272915172
0.9050000000	0.8070268878
0.9100000000	0.7884561425
0.9150000000	0.7771898543
0.9200000000	0.7758299978
0.9250000000	0.7748206366
0.9300000000	0.7634518132
0.9350000000	0.7293458932
0.9400000000	0.5393615472
0.9450000000	-0.3241531068
0.9500000000	-4.8812270736
0.9550000000	-27.9952425617
0.9600000000	6.6058724112
0.9650000000	11.6040529979
0.9700000000	5.1468126970
0.9750000000	2.7019516600
0.9800000000	1.6933545119
0.9850000000	1.2216323103
0.9900000000	0.9498373116
0.9950000000	0.7850277272
1.0000000000	0.6797963869
1.0050000000	0.6130819665
1.0100000000	0.5613620631
1.0150000000	0.5235773941
1.0200000000	0.4981271454
1.0250000000	0.4767656170
1.0300000000	0.4605376729
1.0350000000	0.4482614593
1.0400000000	0.4404567436
1.0450000000	0.4339673444
1.0500000000	0.4296868565
1.0550000000	0.4273617848
1.0600000000	0.4275648753
1.0650000000	0.4287019638
1.0700000000	0.4314230043
1.0750000000	0.4357392760
1.0800000000	0.4420772990
1.0850000000	0.4501205850
1.0900000000	0.4619853203
1.0950000000	0.4760752876
1.1000000000	0.4928631645
1.1050000000	0.5122118780
1.1100000000	0.5347324782
1.1150000000	0.5609313743
1.1200000000	0.5914087836
1.1250000000	0.6269496630
1.1300000000	0.6686049918
1.1350000000	0.7176832951
1.1400000000	0.7756745534
1.1450000000	0.8452996001
1.1500000000	0.9295163599
1.1550000000	1.0326013951
1.1600000000	1.1605881271
1.1650000000	1.3213050601
1.1700000000	1.5294181255
1.1750000000	1.8043957209
1.1800000000	2.1784228870
1.1850000000	2.7044031581
1.1900000000	3.4820412119
1.1950000000	4.7027790530
1.2000000000	6.7733249326
1.2050000000	10.6861059566
1.2100000000	19.2934265985
1.2150000000	42.5588564673
1.2200000000	104.4478085281
1.2250000000	93.8392471379
1.2300000000	37.4314240384
1.2350000000	17.5555572758
1.2400000000	10.0270717383
1.2450000000	6.5703569328
1.2500000000	4.7467773902
1.2550000000	3.6943259361
1.2600000000	3.0538732295
1.2650000000	2.6526730694
1.2700000000	2.4134033057
1.2750000000	2.2859304018
1.2800000000	2.2463861698
1.2850000000	2.2843428493
1.2900000000	2.3989513001
1.2950000000	2.5961700189
1.3000000000	2.9003547089
1.3050000000	3.3427389410
1.3100000000	3.9815599818
1.3150000000	4.9175837480
1.3200000000	6.3319634107
1.3250000000	8.5699727669
1.3300000000	12.3878076543
1.3350000000	19.5386968974
1.3400000000	34.8222389384
1.3450000000	72.7638779221
1.3500000000	154.4219240435
1.3550000000	144.0204243333
1.3600000000	66.4146751538
1.3650000000	32.6319662634
1.3700000000	18.7140787367
1.3750000000	12.0348777027
1.3800000000	8.3930161876
1.3850000000	6.1991975756
1.3900000000	4.7852534324
1.3950000000	3.8205627660
1.4000000000	3.1343581668
1.4050000000	2.6303574220
1.4100000000	2.2502456898
1.4150000000	1.9591855213
1.4200000000	1.7325988866
1.4250000000	1.5639515504
1.4300000000	1.4565703721
1.4350000000	1.3854354918
1.4400000000	0.9520319940
1.4450000000	-0.2482802348
1.4500000000	-2.3372748730
1.4550000000	-0.7812921161
1.4600000000	2.3761240808
1.4650000000	1.3768280747
1.4700000000	-0.8769918091
1.4750000000	-4.4418908693
1.4800000000	-1.9595476957
1.4850000000	3.3583766596
1.4900000000	2.7187067886
1.4950000000	1.7639490068
1.5000000000	1.2419648265
1.5050000000	0.9593853785
1.5100000000	0.7976295140
1.5150000000	0.6984540525
1.5200000000	0.6334967557
1.5250000000	0.5922698622
1.5300000000	0.5597835988
1.5350000000	0.5361878873
1.5400000000	0.5190994375
1.5450000000	0.5070973764
1.5500000000	0.4992001753
1.5550000000	0.4949995620
1.5600000000	0.4953443894
1.5650000000	0.4985282310
1.5700000000	0.5063809672
1.5750000000	0.5203451193
1.5800000000	0.5432921276
1.5850000000	0.5808755460
1.5900000000	0.6450548210
1.5950000000	0.7622675684
1.6000000000	0.9882255920
1.6050000000	1.3590585479
1.6100000000	1.5318826784
1.6150000000	1.2191634753
1.6200000000	0.9292365807
1.6250000000	0.7818450792
1.6300000000	0.7141669763
1.6350000000	0.6862312842
1.6400000000	0.6799333203
1.6450000000	0.6869913709
1.6500000000	0.7033741837
1.6550000000	0.7274234699
1.6600000000	0.7582941819
1.6650000000	0.7958698708
1.6700000000	0.8404604889
1.6750000000	0.8927077939
1.6800000000	0.9535516189
1.6850000000	1.0242467549
1.6900000000	1.1062523193
1.6950000000	1.2004154432
1.7000000000	1.3088123436
1.7050000000	1.4342326932
1.7100000000	1.5862440654
1.7150000000	1.8417073296
1.7200000000	2.2275554394
1.7250000000	2.6447109887
1.7300000000	3.1407680467
1.7350000000	3.6774459725
1.7400000000	4.1728278436
1.7450000000	4.7971357363
1.7500000000	5.7542158935
1.7550000000	7.1897658973
1.7600000000	9.3435732210
1.7650000000	12.6663601877
1.7700000000	18.0189989356
1.7750000000	27.0343957093
1.7800000000	42.3891448119
1.7850000000	65.0159936125
1.7900000000	80.7436547640
1.7950000000	68.6997936953
1.8000000000	45.6774654278
1.8050000000	28.8127559868
1.8100000000	18.9704986971
1.8150000000	13.2031481337
1.8200000000	9.6541145526
1.8250000000	7.3528601949
1.8300000000	5.7895375386
1.8350000000	4.6848900462
1.8400000000	3.8786339220
1.8450000000	3.2734161511
1.8500000000	2.8078189994
1.8550000000	2.4433347695
1.8600000000	2.1528782747
1.8650000000	1.9178323626
1.8700000000	1.7246315745
1.8750000000	1.5628705876
1.8800000000	1.4236927592
1.8850000000	1.2984634171
1.8900000000	1.1764961464
1.8950000000	1.0416029052
1.9000000000	0.8663542292
1.9050000000	0.5612405616
1.9100000000	0.1230903348
1.9150000000	-0.2987086894
1.9200000000	0.2110077369
1.9250000000	2.2496511377
1.9300000000	3.8781894879
1.9350000000	3.9146625894
1.9400000000	3.1425248477
1.9450000000	2.3817517904
1.9500000000	1.8425345424
1.9550000000	1.4858632226
1.9600000000	1.2481795568
1.9650000000	1.0898028442
1.9700000000	0.9732144400
1.9750000000	0.8877219953
1.9800000000	0.8228344949
1.9850000000	0.7710285523
1.9900000000	0.7267040931
1.9950000000	0.6851141862
2.0000000000	0.6454054103
2.0050000000	0.6217960264
2.0100000000	0.6376698155
2.0150000000	0.6790638882
2.0200000000	0.7070363415
2.0250000000	0.7192026701
2.0300000000	0.7284864949
2.0350000000	0.7408673804
2.0400000000	0.7592548527
2.0450000000	0.7848847632
2.0500000000	0.8190139337
2.0550000000	0.8628921858
2.0600000000	0.9165907161
2.0650000000	0.9758207828
2.0700000000	1.0299072422
2.0750000000	1.0705130354
2.0800000000	1.1038345378
2.0850000000	1.1433387277
2.0900000000	1.1975905992
2.0950000000	1.2695575546
2.1000000000	1.3615097471
2.1050000000	1.4720588957
2.1100000000	1.6089074693
2.1150000000	1.7775756240
2.1200000000	1.9860036679
2.1250000000	2.2454584550
2.1300000000	2.5719047139
2.1350000000	2.9881844357
2.1400000000	3.5272881368
2.1450000000	4.2374379004
2.1500000000	5.1888563936
2.1550000000	6.4808660412
2.1600000000	8.2405428985
2.1650000000	10.5755762707
2.1700000000	13.4449101389
2.1750000000	16.3060731237
2.1800000000	18.1028893260
2.1850000000	18.2712265143
2.1900000000	17.5889458825
2.1950000000	17.1049059735
2.2000000000	16.9357677289
2.2050000000	16.1399030987
2.2100000000	14.3144075498
2.2150000000	12.0175166257
2.2200000000	9.9283545505
2.2250000000	8.2355424591
2.2300000000	6.8459093310
2.2350000000	5.6829942142
2.2400000000	4.7282004388
2.2450000000	3.9742891900
2.2500000000	3.3900460062
2.2550000000	2.9378673300
2.2600000000	2.5829490191
2.2650000000	2.2939225484
2.2700000000	2.0410981457
2.2750000000	1.7993890845
2.2800000000	1.5629753426
2.2850000000	1.3607234726
2.2900000000	1.2417934566
2.2950000000	1.2282153180
2.3000000000	1.2820286152
2.3050000000	1.3387307165
2.3100000000	1.3587778618
2.3150000000	1.3434158614
2.3200000000	1.3097433300
2.3250000000	1.2753335078
2.3300000000	1.2495157313
2.3350000000	1.2350143391
2.3400000000	1.2297815380
2.3450000000	1.2278580811
2.3500000000	1.2215677610
2.3550000000	1.2060068256
2.3600000000	1.1825319449
2.3650000000	1.1571245471
2.3700000000	1.1358639595
2.3750000000	1.1221287716
2.3800000000	1.1164605133
2.3850000000	1.1175002308
2.3900000000	1.1235123690
2.3950000000	1.1328341261
2.4000000000	1.1462938840
2.4050000000	1.1674069771
2.4100000000	1.1976687481
2.4150000000	1.2391426645
2.4200000000	1.2932511030
2.4250000000	1.3615189963
2.4300000000	1.4458172849
2.4350000000	1.5485444904
2.4400000000	1.6727876217
2.4450000000	1.8225051313
2.4500000000	2.0027140820
2.4550000000	2.2197443091
2.4600000000	2.4813799964
2.4650000000	2.7970044617
2.4700000000	3.1774164929
2.4750000000	3.6335041739
2.4800000000	4.1767592576
2.4850000000	4.8119559233
2.4900000000	5.5331455999
2.4950000000	6.3140226207
2.5000000000	7.0977901343
2.5050000000	7.8242132034
2.5100000000	8.3005181465
2.5150000000	8.4185704729
2.5200000000	8.1602983076
2.5250000000	7.6058039705
2.5300000000	6.8823617453
2.5350000000	6.1054307503
2.5400000000	5.3512044556
2.5450000000	4.6594408796
2.5500000000	4.0461485211
2.5550000000	3.5140762098
2.5600000000	3.0556340177
2.5650000000	2.6691534633
2.5700000000	2.3464291450
2.5750000000	2.0825030629
2.5800000000	1.8735847442
2.5850000000	1.7152014023
2.5900000000	1.5995319501
2.5950000000	1.5153510309
2.6000000000	1.4509249044
2.6050000000	1.4049542194
2.6100000000	1.3641964723
2.6150000000	1.3281048837
2.6200000000	1.2975266974
2.6250000000	1.2733302961
2.6300000000	1.2560724833
2.6350000000	1.2460198684
2.6400000000	1.2433131647
2.6450000000	1.2480951662
2.6500000000	1.2606592959
2.6550000000	1.2810712618
2.6600000000	1.3097791853
2.6650000000	1.3472092538
2.6700000000	1.3938637098
2.6750000000	1.4503295946
2.6800000000	1.5172344481
2.6850000000	1.5952211317
2.6900000000	1.6848582462
2.6950000000	1.7865810975
2.7000000000	1.9005502112
2.7050000000	2.0401013708
2.7100000000	2.1946259382
2.7150000000	2.3622389505
2.7200000000	2.5397726200
2.7250000000	2.7227216140
2.7300000000	2.9052531809
2.7350000000	3.0802271180
2.7400000000	3.2391487995
2.7450000000	3.3735410709
2.7500000000	3.4708163567
2.7550000000	3.5226423047
2.7600000000	3.5227263625
2.7650000000	3.4696826665
2.7700000000	3.3677366998
2.7750000000	3.2260123555
2.7800000000	3.0565514160
2.7850000000	2.8721616073
2.7900000000	2.6843170813
2.7950000000	2.5022146413
2.8000000000	2.3323616281
2.8050000000	2.1598356871
2.8100000000	2.0113198934
2.8150000000	1.8864815925
2.8200000000	1.7833703663
2.8250000000	1.6993933157
2.8300000000	1.6319352396
2.8350000000	1.5787698462
2.8400000000	1.5375292514
2.8450000000	1.5083571173
2.8500000000	1.4895141649
2.8550000000	1.4803425030
2.8600000000	1.4803571791
2.8650000000	1.4891469806
2.8700000000	1.5063106960
2.8750000000	1.5313901604
2.8800000000	1.5638262789
2.8850000000	1.6029100898
2.8900000000	1.6477950103
2.8950000000	1.6974786905
2.9000000000	1.7508574569
2.9050000000	1.8183606615
2.9100000000	1.8858266130
2.9150000000	1.9508462621
2.9200000000	2.0106533299
2.9250000000	2.0620559913
2.9300000000	2.1020805908
2.9350000000	2.1265575981
2.9400000000	2.1334995095
2.9450000000	2.1219354129
2.9500000000	2.0926586423
2.9550000000	2.0481589095
2.9600000000	1.9921395939
2.9650000000	1.9288646437
2.9700000000	1.8625041648
2.9750000000	1.7966542501
2.9800000000	1.7340956049
2.9850000000	1.6767499419
2.9900000000	1.6258011575
2.9950000000	1.5818236718
3.0000000000	1.5449838903
