# energy (eV)    P(omega), $W$ = 300 nm, $h$ = 300 nm, $s$ = 20 nm, $d/W = 5$, $E_{\rm e}$ = 200 keV
0.2000000000	0.2322202209
0.2050000000	0.2355555005
0.2100000000	0.2386911871
0.2150000000	0.2416335075
0.2200000000	0.2443878282
0.2250000000	0.2469585832
0.2300000000	0.2493490223
0.2350000000	0.2515611725
0.2400000000	0.2535955970
0.2450000000	0.2554509001
0.2500000000	0.2571240024
0.2550000000	0.2586090087
0.2600000000	0.2598973086
0.2650000000	0.2609769130
0.2700000000	0.2618313829
0.2750000000	0.2624392140
0.2800000000	0.2627725315
0.2850000000	0.2627956944
0.2900000000	0.2624629197
0.2950000000	0.2617164764
0.3000000000	0.2604820321
0.3050000000	0.2586656719
0.3100000000	0.2561468240
0.3150000000	0.2699353151
0.3200000000	0.2863134224
0.3250000000	0.3070167953
0.3300000000	0.3347206206
0.3350000000	0.3692162760
0.3400000000	0.4143936381
0.3450000000	0.4692392182
0.3500000000	0.5410175858
0.3550000000	0.6360424376
0.3600000000	0.7602114711
0.3650000000	0.9334004099
0.3700000000	1.1619928390
0.3750000000	1.4802225578
0.3800000000	1.9408135090
0.3850000000	2.6589553823
0.3900000000	3.7943463364
0.3950000000	5.7243996603
0.4000000000	9.4063107898
0.4050000000	17.6667352455
0.4100000000	40.2229884207
0.4150000000	129.1964779353
0.4200000000	82.2358679009
0.4250000000	-155.2465665896
0.4300000000	43.2643842070
0.4350000000	26.9961059855
0.4400000000	16.5283691224
0.4450000000	10.8896475559
0.4500000000	7.6413886076
0.4550000000	5.6411898833
0.4600000000	4.3377081958
0.4650000000	3.4489903650
0.4700000000	2.8205655422
0.4750000000	2.3659240131
0.4800000000	2.0287716884
0.4850000000	1.7750706721
0.4900000000	1.5814597712
0.4950000000	1.4322495907
0.5000000000	1.3167191605
0.5050000000	1.2269929352
0.5100000000	1.1580103222
0.5150000000	1.1060476320
0.5200000000	1.0671890567
0.5250000000	1.0396910425
0.5300000000	1.0216662208
0.5350000000	1.0117382788
0.5400000000	1.0088942892
0.5450000000	1.0122885237
0.5500000000	1.0216695555
0.5550000000	1.0365657566
0.5600000000	1.0567476194
0.5650000000	1.0821184258
0.5700000000	1.1125965110
0.5750000000	1.1484000274
0.5800000000	1.1898837025
0.5850000000	1.2372806100
0.5900000000	1.2910340883
0.5950000000	1.3516936847
0.6000000000	1.4199585449
0.6050000000	1.4968306308
0.6100000000	1.5832752962
0.6150000000	1.6806025145
0.6200000000	1.7905607979
0.6250000000	1.9148242861
0.6300000000	2.0558673690
0.6350000000	2.2167742081
0.6400000000	2.4007552967
0.6450000000	2.6124424246
0.6500000000	2.8579273319
0.6550000000	3.1435530733
0.6600000000	3.4790646680
0.6650000000	3.8769760158
0.6700000000	4.3519991282
0.6750000000	4.9265595748
0.6800000000	5.6308510906
0.6850000000	6.5043987468
0.6900000000	7.6084700867
0.6950000000	9.0287248330
0.7000000000	10.9013137117
0.7050000000	13.4343708409
0.7100000000	16.9806652808
0.7150000000	22.1682463495
0.7200000000	30.1666097133
0.7250000000	43.4483854424
0.7300000000	67.8366383676
0.7350000000	120.0408743004
0.7400000000	263.2707351159
0.7450000000	874.0461934840
0.7500000000	2709.8435038835
0.7550000000	682.2422176745
0.7600000000	226.1184408593
0.7650000000	108.4283809499
0.7700000000	63.1084599109
0.7750000000	41.2224383805
0.7800000000	29.0337445362
0.7850000000	21.5812767642
0.7900000000	16.6873399424
0.7950000000	13.3108637252
0.8000000000	10.8827920526
0.8050000000	9.0737961572
0.8100000000	7.6938557030
0.8150000000	6.5995162686
0.8200000000	5.7355580554
0.8250000000	5.0397098248
0.8300000000	4.4695068058
0.8350000000	4.0005898386
0.8400000000	3.6074064939
0.8450000000	3.2774019948
0.8500000000	2.9984289193
0.8550000000	2.7576185768
0.8600000000	2.5520426971
0.8650000000	2.3764878365
0.8700000000	2.2213231140
0.8750000000	2.0894033859
0.8800000000	1.9775692621
0.8850000000	1.8772930569
0.8900000000	1.7970710892
0.8950000000	1.7240850549
0.9000000000	1.6664776083
0.9050000000	1.6272507136
0.9100000000	1.5913251188
0.9150000000	1.5700811264
0.9200000000	1.5688429843
0.9250000000	1.5682015251
0.9300000000	1.5462906392
0.9350000000	1.4776366496
0.9400000000	1.0899951550
0.9450000000	-0.6765135397
0.9500000000	-10.0085708289
0.9550000000	-57.3767094986
0.9600000000	13.5524171394
0.9650000000	23.8201782829
0.9700000000	10.5723575789
0.9750000000	5.5527553553
0.9800000000	3.4808177644
0.9850000000	2.5114946816
0.9900000000	1.9527039963
0.9950000000	1.6137520266
1.0000000000	1.3972896726
1.0050000000	1.2601178655
1.0100000000	1.1536549577
1.0150000000	1.0758311856
1.0200000000	1.0234366650
1.0250000000	0.9793430808
1.0300000000	0.9457708463
1.0350000000	0.9202817378
1.0400000000	0.9040003418
1.0450000000	0.8903097599
1.0500000000	0.8810947978
1.0550000000	0.8758278844
1.0600000000	0.8757263939
1.0650000000	0.8774030240
1.0700000000	0.8822253351
1.0750000000	0.8902093302
1.0800000000	0.9022513643
1.0850000000	0.9175605150
1.0900000000	0.9403817963
1.0950000000	0.9675215911
1.1000000000	0.9999331244
1.1050000000	1.0371984522
1.1100000000	1.0805352541
1.1150000000	1.1309038590
1.1200000000	1.1894830701
1.1250000000	1.2576158937
1.1300000000	1.3373352582
1.1350000000	1.4310952038
1.1400000000	1.5417369545
1.1450000000	1.6742372320
1.1500000000	1.8341817212
1.1550000000	2.0295638494
1.1600000000	2.2716589136
1.1650000000	2.5751411060
1.1700000000	2.9672765018
1.1750000000	3.4844560069
1.1800000000	4.1867535132
1.1850000000	5.1728557202
1.1900000000	6.6290348324
1.1950000000	8.9123029398
1.2000000000	12.7819279885
1.2050000000	20.0907150342
1.2100000000	36.1648029360
1.2150000000	79.6186158858
1.2200000000	195.2716686014
1.2250000000	175.6153860529
1.2300000000	70.2626242500
1.2350000000	33.1301326716
1.2400000000	19.0725004904
1.2450000000	12.6302898580
1.2500000000	9.2458941611
1.2550000000	7.3086125526
1.2600000000	6.1478804460
1.2650000000	5.4416355844
1.2700000000	5.0475916294
1.2750000000	4.8739557856
1.2800000000	4.8792481231
1.2850000000	5.0482982027
1.2900000000	5.3857460454
1.2950000000	5.9108306866
1.3000000000	6.6838652887
1.3050000000	7.7833727838
1.3100000000	9.3513417980
1.3150000000	11.6323962943
1.3200000000	15.0644896314
1.3250000000	20.4839803818
1.3300000000	29.7162859862
1.3350000000	46.9997906330
1.3400000000	83.9369670340
1.3450000000	175.6545671909
1.3500000000	373.1554183772
1.3550000000	348.2490357192
1.3600000000	160.6559752615
1.3650000000	78.9478656668
1.3700000000	45.2755630152
1.3750000000	29.1134791237
1.3800000000	20.3007011614
1.3850000000	14.9928629147
1.3900000000	11.5737100658
1.3950000000	9.2424520241
1.4000000000	7.5870102664
1.4050000000	6.3748282023
1.4100000000	5.4664615780
1.4150000000	4.7811087371
1.4200000000	4.2658560295
1.4250000000	3.9210391206
1.4300000000	3.7955412637
1.4350000000	3.8676009620
1.4400000000	2.9810002406
1.4450000000	0.2632760543
1.4500000000	-4.1464976306
1.4550000000	-1.1602412902
1.4600000000	5.0295943576
1.4650000000	2.7211628638
1.4700000000	-2.5783250871
1.4750000000	-11.2717225636
1.4800000000	-5.0171122359
1.4850000000	8.2428359707
1.4900000000	6.6817017808
1.4950000000	4.3247087619
1.5000000000	3.0384878568
1.5050000000	2.3459199653
1.5100000000	1.9511796203
1.5150000000	1.7114588677
1.5200000000	1.5566060155
1.5250000000	1.4603901703
1.5300000000	1.3868945227
1.5350000000	1.3362338684
1.5400000000	1.3028620536
1.5450000000	1.2838035331
1.5500000000	1.2771357903
1.5550000000	1.2829074597
1.5600000000	1.3045385553
1.5650000000	1.3402716651
1.5700000000	1.3981335336
1.5750000000	1.4879144249
1.5800000000	1.6279974453
1.5850000000	1.8541670046
1.5900000000	2.2418164602
1.5950000000	2.9577891915
1.6000000000	4.3545186286
1.6050000000	6.6640403770
1.6100000000	7.7338299189
1.6150000000	5.7289295680
1.6200000000	3.8479859578
1.6250000000	2.8550904347
1.6300000000	2.3565584622
1.6350000000	2.0999049352
1.6400000000	1.9698287315
1.6450000000	1.9127395654
1.6500000000	1.9017998672
1.6550000000	1.9244403874
1.6600000000	1.9731571734
1.6650000000	2.0445242712
1.6700000000	2.1372396338
1.6750000000	2.2513104853
1.6800000000	2.3877554762
1.6850000000	2.5481545339
1.6900000000	2.7339007704
1.6950000000	2.9423411340
1.7000000000	3.1699523125
1.7050000000	3.4031071492
1.7100000000	3.6691038326
1.7150000000	4.3310821907
1.7200000000	5.4929065125
1.7250000000	6.5568171041
1.7300000000	7.6981783028
1.7350000000	8.9524328370
1.7400000000	10.1835627637
1.7450000000	11.7650123120
1.7500000000	14.1563617461
1.7550000000	17.7154788941
1.7600000000	23.0404941769
1.7650000000	31.2490146782
1.7700000000	44.4715095096
1.7750000000	66.7480294090
1.7800000000	104.7069297083
1.7850000000	160.6877950239
1.7900000000	199.6929906437
1.7950000000	170.0434873414
1.8000000000	113.1694383244
1.8050000000	71.4696031334
1.8100000000	47.1219874328
1.8150000000	32.8508469495
1.8200000000	24.0681748023
1.8250000000	18.3743354240
1.8300000000	14.5084171560
1.8350000000	11.7796984488
1.8400000000	9.7917091512
1.8450000000	8.3039443749
1.8500000000	7.1648327776
1.8550000000	6.2795333181
1.8600000000	5.5818874441
1.8650000000	5.0269344511
1.8700000000	4.5827003222
1.8750000000	4.2257145292
1.8800000000	3.9373655831
1.8850000000	3.7012140670
1.8900000000	3.4983237870
1.8950000000	3.3004393574
1.9000000000	3.0587641268
1.9050000000	2.6010240558
1.9100000000	1.9712057546
1.9150000000	1.6392461031
1.9200000000	4.0004967106
1.9250000000	10.5212984915
1.9300000000	15.6926615222
1.9350000000	15.4504820806
1.9400000000	12.1517009238
1.9450000000	8.9535346723
1.9500000000	6.7080961097
1.9550000000	5.2368427559
1.9600000000	4.2646088821
1.9650000000	3.6138713335
1.9700000000	3.1441092490
1.9750000000	2.7997566929
1.9800000000	2.5368550917
1.9850000000	2.3235112086
1.9900000000	2.1353191576
1.9950000000	1.9509783234
2.0000000000	1.7673843042
2.0050000000	1.6500797145
2.0100000000	1.7172710864
2.0150000000	1.9023831769
2.0200000000	2.0165022343
2.0250000000	2.0467794728
2.0300000000	2.0535448651
2.0350000000	2.0658866507
2.0400000000	2.0946065554
2.0450000000	2.1424518756
2.0500000000	2.2112000653
2.0550000000	2.3024637242
2.0600000000	2.4162441342
2.0650000000	2.5456690677
2.0700000000	2.6736948852
2.0750000000	2.7875544341
2.0800000000	2.8985331376
2.0850000000	3.0299593912
2.0900000000	3.1974784076
2.0950000000	3.4076891623
2.1000000000	3.6677057947
2.1050000000	3.9751840258
2.1100000000	4.3517333782
2.1150000000	4.8131533040
2.1200000000	5.3815972988
2.1250000000	6.0881377391
2.1300000000	6.9765717069
2.1350000000	8.1094280714
2.1400000000	9.5769952168
2.1450000000	11.5112760417
2.1500000000	14.1046031165
2.1550000000	17.6291810848
2.1600000000	22.4333907620
2.1650000000	28.8122712819
2.1700000000	36.6478088590
2.1750000000	44.4379790238
2.1800000000	49.2512836884
2.1850000000	49.5012150704
2.1900000000	47.3123667588
2.1950000000	45.6089106413
2.2000000000	44.8534523604
2.2050000000	42.7560539113
2.2100000000	38.3034503350
2.2150000000	32.8291447352
2.2200000000	27.9149249222
2.2250000000	23.8532643517
2.2300000000	20.2761276917
2.2350000000	17.0412893703
2.2400000000	14.2624169675
2.2450000000	12.0388805204
2.2500000000	10.3343655358
2.2550000000	9.0539733110
2.2600000000	8.0953623906
2.2650000000	7.3559602953
2.2700000000	6.7248667680
2.2750000000	6.0928032298
2.2800000000	5.4122146916
2.2850000000	4.7644856177
2.2900000000	4.3167685648
2.2950000000	4.1637103607
2.3000000000	4.2181779961
2.3050000000	4.3014700064
2.3100000000	4.3083732835
2.3150000000	4.2397327249
2.3200000000	4.1410872666
2.3250000000	4.0594754845
2.3300000000	4.0189643282
2.3350000000	4.0236852692
2.3400000000	4.0601512534
2.3450000000	4.0978416663
2.3500000000	4.0983262758
2.3550000000	4.0370864523
2.3600000000	3.9210606505
2.3650000000	3.7805678466
2.3700000000	3.6468611769
2.3750000000	3.5386077825
2.3800000000	3.4618734226
2.3850000000	3.4149479146
2.3900000000	3.3939252545
2.3950000000	3.3942777445
2.4000000000	3.4172381819
2.4050000000	3.4703554460
2.4100000000	3.5561544179
2.4150000000	3.6781357751
2.4200000000	3.8384046637
2.4250000000	4.0406475501
2.4300000000	4.2902414690
2.4350000000	4.5943992852
2.4400000000	4.9624293640
2.4450000000	5.4062153079
2.4500000000	5.9407514809
2.4550000000	6.5848826242
2.4600000000	7.3617626565
2.4650000000	8.2991705452
2.4700000000	9.4289650694
2.4750000000	10.7830572310
2.4800000000	12.3943995305
2.4850000000	14.2760294923
2.4900000000	16.4095427437
2.4950000000	18.7185791353
2.5000000000	21.0416727620
2.5050000000	23.2148023976
2.5100000000	24.6829093655
2.5150000000	25.1258532870
2.5200000000	24.4673288175
2.5250000000	22.9105983347
2.5300000000	20.8098058975
2.5350000000	18.5065234378
2.5400000000	16.2420849397
2.5450000000	14.1528512721
2.5500000000	12.2994623362
2.5550000000	10.6957239344
2.5600000000	9.3195851992
2.5650000000	8.1626002583
2.5700000000	7.1975284886
2.5750000000	6.4073161381
2.5800000000	5.7792257214
2.5850000000	5.2994113451
2.5900000000	4.9451014661
2.5950000000	4.6842808761
2.6000000000	4.4836148781
2.6050000000	4.3410014564
2.6100000000	4.2175166860
2.6150000000	4.1112037693
2.6200000000	4.0241621685
2.6250000000	3.9587197518
2.6300000000	3.9164305676
2.6350000000	3.8980881355
2.6400000000	3.9041530620
2.6450000000	3.9350541190
2.6500000000	3.9916307250
2.6550000000	4.0741185769
2.6600000000	4.1837848491
2.6650000000	4.3219102956
2.6700000000	4.4900676078
2.6750000000	4.6901615271
2.6800000000	4.9243016929
2.6850000000	5.1946455348
2.6900000000	5.5029585439
2.6950000000	5.8502640981
2.7000000000	6.2362076434
2.7050000000	6.7046811641
2.7100000000	7.2159441351
2.7150000000	7.7600376508
2.7200000000	8.3224791549
2.7250000000	8.8850763149
2.7300000000	9.4273045633
2.7350000000	9.9274896790
2.7400000000	10.3630947080
2.7450000000	10.7141165286
2.7500000000	10.9495253488
2.7550000000	11.0505375062
2.7600000000	11.0029004438
2.7650000000	10.8049573721
2.7700000000	10.4699720423
2.7750000000	10.0245175169
2.7800000000	9.5032296760
2.7850000000	8.9428534055
2.7900000000	8.3763579889
2.7950000000	7.8301821493
2.8000000000	7.3230207150
2.8050000000	6.8098895850
2.8100000000	6.3707162778
2.8150000000	6.0043243298
2.8200000000	5.7048168551
2.8250000000	5.4644214616
2.8300000000	5.2753082358
2.8350000000	5.1307763755
2.8400000000	5.0237719780
2.8450000000	4.9545402255
2.8500000000	4.9179543926
2.8550000000	4.9120608148
2.8600000000	4.9354001166
2.8650000000	4.9866570593
2.8700000000	5.0643611141
2.8750000000	5.1666459219
2.8800000000	5.2910657752
2.8850000000	5.4344398166
2.8900000000	5.5929443974
2.8950000000	5.7622558029
2.9000000000	5.9378269880
2.9050000000	6.1487975728
2.9100000000	6.3511773534
2.9150000000	6.5386013379
2.9200000000	6.7043899909
2.9250000000	6.8409646672
2.9300000000	6.9413479152
2.9350000000	6.9946864032
2.9400000000	6.9962965402
2.9450000000	6.9441837078
2.9500000000	6.8413544863
2.9550000000	6.6956237510
2.9600000000	6.5182709288
2.9650000000	6.3220765982
2.9700000000	6.1193995477
2.9750000000	5.9208016323
2.9800000000	5.7343752674
2.9850000000	5.5656422964
2.9900000000	5.4179234380
2.9950000000	5.2927771315
3.0000000000	5.1905313652
