# energy (eV)    P(omega), $W$ = 400 nm, $h$ = 300 nm, $s$ = 20 nm, $d/W = 5$, $E_{\rm e}$ = 200 keV
0.2000000000	0.1549330214
0.2050000000	0.1563421948
0.2100000000	0.1573342821
0.2150000000	0.1578925765
0.2200000000	0.1579937131
0.2250000000	0.1576059506
0.2300000000	0.1566875211
0.2350000000	0.1551840422
0.2400000000	0.1530255718
0.2450000000	0.1501219735
0.2500000000	0.1463580022
0.2550000000	0.1415853741
0.2600000000	0.1356130009
0.2650000000	0.1418703699
0.2700000000	0.1577653164
0.2750000000	0.1805104968
0.2800000000	0.2122009699
0.2850000000	0.2589210059
0.2900000000	0.3168103778
0.2950000000	0.3997996214
0.3000000000	0.5113607779
0.3050000000	0.6823573038
0.3100000000	0.9205499061
0.3150000000	1.3814418851
0.3200000000	2.1012648770
0.3250000000	2.5940845103
0.3300000000	3.2758128441
0.3350000000	4.2422601989
0.3400000000	5.7593868834
0.3450000000	8.3622891589
0.3500000000	13.5527003496
0.3550000000	25.5678528375
0.3600000000	62.8360875196
0.3650000000	0.2839095749
0.3700000000	29.1222805775
0.3750000000	38.2946264733
0.3800000000	17.8439673846
0.3850000000	10.0516650777
0.3900000000	6.4472522154
0.3950000000	4.5432437468
0.4000000000	3.4408242390
0.4050000000	2.7221242864
0.4100000000	2.2542347973
0.4150000000	1.9456358016
0.4200000000	1.7505948977
0.4250000000	1.5974150396
0.4300000000	1.4164116859
0.4350000000	1.2731581955
0.4400000000	1.1598606981
0.4450000000	1.0697757536
0.4500000000	0.9986541150
0.4550000000	0.9422565552
0.4600000000	0.8982617069
0.4650000000	0.8642143598
0.4700000000	0.8384890800
0.4750000000	0.8199486506
0.4800000000	0.8076006457
0.4850000000	0.8005748711
0.4900000000	0.7983567405
0.4950000000	0.8005503460
0.5000000000	0.8068173930
0.5050000000	0.8170070777
0.5100000000	0.8309959030
0.5150000000	0.8487104297
0.5200000000	0.8701873860
0.5250000000	0.8954568458
0.5300000000	0.9248898279
0.5350000000	0.9586511976
0.5400000000	0.9970379766
0.5450000000	1.0404395984
0.5500000000	1.0894071002
0.5550000000	1.1445432049
0.5600000000	1.2065815154
0.5650000000	1.2764654397
0.5700000000	1.3554972068
0.5750000000	1.4446420271
0.5800000000	1.5457058736
0.5850000000	1.6611563226
0.5900000000	1.7926577645
0.5950000000	1.9437125711
0.6000000000	2.1189477295
0.6050000000	2.3218311233
0.6100000000	2.5603123849
0.6150000000	2.8409837696
0.6200000000	3.1751617613
0.6250000000	3.5790817748
0.6300000000	4.0693008248
0.6350000000	4.6769316367
0.6400000000	5.4362993837
0.6450000000	6.4096924924
0.6500000000	7.6766779773
0.6550000000	9.3720335635
0.6600000000	11.7233302167
0.6650000000	15.0901083443
0.6700000000	20.1882111029
0.6750000000	28.3851859966
0.6800000000	42.8748750810
0.6850000000	71.9493560111
0.6900000000	144.1978379159
0.6950000000	404.7843883603
0.7000000000	1963.2364341163
0.7050000000	954.4748639383
0.7100000000	245.1844837482
0.7150000000	104.2662256260
0.7200000000	56.9411182939
0.7250000000	35.7692050786
0.7300000000	24.5327363252
0.7350000000	17.8903036088
0.7400000000	13.6367324658
0.7450000000	10.7495777121
0.7500000000	8.7043722391
0.7550000000	7.2018196990
0.7600000000	6.0693126764
0.7650000000	5.1910699438
0.7700000000	4.4977875529
0.7750000000	3.9412117625
0.7800000000	3.4889195754
0.7850000000	3.1165036247
0.7900000000	2.8045055652
0.7950000000	2.5439299999
0.8000000000	2.3223706319
0.8050000000	2.1325511333
0.8100000000	1.9709579011
0.8150000000	1.8293283149
0.8200000000	1.7060247221
0.8250000000	1.6025515230
0.8300000000	1.5119782701
0.8350000000	1.4332380694
0.8400000000	1.3705331992
0.8450000000	1.3158199492
0.8500000000	1.2694289856
0.8550000000	1.2401055976
0.8600000000	1.2166171345
0.8650000000	1.1997992520
0.8700000000	1.2056535930
0.8750000000	1.2077039227
0.8800000000	1.2012035115
0.8850000000	1.1489760904
0.8900000000	0.8916526285
0.8950000000	-0.3979273896
0.9000000000	-7.3130054732
0.9050000000	-48.0520284060
0.9100000000	9.1501037900
0.9150000000	21.6748147572
0.9200000000	8.9976551940
0.9250000000	4.6808589697
0.9300000000	2.8573240812
0.9350000000	1.9861005685
0.9400000000	1.5161143027
0.9450000000	1.2556056462
0.9500000000	1.0706044219
0.9550000000	0.9467690660
0.9600000000	0.8701855027
0.9650000000	0.8069983556
0.9700000000	0.7619150698
0.9750000000	0.7311968829
0.9800000000	0.7125061261
0.9850000000	0.7091033221
0.9900000000	0.7159674729
0.9950000000	0.7435839132
1.0000000000	0.8095688267
1.0050000000	0.9635922809
1.0100000000	1.3672316593
1.0150000000	2.7506237834
1.0200000000	5.2833537351
1.0250000000	2.4014711205
1.0300000000	1.2295656428
1.0350000000	0.8802750891
1.0400000000	0.7429129560
1.0450000000	0.6784665391
1.0500000000	0.6461528448
1.0550000000	0.6291922007
1.0600000000	0.6215679860
1.0650000000	0.6201228109
1.0700000000	0.6231062410
1.0750000000	0.6299011291
1.0800000000	0.6392863834
1.0850000000	0.6520643677
1.0900000000	0.6705335740
1.0950000000	0.6920675027
1.1000000000	0.7168768007
1.1050000000	0.7450061381
1.1100000000	0.7769004701
1.1150000000	0.8129840895
1.1200000000	0.8537606066
1.1250000000	0.8996466446
1.1300000000	0.9518311062
1.1350000000	1.0111150862
1.1400000000	1.0786985402
1.1450000000	1.1561071079
1.1500000000	1.2445278066
1.1550000000	1.3476575229
1.1600000000	1.4678325367
1.1650000000	1.6081102265
1.1700000000	1.7691100212
1.1750000000	1.9323027247
1.1800000000	2.0865469727
1.1850000000	2.9008693547
1.1900000000	3.5998947618
1.1950000000	4.9345095917
1.2000000000	6.7201962854
1.2050000000	5.8949852013
1.2100000000	5.6418109807
1.2150000000	6.2810530638
1.2200000000	7.5122461166
1.2250000000	9.4029328345
1.2300000000	12.2778413425
1.2350000000	16.8256387769
1.2400000000	24.4864023729
1.2450000000	38.9115709021
1.2500000000	70.1524342254
1.2550000000	151.8581152382
1.2600000000	366.8009590092
1.2650000000	371.5545551199
1.2700000000	154.5593334646
1.2750000000	71.3448646135
1.2800000000	39.5121539381
1.2850000000	24.8476664425
1.2900000000	17.0308704237
1.2950000000	12.4124102920
1.3000000000	9.4706609384
1.3050000000	7.4899974776
1.3100000000	6.0933193808
1.3150000000	5.0841613067
1.3200000000	4.3360847387
1.3250000000	3.7731483046
1.3300000000	3.3492270902
1.3350000000	3.0360220640
1.3400000000	2.8188486093
1.3450000000	2.6936937728
1.3500000000	2.6788680751
1.3550000000	2.8160472497
1.3600000000	3.2112502407
1.3650000000	4.1342505581
1.3700000000	6.3382651977
1.3750000000	11.8218087492
1.3800000000	19.3110591467
1.3850000000	13.4899212233
1.3900000000	6.8740530782
1.3950000000	3.9882074963
1.4000000000	2.6116889710
1.4050000000	1.7658306236
1.4100000000	1.0005028601
1.4150000000	-0.1408492863
1.4200000000	-2.6957531715
1.4250000000	-9.4652431605
1.4300000000	-12.7269104483
1.4350000000	5.8312510645
1.4400000000	7.4589316687
1.4450000000	4.4720342159
1.4500000000	2.7827402030
1.4550000000	1.9182884505
1.4600000000	1.4165129102
1.4650000000	1.0198341656
1.4700000000	0.5953556417
1.4750000000	0.6999989611
1.4800000000	1.0268403496
1.4850000000	0.9323867844
1.4900000000	0.8255556325
1.4950000000	0.7564621017
1.5000000000	0.7110771636
1.5050000000	0.6810693116
1.5100000000	0.6606552777
1.5150000000	0.6495138019
1.5200000000	0.6412996176
1.5250000000	0.6383308828
1.5300000000	0.6408790941
1.5350000000	0.6501130345
1.5400000000	0.6689503035
1.5450000000	0.7038707933
1.5500000000	0.7694393749
1.5550000000	0.8946879118
1.5600000000	1.0826929276
1.5650000000	1.1128291241
1.5700000000	0.9431917999
1.5750000000	0.8241613736
1.5800000000	0.7728255785
1.5850000000	0.7566889892
1.5900000000	0.7588089363
1.5950000000	0.7718279077
1.6000000000	0.7925406534
1.6050000000	0.8198442794
1.6100000000	0.8529150352
1.6150000000	0.8916307129
1.6200000000	0.9366083048
1.6250000000	0.9883800676
1.6300000000	1.0478205244
1.6350000000	1.1160570155
1.6400000000	1.1945310353
1.6450000000	1.2850836452
1.6500000000	1.3900257852
1.6550000000	1.5122860556
1.6600000000	1.6556587880
1.6650000000	1.8250416723
1.6700000000	2.0251971787
1.6750000000	2.2678110398
1.6800000000	2.5632135019
1.6850000000	2.9276556556
1.6900000000	3.3842115826
1.6950000000	3.9667418103
1.7000000000	4.7262211437
1.7050000000	5.7739614229
1.7100000000	7.2357786178
1.7150000000	9.3606206991
1.7200000000	12.5990604899
1.7250000000	17.7368716466
1.7300000000	25.6322035649
1.7350000000	35.7628157743
1.7400000000	48.5660753035
1.7450000000	71.0342024680
1.7500000000	100.2014999138
1.7550000000	101.8126555108
1.7600000000	71.4282739387
1.7650000000	44.4934793057
1.7700000000	28.5223665561
1.7750000000	19.4406188785
1.7800000000	14.0737465312
1.7850000000	10.7725596456
1.7900000000	8.7255130905
1.7950000000	7.5545680971
1.8000000000	7.0825735229
1.8050000000	6.9337705190
1.8100000000	6.1693121983
1.8150000000	4.7799905104
1.8200000000	3.6700051662
1.8250000000	3.0978264005
1.8300000000	2.6969245365
1.8350000000	2.3406206909
1.8400000000	2.0500888019
1.8450000000	1.8195457540
1.8500000000	1.6337619305
1.8550000000	1.4802903983
1.8600000000	1.3391260413
1.8650000000	1.2197869340
1.8700000000	1.0991821830
1.8750000000	0.9253340557
1.8800000000	0.5290781342
1.8850000000	-0.3393741805
1.8900000000	-1.5074938335
1.8950000000	-1.7079355553
1.9000000000	0.1828936520
1.9050000000	1.9458355050
1.9100000000	2.1515519657
1.9150000000	1.8176810332
1.9200000000	1.4904549036
1.9250000000	1.2582531661
1.9300000000	1.1176299440
1.9350000000	1.0102693981
1.9400000000	0.9388491376
1.9450000000	0.8915715850
1.9500000000	0.8585263569
1.9550000000	0.8308781986
1.9600000000	0.8070076074
1.9650000000	0.7900576592
1.9700000000	0.7810056351
1.9750000000	0.7792488357
1.9800000000	0.7842982430
1.9850000000	0.7962991831
1.9900000000	0.8160377912
1.9950000000	0.8444981119
2.0000000000	0.8809413598
2.0050000000	0.9222979708
2.0100000000	0.9519969366
2.0150000000	0.9718503026
2.0200000000	0.9957895160
2.0250000000	1.0326994724
2.0300000000	1.0851988974
2.0350000000	1.1546035351
2.0400000000	1.2432993038
2.0450000000	1.3554225821
2.0500000000	1.4969125992
2.0550000000	1.6743704514
2.0600000000	1.8910018450
2.0650000000	2.1434090312
2.0700000000	2.4353917783
2.0750000000	2.7995224264
2.0800000000	3.2895740573
2.0850000000	3.9579799088
2.0900000000	4.8352332254
2.0950000000	5.8582960531
2.1000000000	6.7700818363
2.1050000000	7.2117681855
2.1100000000	7.0016395868
2.1150000000	6.5183862087
2.1200000000	6.1766167569
2.1250000000	6.1614718525
2.1300000000	6.5278375640
2.1350000000	7.3191790410
2.1400000000	8.6225974163
2.1450000000	10.5922300239
2.1500000000	13.4439524972
2.1550000000	17.3399460117
2.1600000000	21.9660278125
2.1650000000	25.8542110220
2.1700000000	26.7729562668
2.1750000000	23.9661566213
2.1800000000	19.3485356497
2.1850000000	14.9283118884
2.1900000000	11.4723247492
2.1950000000	8.9754459711
2.2000000000	7.2236404744
2.2050000000	6.0149955832
2.2100000000	5.1759173713
2.2150000000	4.5323487706
2.2200000000	3.9557340911
2.2250000000	3.4073425304
2.2300000000	2.9108405820
2.2350000000	2.4845298562
2.2400000000	2.1234550454
2.2450000000	1.8116733551
2.2500000000	1.5333192766
2.2550000000	1.2795228269
2.2600000000	1.0257216770
2.2650000000	0.8410993998
2.2700000000	0.7408277292
2.2750000000	0.7661053394
2.2800000000	0.9118094071
2.2850000000	1.0973393288
2.2900000000	1.2331510665
2.2950000000	1.2933610736
2.3000000000	1.3002744620
2.3050000000	1.2795401150
2.3100000000	1.2522153868
2.3150000000	1.2280015543
2.3200000000	1.2107344796
2.3250000000	1.2025245575
2.3300000000	1.2050821040
2.3350000000	1.2198242066
2.3400000000	1.2479604886
2.3450000000	1.2907138846
2.3500000000	1.3493792384
2.3550000000	1.4258967313
2.3600000000	1.5190110235
2.3650000000	1.6293004768
2.3700000000	1.7564580289
2.3750000000	1.9018637560
2.3800000000	2.0707667395
2.3850000000	2.2693954956
2.3900000000	2.4991270613
2.3950000000	2.7497300230
2.4000000000	2.9949031163
2.4050000000	3.2061729662
2.4100000000	3.3232450137
2.4150000000	3.3343763715
2.4200000000	3.2682018471
2.4250000000	3.1735512866
2.4300000000	3.0937608382
2.4350000000	3.0549877283
2.4400000000	3.0676674290
2.4450000000	3.1334815661
2.4500000000	3.2526349087
2.4550000000	3.4277788854
2.4600000000	3.6701478713
2.4650000000	3.9912590158
2.4700000000	4.4039400206
2.4750000000	4.9162052061
2.4800000000	5.5240162244
2.4850000000	6.2014402612
2.4900000000	6.8891499287
2.4950000000	7.4886909629
2.5000000000	7.8768601464
2.5050000000	7.9267792048
2.5100000000	7.5877823732
2.5150000000	6.9524000492
2.5200000000	6.1684852465
2.5250000000	5.3659325103
2.5300000000	4.6239215661
2.5350000000	3.9757216760
2.5400000000	3.4262318003
2.5450000000	2.9672997544
2.5500000000	2.5871119374
2.5550000000	2.2750537953
2.5600000000	2.0141231758
2.5650000000	1.8188534837
2.5700000000	1.6785534971
2.5750000000	1.5882194932
2.5800000000	1.5378224402
2.5850000000	1.5136455681
2.5900000000	1.5028155791
2.5950000000	1.4973163213
2.6000000000	1.4945632284
2.6050000000	1.5065152393
2.6100000000	1.5254339961
2.6150000000	1.5542115011
2.6200000000	1.5943842558
2.6250000000	1.6460467279
2.6300000000	1.7077408396
2.6350000000	1.7763721743
2.6400000000	1.8472124696
2.6450000000	1.9142660055
2.6500000000	1.9711829834
2.6550000000	2.0127572681
2.6600000000	2.0365704752
2.6650000000	2.0440429048
2.6700000000	2.0401327361
2.6750000000	2.0320875593
2.6800000000	2.0269301331
2.6850000000	2.0312214321
2.6900000000	2.0495303434
2.6950000000	2.0846643974
2.7000000000	2.1379694683
2.7050000000	2.2177835692
2.7100000000	2.3205196539
2.7150000000	2.4445156872
2.7200000000	2.5863366570
2.7250000000	2.7401520435
2.7300000000	2.8971598550
2.7350000000	3.0454932949
2.7400000000	3.1710374078
2.7450000000	3.2594601298
2.7500000000	3.2992099198
2.7550000000	3.2844663455
2.7600000000	3.2167159424
2.7650000000	3.1042150571
2.7700000000	2.9595982140
2.7750000000	2.7968634527
2.7800000000	2.6288472915
2.7850000000	2.4658179352
2.7900000000	2.3137286380
2.7950000000	2.1790939087
2.8000000000	2.0632612440
2.8050000000	1.9559834019
2.8100000000	1.8714075460
2.8150000000	1.8062024169
2.8200000000	1.7567491832
2.8250000000	1.7197269847
2.8300000000	1.6923132706
2.8350000000	1.6721667597
2.8400000000	1.6573090584
2.8450000000	1.6460603877
2.8500000000	1.6370719544
2.8550000000	1.6294483369
2.8600000000	1.6228866756
2.8650000000	1.6177213255
2.8700000000	1.6148391544
2.8750000000	1.6154596815
2.8800000000	1.6208652977
2.8850000000	1.6321575264
2.8900000000	1.6500876951
2.8950000000	1.6749545203
2.9000000000	1.7065540766
2.9050000000	1.7538270938
2.9100000000	1.8056720412
2.9150000000	1.8586267290
2.9200000000	1.9083156966
2.9250000000	1.9500385497
2.9300000000	1.9794310547
2.9350000000	1.9932299507
2.9400000000	1.9899044639
2.9450000000	1.9699485240
2.9500000000	1.9356959856
2.9550000000	1.8907256314
2.9600000000	1.8391069152
2.9650000000	1.7846945074
2.9700000000	1.7306584387
2.9750000000	1.6792785186
2.9800000000	1.6319582764
2.9850000000	1.5893766022
2.9900000000	1.5516912087
2.9950000000	1.5187367624
3.0000000000	1.4901863254
