# energy (eV)    P(omega), $W$ = 300 nm, $h$ = 300 nm, $s$ = 20 nm, $d/W = 5$, $E_{\rm e}$ = 200 keV
0.2000000000	0.2299254304
0.2050000000	0.2333709785
0.2100000000	0.2365924269
0.2150000000	0.2395970805
0.2200000000	0.2423911703
0.2250000000	0.2449799903
0.2300000000	0.2473675854
0.2350000000	0.2495566351
0.2400000000	0.2515481551
0.2450000000	0.2533413837
0.2500000000	0.2549333697
0.2550000000	0.2563184664
0.2600000000	0.2574882053
0.2650000000	0.2584302865
0.2700000000	0.2591280433
0.2750000000	0.2595593942
0.2800000000	0.2596956685
0.2850000000	0.2595000101
0.2900000000	0.2589252030
0.2950000000	0.2579113403
0.3000000000	0.2563818988
0.3050000000	0.2542393601
0.3100000000	0.2513588828
0.3150000000	0.2656508400
0.3200000000	0.2826243778
0.3250000000	0.3040926196
0.3300000000	0.3328434613
0.3350000000	0.3686308126
0.3400000000	0.4154949140
0.3450000000	0.4723360039
0.3500000000	0.5466927710
0.3550000000	0.6450782381
0.3600000000	0.7735363040
0.3650000000	0.9526166804
0.3700000000	1.1887394960
0.3750000000	1.5171862344
0.3800000000	1.9922014522
0.3850000000	2.7323496407
0.3900000000	3.9015925886
0.3950000000	5.8876468936
0.4000000000	9.6736991551
0.4050000000	18.1617877027
0.4100000000	41.3221772986
0.4150000000	132.6103115489
0.4200000000	84.4927468200
0.4250000000	-159.0314992672
0.4300000000	44.2210012081
0.4350000000	27.5559671070
0.4400000000	16.8444643354
0.4450000000	11.0786783969
0.4500000000	7.7595091440
0.4550000000	5.7169431148
0.4600000000	4.3866488795
0.4650000000	3.4801406118
0.4700000000	2.8394412962
0.4750000000	2.3760755917
0.4800000000	2.0325285861
0.4850000000	1.7740172082
0.4900000000	1.5766864285
0.4950000000	1.4245224732
0.5000000000	1.3065793837
0.5050000000	1.2148262906
0.5100000000	1.1440917851
0.5150000000	1.0905685106
0.5200000000	1.0502775992
0.5250000000	1.0214256376
0.5300000000	1.0020882987
0.5350000000	0.9908580486
0.5400000000	0.9866971531
0.5450000000	0.9887387932
0.5500000000	0.9967082640
0.5550000000	1.0101168564
0.5600000000	1.0287145648
0.5650000000	1.0523889841
0.5700000000	1.0810375991
0.5750000000	1.1148604615
0.5800000000	1.1541828577
0.5850000000	1.1992169239
0.5900000000	1.2503740451
0.5950000000	1.3081719160
0.6000000000	1.3732699631
0.6050000000	1.4466242361
0.6100000000	1.5291466454
0.6150000000	1.6220833110
0.6200000000	1.7270964469
0.6250000000	1.8457796815
0.6300000000	1.9804886836
0.6350000000	2.1341594109
0.6400000000	2.3098466265
0.6450000000	2.5119599524
0.6500000000	2.7462971104
0.6550000000	3.0188932974
0.6600000000	3.3390244813
0.6650000000	3.7185927087
0.6700000000	4.1715903377
0.6750000000	4.7193549304
0.6800000000	5.3905808918
0.6850000000	6.2228577614
0.6900000000	7.2744044213
0.6950000000	8.6266444924
0.7000000000	10.4089193544
0.7050000000	12.8189581947
0.7100000000	16.1917875103
0.7150000000	21.1237919305
0.7200000000	28.7252550932
0.7250000000	41.3431425884
0.7300000000	64.5033490409
0.7350000000	114.0593350627
0.7400000000	249.9676243056
0.7450000000	829.2586100646
0.7500000000	2569.0340371943
0.7550000000	646.2928492957
0.7600000000	214.0361441556
0.7650000000	102.5534027746
0.7700000000	59.6410866663
0.7750000000	38.9258538130
0.7800000000	27.3936217337
0.7850000000	20.3451510962
0.7900000000	15.7182072626
0.7950000000	12.5271156000
0.8000000000	10.2331617154
0.8050000000	8.5246816084
0.8100000000	7.2218735586
0.8150000000	6.1891197088
0.8200000000	5.3740433412
0.8250000000	4.7177549363
0.8300000000	4.1801530200
0.8350000000	3.7381457792
0.8400000000	3.3676155595
0.8450000000	3.0566931540
0.8500000000	2.7938744330
0.8550000000	2.5670733782
0.8600000000	2.3734610334
0.8650000000	2.2080834748
0.8700000000	2.0619590554
0.8750000000	1.9376593396
0.8800000000	1.8321882659
0.8850000000	1.7376276651
0.8900000000	1.6617738830
0.8950000000	1.5927702793
0.9000000000	1.5380823472
0.9050000000	1.5004198725
0.9100000000	1.4659058527
0.9150000000	1.4449722503
0.9200000000	1.4424574064
0.9250000000	1.4405936286
0.9300000000	1.4194663486
0.9350000000	1.3560586516
0.9400000000	1.0027984174
0.9450000000	-0.6028850738
0.9500000000	-9.0767495540
0.9550000000	-52.0575423027
0.9600000000	12.2837279263
0.9650000000	21.5781442807
0.9700000000	9.5707146410
0.9750000000	5.0243927639
0.9800000000	3.1488552400
0.9850000000	2.2716619513
0.9900000000	1.7662423883
0.9950000000	1.4597682677
1.0000000000	1.2640838123
1.0050000000	1.1400248165
1.0100000000	1.0438483388
1.0150000000	0.9735853572
1.0200000000	0.9262595674
1.0250000000	0.8865364270
1.0300000000	0.8563593908
1.0350000000	0.8335307051
1.0400000000	0.8190172809
1.0450000000	0.8069491865
1.0500000000	0.7989884291
1.0550000000	0.7946636381
1.0600000000	0.7950401252
1.0650000000	0.7971527514
1.0700000000	0.8022104165
1.0750000000	0.8102341160
1.0800000000	0.8220170918
1.0850000000	0.8369700612
1.0900000000	0.8590276907
1.0950000000	0.8852223669
1.1000000000	0.9164330342
1.1050000000	0.9524041287
1.1100000000	0.9942719350
1.1150000000	1.0429778148
1.1200000000	1.0996378549
1.1250000000	1.1657105189
1.1300000000	1.2431498550
1.1350000000	1.3343882935
1.1400000000	1.4421959074
1.1450000000	1.5716298127
1.1500000000	1.7281888227
1.1550000000	1.9198226793
1.1600000000	2.1577469908
1.1650000000	2.4565146176
1.1700000000	2.8433872960
1.1750000000	3.3545554908
1.1800000000	4.0498480525
1.1850000000	5.0276083722
1.1900000000	6.4731799482
1.1950000000	8.7424363120
1.2000000000	12.5914183929
1.2050000000	19.8649783686
1.2100000000	35.8653662216
1.2150000000	79.1143134673
1.2200000000	194.1627978346
1.2250000000	174.4438862382
1.2300000000	69.5850119228
1.2350000000	32.6366984122
1.2400000000	18.6415709119
1.2450000000	12.2157175389
1.2500000000	8.8258254212
1.2550000000	6.8694603181
1.2600000000	5.6790165977
1.2650000000	4.9333678889
1.2700000000	4.4887851821
1.2750000000	4.2520784974
1.2800000000	4.1788913218
1.2850000000	4.2498561216
1.2900000000	4.4634210388
1.2950000000	4.8306950128
1.3000000000	5.3970186422
1.3050000000	6.2205379683
1.3100000000	7.4096529718
1.3150000000	9.1519212344
1.3200000000	11.7845185432
1.3250000000	15.9500983793
1.3300000000	23.0561384257
1.3350000000	36.3658741445
1.3400000000	64.8126604099
1.3450000000	135.4323468401
1.3500000000	287.4205647091
1.3550000000	268.0614522423
1.3600000000	123.6161127359
1.3650000000	60.7371495892
1.3700000000	34.8320691875
1.3750000000	22.4001975090
1.3800000000	15.6216645992
1.3850000000	11.5383489538
1.3900000000	8.9066028465
1.3950000000	7.1110453696
1.4000000000	5.8338330982
1.4050000000	4.8957576440
1.4100000000	4.1882820601
1.4150000000	3.6465705154
1.4200000000	3.2248873204
1.4250000000	2.9110977761
1.4300000000	2.7114658820
1.4350000000	2.5795027770
1.4400000000	1.7732752496
1.4450000000	-0.4599775546
1.4500000000	-4.3460531705
1.4550000000	-1.4522115522
1.4600000000	4.4203213611
1.4650000000	2.5607280861
1.4700000000	-1.6337595983
1.4750000000	-8.2691685525
1.4800000000	-3.6481823166
1.4850000000	6.2509981210
1.4900000000	5.0603640869
1.4950000000	3.2831683534
1.5000000000	2.3115424248
1.5050000000	1.7855479483
1.5100000000	1.4844519414
1.5150000000	1.2998413889
1.5200000000	1.1789218583
1.5250000000	1.1021699737
1.5300000000	1.0416849813
1.5350000000	0.9977440797
1.5400000000	0.9659099121
1.5450000000	0.9435361132
1.5500000000	0.9287930889
1.5550000000	0.9209175511
1.5600000000	0.9214841130
1.5650000000	0.9273084851
1.5700000000	0.9417831456
1.5750000000	0.9675701454
1.5800000000	1.0099727234
1.5850000000	1.0794343022
1.5900000000	1.1980487520
1.5950000000	1.4146591059
1.6000000000	1.8321993578
1.6050000000	2.5174620149
1.6100000000	2.8370082565
1.6150000000	2.2595121640
1.6200000000	1.7240761375
1.6250000000	1.4519805896
1.6300000000	1.3271844864
1.6350000000	1.2758482350
1.6400000000	1.2645271413
1.6450000000	1.2779247555
1.6500000000	1.3085968010
1.6550000000	1.3534882291
1.6600000000	1.4110442056
1.6650000000	1.4810588187
1.6700000000	1.5641158953
1.6750000000	1.6614147140
1.6800000000	1.7747077272
1.6850000000	1.9063337079
1.6900000000	2.0590110837
1.6950000000	2.2343206388
1.7000000000	2.4361346272
1.7050000000	2.6696621144
1.7100000000	2.9527222913
1.7150000000	3.4282966318
1.7200000000	4.1464498296
1.7250000000	4.9229126497
1.7300000000	5.8462818051
1.7350000000	6.8452955683
1.7400000000	7.7675007652
1.7450000000	8.9297274289
1.7500000000	10.7114054553
1.7550000000	13.3837587427
1.7600000000	17.3931707148
1.7650000000	23.5786889941
1.7700000000	33.5428760631
1.7750000000	50.3254866995
1.7800000000	78.9091757160
1.7850000000	121.0304109268
1.7900000000	150.3086807639
1.7950000000	127.8887564723
1.8000000000	85.0315569374
1.8050000000	53.6369472691
1.8100000000	35.3149871534
1.8150000000	24.5786917991
1.8200000000	17.9719251179
1.8250000000	13.6879767548
1.8300000000	10.7777353108
1.8350000000	8.7213481958
1.8400000000	7.2204365352
1.8450000000	6.0937717445
1.8500000000	5.2270203283
1.8550000000	4.5484972183
1.8600000000	4.0077815205
1.8650000000	3.5702157749
1.8700000000	3.2105462266
1.8750000000	2.9094021652
1.8800000000	2.6502953999
1.8850000000	2.4171503350
1.8900000000	2.1900711423
1.8950000000	1.9389188407
1.9000000000	1.6126250726
1.9050000000	1.0445437087
1.9100000000	0.2287544223
1.9150000000	-0.5566667206
1.9200000000	0.3919489303
1.9250000000	4.1867876588
1.9300000000	7.2182669800
1.9350000000	7.2862738719
1.9400000000	5.8491964728
1.9450000000	4.4332486450
1.9500000000	3.4296512406
1.9550000000	2.7658059081
1.9600000000	2.3234206268
1.9650000000	2.0286451864
1.9700000000	1.8116448780
1.9750000000	1.6525221179
1.9800000000	1.5317509205
1.9850000000	1.4353288425
1.9900000000	1.3528332865
1.9950000000	1.2754297497
2.0000000000	1.2015298589
2.0050000000	1.1575954144
2.0100000000	1.1871422833
2.0150000000	1.2641834156
2.0200000000	1.3162459267
2.0250000000	1.3388929801
2.0300000000	1.3561767542
2.0350000000	1.3792247927
2.0400000000	1.4134518094
2.0450000000	1.4611570679
2.0500000000	1.5246786388
2.0550000000	1.6063416224
2.0600000000	1.7062790673
2.0650000000	1.8165146794
2.0700000000	1.9171933750
2.0750000000	1.9928095752
2.0800000000	2.0548906792
2.0850000000	2.1284881282
2.0900000000	2.2295361115
2.0950000000	2.3635572365
2.1000000000	2.5347798711
2.1050000000	2.7406223908
2.1100000000	2.9954259579
2.1150000000	3.3094698904
2.1200000000	3.6975385242
2.1250000000	4.1806097139
2.1300000000	4.7884079059
2.1350000000	5.5634619531
2.1400000000	6.5671954046
2.1450000000	7.8893906681
2.1500000000	9.6607926970
2.1550000000	12.0663257415
2.1600000000	15.3425884977
2.1650000000	19.6900879286
2.1700000000	25.0323981432
2.1750000000	30.3595397631
2.1800000000	33.7050995182
2.1850000000	34.0187562208
2.1900000000	32.7487541440
2.1950000000	31.8478854094
2.2000000000	31.5332843326
2.2050000000	30.0516170826
2.2100000000	26.6526677944
2.2150000000	22.3758926049
2.2200000000	18.4858616673
2.2250000000	15.3338386499
2.2300000000	12.7463750911
2.2350000000	10.5810960077
2.2400000000	8.8033448582
2.2450000000	7.3996204345
2.2500000000	6.3117933106
2.2550000000	5.4698452429
2.2600000000	4.8089744570
2.2650000000	4.2707793827
2.2700000000	3.7999907883
2.2750000000	3.3499150579
2.2800000000	2.9097286068
2.2850000000	2.5331765538
2.2900000000	2.3117774588
2.2950000000	2.2865364689
2.3000000000	2.3867676902
2.3050000000	2.4923706677
2.3100000000	2.5297134668
2.3150000000	2.5011148531
2.3200000000	2.4384110382
2.3250000000	2.3743226662
2.3300000000	2.3262212490
2.3350000000	2.2991812757
2.3400000000	2.2893951801
2.3450000000	2.2857767788
2.3500000000	2.2740454383
2.3550000000	2.2450783153
2.3600000000	2.2013993390
2.3650000000	2.1541362915
2.3700000000	2.1145988513
2.3750000000	2.0890717642
2.3800000000	2.0785606723
2.3850000000	2.0805345618
2.3900000000	2.0917621481
2.3950000000	2.1091477869
2.4000000000	2.1342340967
2.4050000000	2.1735677401
2.4100000000	2.2299322587
2.4150000000	2.3071705697
2.4200000000	2.4079325181
2.4250000000	2.5350581171
2.4300000000	2.6920315643
2.4350000000	2.8833191686
2.4400000000	3.1146693804
2.4450000000	3.3934531041
2.4500000000	3.7290122359
2.4550000000	4.1331340898
2.4600000000	4.6203124967
2.4650000000	5.2080205588
2.4700000000	5.9163656073
2.4750000000	6.7656219264
2.4800000000	7.7771871589
2.4850000000	8.9599501380
2.4900000000	10.3028324391
2.4950000000	11.7568489379
2.5000000000	13.2162373062
2.5050000000	14.5688298341
2.5100000000	15.4556755381
2.5150000000	15.6754303849
2.5200000000	15.1944598970
2.5250000000	14.1619355727
2.5300000000	12.8148565019
2.5350000000	11.3682079068
2.5400000000	9.9638523052
2.5450000000	8.6758075044
2.5500000000	7.5338731028
2.5550000000	6.5431639603
2.5600000000	5.6895475527
2.5650000000	4.9699197952
2.5700000000	4.3690044938
2.5750000000	3.8775714211
2.5800000000	3.4885643425
2.5850000000	3.1936553978
2.5900000000	2.9782816378
2.5950000000	2.8215402998
2.6000000000	2.7015816981
2.6050000000	2.6159853846
2.6100000000	2.5400930352
2.6150000000	2.4728869892
2.6200000000	2.4159455904
2.6250000000	2.3708864329
2.6300000000	2.3387467691
2.6350000000	2.3200235415
2.6400000000	2.3149787661
2.6450000000	2.3238781414
2.6500000000	2.3472678547
2.6550000000	2.3852698586
2.6600000000	2.4387185472
2.6650000000	2.5084073944
2.6700000000	2.5952713908
2.6750000000	2.7004038211
2.6800000000	2.8249733745
2.6850000000	2.9701767908
2.6900000000	3.1370726985
2.6950000000	3.3264721054
2.7000000000	3.5386740881
2.7050000000	3.7985099050
2.7100000000	4.0862292214
2.7150000000	4.3983253598
2.7200000000	4.7289025300
2.7250000000	5.0695747405
2.7300000000	5.4094824452
2.7350000000	5.7353300217
2.7400000000	6.0312976344
2.7450000000	6.2815964477
2.7500000000	6.4627821640
2.7550000000	6.5593341855
2.7600000000	6.5595315215
2.7650000000	6.4607913492
2.7700000000	6.2709811620
2.7750000000	6.0070908654
2.7800000000	5.6915447196
2.7850000000	5.3481935260
2.7900000000	4.9984049563
2.7950000000	4.6593056381
2.8000000000	4.3430140356
2.8050000000	4.0217418544
2.8100000000	3.7451783976
2.8150000000	3.5127041463
2.8200000000	3.3206877996
2.8250000000	3.1643011845
2.8300000000	3.0386742741
2.8350000000	2.9396618911
2.8400000000	2.8628548211
2.8450000000	2.8085207777
2.8500000000	2.7734209449
2.8550000000	2.7563301226
2.8600000000	2.7563457214
2.8650000000	2.7727013574
2.8700000000	2.8046504734
2.8750000000	2.8513399127
2.8800000000	2.9117290186
2.8850000000	2.9844982632
2.8900000000	3.0680721513
2.8950000000	3.1605848598
2.9000000000	3.2599820474
2.9050000000	3.3856873005
2.9100000000	3.5113292190
2.9150000000	3.6324208878
2.9200000000	3.7438099897
2.9250000000	3.8395509231
2.9300000000	3.9141052349
2.9350000000	3.9597062162
2.9400000000	3.9726523427
2.9450000000	3.9511344715
2.9500000000	3.8966291076
2.9550000000	3.8137725888
2.9600000000	3.7094612114
2.9650000000	3.5916352443
2.9700000000	3.4680609373
2.9750000000	3.3454351156
2.9800000000	3.2289363986
2.9850000000	3.1221438283
2.9900000000	3.0272626322
2.9950000000	2.9453624075
3.0000000000	2.8767532612
