# energy (eV)    P(omega), $W$ = 300 nm, $h$ = 300 nm, $s$ = 20 nm, $d/W = 5$, $E_{\rm e}$ = 200 keV
0.2000000000	0.1481277608
0.2050000000	0.1502543904
0.2100000000	0.1522540225
0.2150000000	0.1541306146
0.2200000000	0.1558875764
0.2250000000	0.1575277233
0.2300000000	0.1590531160
0.2350000000	0.1604650361
0.2400000000	0.1617638352
0.2450000000	0.1629486137
0.2500000000	0.1640174012
0.2550000000	0.1649664341
0.2600000000	0.1657902146
0.2650000000	0.1664810969
0.2700000000	0.1670285966
0.2750000000	0.1674189990
0.2800000000	0.1676345292
0.2850000000	0.1676524651
0.2900000000	0.1674436181
0.2950000000	0.1669711778
0.3000000000	0.1661877579
0.3050000000	0.1650334832
0.3100000000	0.1634314848
0.3150000000	0.1722218418
0.3200000000	0.1826631215
0.3250000000	0.1958616120
0.3300000000	0.2135225784
0.3350000000	0.2355134081
0.3400000000	0.2643138149
0.3450000000	0.2992783355
0.3500000000	0.3450380647
0.3550000000	0.4056183941
0.3600000000	0.4847800770
0.3650000000	0.5951946485
0.3700000000	0.7409342239
0.3750000000	0.9438256197
0.3800000000	1.2374859204
0.3850000000	1.6953599223
0.3900000000	2.4192763540
0.3950000000	3.6498832870
0.4000000000	5.9975142448
0.4050000000	11.2645377419
0.4100000000	25.6471149064
0.4150000000	82.3803135202
0.4200000000	52.4358599342
0.4250000000	-98.9950762706
0.4300000000	27.5892642620
0.4350000000	17.2156112673
0.4400000000	10.5405853071
0.4450000000	6.9448518407
0.4500000000	4.8734530367
0.4550000000	3.5979194908
0.4600000000	2.7666744943
0.4650000000	2.1999226976
0.4700000000	1.7991607029
0.4750000000	1.5092226730
0.4800000000	1.2942098583
0.4850000000	1.1324165624
0.4900000000	1.0089452463
0.4950000000	0.9137906339
0.5000000000	0.8401158667
0.5050000000	0.7828985835
0.5100000000	0.7389116233
0.5150000000	0.7057804419
0.5200000000	0.6810076673
0.5250000000	0.6634815809
0.5300000000	0.6519985374
0.5350000000	0.6456809046
0.5400000000	0.6438827612
0.5450000000	0.6460648375
0.5500000000	0.6520669869
0.5550000000	0.6615885305
0.5600000000	0.6744833285
0.5650000000	0.6906898643
0.5700000000	0.7101562572
0.5750000000	0.7330219538
0.5800000000	0.7595135571
0.5850000000	0.7897800678
0.5900000000	0.8241046530
0.5950000000	0.8628383165
0.6000000000	0.9064275761
0.6050000000	0.9555122133
0.6100000000	1.0107087068
0.6150000000	1.0728535572
0.6200000000	1.1430633047
0.6250000000	1.2224069343
0.6300000000	1.3124645044
0.6350000000	1.4152053424
0.6400000000	1.5326795399
0.6450000000	1.6678446517
0.6500000000	1.8245906310
0.6550000000	2.0069677917
0.6600000000	2.2211986127
0.6650000000	2.4752742461
0.6700000000	2.7785887583
0.6750000000	3.1454622078
0.6800000000	3.5951750571
0.6850000000	4.1529663709
0.6900000000	4.8579589860
0.6950000000	5.7648522438
0.7000000000	6.9605870660
0.7050000000	8.5780708586
0.7100000000	10.8425714207
0.7150000000	14.1551422121
0.7200000000	19.2625907653
0.7250000000	27.7438797848
0.7300000000	43.3174853534
0.7350000000	76.6537591604
0.7400000000	168.1172519632
0.7450000000	558.1482113486
0.7500000000	1730.4730510495
0.7550000000	435.6770683131
0.7600000000	144.4001357393
0.7650000000	69.2436787060
0.7700000000	40.3023449859
0.7750000000	26.3258259017
0.7800000000	18.5420183465
0.7850000000	13.7827774840
0.7900000000	10.6574280786
0.7950000000	8.5011411533
0.8000000000	6.9505160457
0.8050000000	5.7952408093
0.8100000000	4.9139673559
0.8150000000	4.2150830594
0.8200000000	3.6633254600
0.8250000000	3.2189274386
0.8300000000	2.8547696600
0.8350000000	2.5552968633
0.8400000000	2.3041899359
0.8450000000	2.0934314200
0.8500000000	1.9152641289
0.8550000000	1.7614688118
0.8600000000	1.6301761081
0.8650000000	1.5180570495
0.8700000000	1.4189596941
0.8750000000	1.3347086178
0.8800000000	1.2632862056
0.8850000000	1.1992451181
0.8900000000	1.1480136255
0.8950000000	1.1014030806
0.9000000000	1.0646159055
0.9050000000	1.0395704750
0.9100000000	1.0166330897
0.9150000000	1.0030747547
0.9200000000	1.0022975847
0.9250000000	1.0019007271
0.9300000000	0.9879124091
0.9350000000	0.9440540808
0.9400000000	0.6963666705
0.9450000000	-0.4324059215
0.9500000000	-6.3955420209
0.9550000000	-36.6638646788
0.9600000000	8.6601227480
0.9650000000	15.2214693508
0.9700000000	6.7559603679
0.9750000000	3.5483449030
0.9800000000	2.2243296397
0.9850000000	1.6049078815
0.9900000000	1.2478242019
0.9950000000	1.0312230326
1.0000000000	0.8928964089
1.0050000000	0.8052396820
1.0100000000	0.7372058910
1.0150000000	0.6874732920
1.0200000000	0.6539913599
1.0250000000	0.6258131169
1.0300000000	0.6043580902
1.0350000000	0.5880681240
1.0400000000	0.5776623143
1.0450000000	0.5689112055
1.0500000000	0.5630196430
1.0550000000	0.5596504761
1.0600000000	0.5595819610
1.0650000000	0.5606486084
1.0700000000	0.5637245852
1.0750000000	0.5688201122
1.0800000000	0.5765081387
1.0850000000	0.5862821076
1.0900000000	0.6008538750
1.0950000000	0.6181833963
1.1000000000	0.6388796739
1.1050000000	0.6626745574
1.1100000000	0.6903459449
1.1150000000	0.7225068848
1.1200000000	0.7599102897
1.1250000000	0.8034123232
1.1300000000	0.8543111238
1.1350000000	0.9141731823
1.1400000000	0.9848124731
1.1450000000	1.0694045712
1.1500000000	1.1715153067
1.1550000000	1.2962467230
1.1600000000	1.4507956795
1.1650000000	1.6445288747
1.1700000000	1.8948486528
1.1750000000	2.2249828598
1.1800000000	2.6732751739
1.1850000000	3.3027145224
1.1900000000	4.2321956956
1.1950000000	5.6895885110
1.2000000000	8.1595180311
1.2050000000	12.8245931972
1.2100000000	23.0843943721
1.2150000000	50.8202822208
1.2200000000	124.6404915634
1.2250000000	112.0958188501
1.2300000000	44.8507285173
1.2350000000	21.1494765215
1.2400000000	12.1766940770
1.2450000000	8.0648219987
1.2500000000	5.9047783930
1.2550000000	4.6684683405
1.2600000000	3.9278802297
1.2650000000	3.4774504594
1.2700000000	3.2263773601
1.2750000000	3.1160860469
1.2800000000	3.1201261229
1.2850000000	3.2288510405
1.2900000000	3.4452741302
1.2950000000	3.7817437277
1.3000000000	4.2768815109
1.3050000000	4.9809772632
1.3100000000	5.9849394036
1.3150000000	7.4453822655
1.3200000000	9.6426828731
1.3250000000	13.1122855738
1.3300000000	19.0228040722
1.3350000000	30.0876364632
1.3400000000	53.7346585581
1.3450000000	112.4520066114
1.3500000000	238.8921707934
1.3550000000	222.9486876496
1.3600000000	102.8521879053
1.3650000000	50.5426057719
1.3700000000	28.9855111633
1.3750000000	18.6384868775
1.3800000000	12.9965109778
1.3850000000	9.5984168789
1.3900000000	7.4094751781
1.3950000000	5.9170126782
1.4000000000	4.8572216594
1.4050000000	4.0812208436
1.4100000000	3.4997476214
1.4150000000	3.0610924228
1.4200000000	2.7314182961
1.4250000000	2.5110335977
1.4300000000	2.4314714159
1.4350000000	2.4790289251
1.4400000000	1.9124142497
1.4450000000	0.1737470709
1.4500000000	-2.6453855622
1.4550000000	-0.7383503699
1.4600000000	3.2154936068
1.4650000000	1.7383148183
1.4700000000	-1.6534769068
1.4750000000	-7.2194163401
1.4800000000	-3.2136919630
1.4850000000	5.2777473190
1.4900000000	4.2782246157
1.4950000000	2.7689862910
1.5000000000	1.9454011813
1.5050000000	1.5019603793
1.5100000000	1.2492222923
1.5150000000	1.0957490344
1.5200000000	0.9966199454
1.5250000000	0.9350366483
1.5300000000	0.8880068110
1.5350000000	0.8556021278
1.5400000000	0.8342727006
1.5450000000	0.8221156457
1.5500000000	0.8179018327
1.5550000000	0.8216670742
1.5600000000	0.8356067561
1.5650000000	0.8586063172
1.5700000000	0.8958202137
1.5750000000	0.9535438573
1.5800000000	1.0435964571
1.5850000000	1.1889846029
1.5900000000	1.4381801309
1.5950000000	1.8984505295
1.6000000000	2.7963886890
1.6050000000	4.2811980855
1.6100000000	4.9690057982
1.6150000000	3.6799886166
1.6200000000	2.4706009760
1.6250000000	1.8321336384
1.6300000000	1.5114900082
1.6350000000	1.3463421897
1.6400000000	1.2625584829
1.6450000000	1.2256818571
1.6500000000	1.2184548869
1.6550000000	1.2327932600
1.6600000000	1.2638685520
1.6650000000	1.3094734538
1.6700000000	1.3687650382
1.6750000000	1.4417412622
1.6800000000	1.5290481768
1.6850000000	1.6316904108
1.6900000000	1.7505491036
1.6950000000	1.8839015948
1.7000000000	2.0294486327
1.7050000000	2.1783614391
1.7100000000	2.3481415297
1.7150000000	2.7721994471
1.7200000000	3.5172194191
1.7250000000	4.1986350782
1.7300000000	4.9290406541
1.7350000000	5.7318092112
1.7400000000	6.5201997092
1.7450000000	7.5330859254
1.7500000000	9.0645163546
1.7550000000	11.3436381295
1.7600000000	14.7534914888
1.7650000000	20.0097499089
1.7700000000	28.4766670457
1.7750000000	42.7412934737
1.7800000000	67.0481406858
1.7850000000	102.8955576334
1.7900000000	127.8731384501
1.7950000000	108.8879391798
1.8000000000	72.4690790131
1.8050000000	45.7666822633
1.8100000000	30.1756690961
1.8150000000	21.0371068334
1.8200000000	15.4130945635
1.8250000000	11.7670286721
1.8300000000	9.2914866871
1.8350000000	7.5441652054
1.8400000000	6.2711843891
1.8450000000	5.3185382168
1.8500000000	4.5891695076
1.8550000000	4.0223489644
1.8600000000	3.5757160561
1.8650000000	3.2204858528
1.8700000000	2.9361916640
1.8750000000	2.7078160165
1.8800000000	2.5234578034
1.8850000000	2.3726152381
1.8900000000	2.2432008341
1.8950000000	2.1171814751
1.9000000000	1.9634079753
1.9050000000	1.6718150760
1.9100000000	1.2708351906
1.9150000000	1.0619103206
1.9200000000	2.5795991867
1.9250000000	6.7628316342
1.9300000000	10.0802272258
1.9350000000	9.9234461221
1.9400000000	7.8039215808
1.9450000000	5.7491964453
1.9500000000	4.3066338894
1.9550000000	3.3614821686
1.9600000000	2.7369320714
1.9650000000	2.3188977656
1.9700000000	2.0171511467
1.9750000000	1.7959602434
1.9800000000	1.6270835812
1.9850000000	1.4900299977
1.9900000000	1.3691169680
1.9950000000	1.2506553558
2.0000000000	1.1326521518
2.0050000000	1.0572338102
2.0100000000	1.1004039440
2.0150000000	1.2193660439
2.0200000000	1.2926729243
2.0250000000	1.3120614859
2.0300000000	1.3163097349
2.0350000000	1.3241176283
2.0400000000	1.3424205319
2.0450000000	1.3729754736
2.0500000000	1.4169134591
2.0550000000	1.4752589762
2.0600000000	1.5480121270
2.0650000000	1.6307936109
2.0700000000	1.7127428129
2.0750000000	1.7857294209
2.0800000000	1.8569570950
2.0850000000	1.9413068141
2.0900000000	2.0487656908
2.0950000000	2.1835549708
2.1000000000	2.3502387417
2.1050000000	2.5473222767
2.1100000000	2.7886572867
2.1150000000	3.0843728049
2.1200000000	3.4486687204
2.1250000000	3.9014598063
2.1300000000	4.4708156119
2.1350000000	5.1968091501
2.1400000000	6.1373049449
2.1450000000	7.3769006166
2.1500000000	9.0388586603
2.1550000000	11.2976312715
2.1600000000	14.3764907153
2.1650000000	18.4645262517
2.1700000000	23.4860802913
2.1750000000	28.4784628515
2.1800000000	31.5627611576
2.1850000000	31.7220163921
2.1900000000	30.3178135486
2.1950000000	29.2244325660
2.2000000000	28.7389939189
2.2050000000	27.3952298763
2.2100000000	24.5441550414
2.2150000000	21.0395082762
2.2200000000	17.8937600934
2.2250000000	15.2933325227
2.2300000000	13.0018297271
2.2350000000	10.9284160821
2.2400000000	9.1466988293
2.2450000000	7.7209139135
2.2500000000	6.6280147624
2.2550000000	5.8072182837
2.2600000000	5.1929025541
2.2650000000	4.7192535306
2.2700000000	4.3150613772
2.2750000000	3.9101068715
2.2800000000	3.4737688871
2.2850000000	3.0582158512
2.2900000000	2.7707213395
2.2950000000	2.6720992245
2.3000000000	2.7065831884
2.3050000000	2.7596349709
2.3100000000	2.7638383579
2.3150000000	2.7197222035
2.3200000000	2.6564656039
2.3250000000	2.6042100718
2.3300000000	2.5783733860
2.3350000000	2.5815883627
2.3400000000	2.6051766822
2.3450000000	2.6295159092
2.3500000000	2.6299006648
2.3550000000	2.5905686914
2.3600000000	2.5159804715
2.3650000000	2.4256283464
2.3700000000	2.3396057559
2.3750000000	2.2699173812
2.3800000000	2.2204710861
2.3850000000	2.1901800061
2.3900000000	2.1765447778
2.3950000000	2.1766641772
2.4000000000	2.1913235695
2.4050000000	2.2253518859
2.4100000000	2.2803595383
2.4150000000	2.3585806535
2.4200000000	2.4613564326
2.4250000000	2.5910474162
2.4300000000	2.7511014625
2.4350000000	2.9461442187
2.4400000000	3.1821450232
2.4450000000	3.4667255616
2.4500000000	3.8095011412
2.4550000000	4.2225567554
2.4600000000	4.7207401060
2.4650000000	5.3218644515
2.4700000000	6.0463590717
2.4750000000	6.9146848360
2.4800000000	7.9479678290
2.4850000000	9.1545628767
2.4900000000	10.5226636940
2.4950000000	12.0033099339
2.5000000000	13.4929892394
2.5050000000	14.8865813439
2.5100000000	15.8282261001
2.5150000000	16.1126362396
2.5200000000	15.6907911907
2.5250000000	14.6928925915
2.5300000000	13.3459401972
2.5350000000	11.8689628801
2.5400000000	10.4167796072
2.5450000000	9.0769051088
2.5500000000	7.8882786095
2.5550000000	6.8597757233
2.5600000000	5.9772583211
2.5650000000	5.2352965099
2.5700000000	4.6164100815
2.5750000000	4.1096543495
2.5800000000	3.7068550113
2.5850000000	3.3991313644
2.5900000000	3.1718827774
2.5950000000	3.0045847558
2.6000000000	2.8758673761
2.6050000000	2.7843894596
2.6100000000	2.7051925063
2.6150000000	2.6370206070
2.6200000000	2.5812182951
2.6250000000	2.5392773543
2.6300000000	2.5121943021
2.6350000000	2.5004777058
2.6400000000	2.5044236908
2.6450000000	2.5243067042
2.6500000000	2.5606652178
2.6550000000	2.6136505593
2.6600000000	2.6840752408
2.6650000000	2.7727608243
2.6700000000	2.8807164473
2.6750000000	3.0091639346
2.6800000000	3.1594575341
2.6850000000	3.3329815643
2.6900000000	3.5308684159
2.6950000000	3.7537726956
2.7000000000	4.0014638634
2.7050000000	4.3021057667
2.7100000000	4.6301801572
2.7150000000	4.9792832750
2.7200000000	5.3401069714
2.7250000000	5.7009654183
2.7300000000	6.0486838294
2.7350000000	6.3693615204
2.7400000000	6.6485568195
2.7450000000	6.8734638293
2.7500000000	7.0242094575
2.7550000000	7.0887726358
2.7600000000	7.0580313420
2.7650000000	6.9309331410
2.7700000000	6.7159863659
2.7750000000	6.4302294197
2.7800000000	6.0958689009
2.7850000000	5.7364626171
2.7900000000	5.3731486952
2.7950000000	5.0228779732
2.8000000000	4.6976365434
2.8050000000	4.3685742841
2.8100000000	4.0869497500
2.8150000000	3.8520082785
2.8200000000	3.6599677334
2.8250000000	3.5058438118
2.8300000000	3.3846154099
2.8350000000	3.2919847695
2.8400000000	3.2234285356
2.8450000000	3.1791032868
2.8500000000	3.1557215047
2.8550000000	3.1520301740
2.8600000000	3.1670933127
2.8650000000	3.2000671573
2.8700000000	3.2500074064
2.8750000000	3.3157150741
2.8800000000	3.3956185843
2.8850000000	3.4876738595
2.8900000000	3.5894234235
2.8950000000	3.6980891002
2.9000000000	3.8107499420
2.9050000000	3.9460852010
2.9100000000	4.0758769171
2.9150000000	4.1960466444
2.9200000000	4.3023167194
2.9250000000	4.3898352578
2.9300000000	4.4541349818
2.9350000000	4.4882622057
2.9400000000	4.4892184304
2.9450000000	4.4557278265
2.9500000000	4.3897214016
2.9550000000	4.2962123813
2.9600000000	4.1824350320
2.9650000000	4.0565859984
2.9700000000	3.9265905232
2.9750000000	3.7992212075
2.9800000000	3.6796671392
2.9850000000	3.5714684864
2.9900000000	3.4767541531
2.9950000000	3.3965228045
3.0000000000	3.3309840909
