# energy (eV)    P(omega), $W$ = 400 nm, $h$ = 300 nm, $s$ = 20 nm, $d/W = 5$, $E_{\rm e}$ = 200 keV
0.2000000000	0.0497357297
0.2050000000	0.0501881579
0.2100000000	0.0505066999
0.2150000000	0.0506859910
0.2200000000	0.0507185298
0.2250000000	0.0505941251
0.2300000000	0.0502993675
0.2350000000	0.0498167978
0.2400000000	0.0491239623
0.2450000000	0.0481919232
0.2500000000	0.0469836831
0.2550000000	0.0454516374
0.2600000000	0.0435344408
0.2650000000	0.0455432453
0.2700000000	0.0506459394
0.2750000000	0.0579477461
0.2800000000	0.0681212454
0.2850000000	0.0831196612
0.2900000000	0.1017037961
0.2950000000	0.1283457466
0.3000000000	0.1641601850
0.3050000000	0.2190552113
0.3100000000	0.2955223685
0.3150000000	0.4434829345
0.3200000000	0.6745688225
0.3250000000	0.8327806151
0.3300000000	1.0516387375
0.3350000000	1.3619017486
0.3400000000	1.8489522632
0.3450000000	2.6845750953
0.3500000000	4.3508802836
0.3550000000	8.2081718077
0.3600000000	20.1726124992
0.3650000000	0.0911300748
0.3700000000	9.3493161909
0.3750000000	12.2940001851
0.3800000000	5.7285869548
0.3850000000	3.2269688991
0.3900000000	2.0698176048
0.3950000000	1.4585591785
0.4000000000	1.1046408855
0.4050000000	0.8739108789
0.4100000000	0.7237005546
0.4150000000	0.6246285916
0.4200000000	0.5620132238
0.4250000000	0.5128368195
0.4300000000	0.4547277254
0.4350000000	0.4087378015
0.4400000000	0.3723649118
0.4450000000	0.3434441769
0.4500000000	0.3206114193
0.4550000000	0.3025056920
0.4600000000	0.2883817492
0.4650000000	0.2774513641
0.4700000000	0.2691927196
0.4750000000	0.2632407180
0.4800000000	0.2592767584
0.4850000000	0.2570214790
0.4900000000	0.2563096742
0.4950000000	0.2570142412
0.5000000000	0.2590265802
0.5050000000	0.2622982846
0.5100000000	0.2667896998
0.5150000000	0.2724772603
0.5200000000	0.2793727538
0.5250000000	0.2874858490
0.5300000000	0.2969356530
0.5350000000	0.3077751171
0.5400000000	0.3200995896
0.5450000000	0.3340341099
0.5500000000	0.3497555900
0.5550000000	0.3674575408
0.5600000000	0.3873755003
0.5650000000	0.4098123415
0.5700000000	0.4351861712
0.5750000000	0.4638068730
0.5800000000	0.4962542733
0.5850000000	0.5333206038
0.5900000000	0.5755402377
0.5950000000	0.6240376280
0.6000000000	0.6802983234
0.6050000000	0.7454357154
0.6100000000	0.8220020861
0.6150000000	0.9121139454
0.6200000000	1.0194045452
0.6250000000	1.1490863675
0.6300000000	1.3064752710
0.6350000000	1.5015601805
0.6400000000	1.7453615604
0.6450000000	2.0578775850
0.6500000000	2.4646538430
0.6550000000	3.0089620420
0.6600000000	3.7638655811
0.6650000000	4.8447982551
0.6700000000	6.4815874660
0.6750000000	9.1132961783
0.6800000000	13.7653348308
0.6850000000	23.0999466442
0.6900000000	46.2959455536
0.6950000000	129.9595192456
0.7000000000	630.3141151228
0.7050000000	306.4425078329
0.7100000000	78.7186349903
0.7150000000	33.4755924656
0.7200000000	18.2814493878
0.7250000000	11.4840193142
0.7300000000	7.8764516006
0.7350000000	5.7438394119
0.7400000000	4.3781923872
0.7450000000	3.4512453785
0.7500000000	2.7946136832
0.7550000000	2.3122055997
0.7600000000	1.9486038909
0.7650000000	1.6666360316
0.7700000000	1.4440513441
0.7750000000	1.2653575296
0.7800000000	1.1201449319
0.7850000000	1.0005772449
0.7900000000	0.9004073072
0.7950000000	0.8167470173
0.8000000000	0.7456132249
0.8050000000	0.6846698017
0.8100000000	0.6327886683
0.8150000000	0.5873170397
0.8200000000	0.5477291304
0.8250000000	0.5145079337
0.8300000000	0.4854283791
0.8350000000	0.4601479190
0.8400000000	0.4400157337
0.8450000000	0.4224493086
0.8500000000	0.4075548173
0.8550000000	0.3981399919
0.8600000000	0.3905984957
0.8650000000	0.3851986333
0.8700000000	0.3870778274
0.8750000000	0.3877357063
0.8800000000	0.3856483287
0.8850000000	0.3688800742
0.8900000000	0.2862647782
0.8950000000	-0.1277614055
0.9000000000	-2.3478799983
0.9050000000	-15.4273307631
0.9100000000	2.9376677035
0.9150000000	6.9587808289
0.9200000000	2.8887236738
0.9250000000	1.5027974457
0.9300000000	0.9173433315
0.9350000000	0.6376325876
0.9400000000	0.4867405040
0.9450000000	0.4031017740
0.9500000000	0.3437047550
0.9550000000	0.3039448788
0.9600000000	0.2793548424
0.9650000000	0.2590650847
0.9700000000	0.2445866748
0.9750000000	0.2347187695
0.9800000000	0.2287101088
0.9850000000	0.2276061563
0.9900000000	0.2297924546
0.9950000000	0.2386303358
1.0000000000	0.2597635808
1.0050000000	0.3091067641
1.0100000000	0.4384238913
1.0150000000	0.8816372698
1.0200000000	1.6930457739
1.0250000000	0.7697269801
1.0300000000	0.3942765320
1.0350000000	0.2823749883
1.0400000000	0.2383704557
1.0450000000	0.2177266932
1.0500000000	0.2073784745
1.0550000000	0.2019491259
1.0600000000	0.1995116747
1.0650000000	0.1990547011
1.0700000000	0.2000174568
1.0750000000	0.2022025209
1.0800000000	0.2052182434
1.0850000000	0.2093225302
1.0900000000	0.2152534498
1.0950000000	0.2221678791
1.1000000000	0.2301335724
1.1050000000	0.2391648798
1.1100000000	0.2494047187
1.1150000000	0.2609893400
1.1200000000	0.2740804454
1.1250000000	0.2888118486
1.1300000000	0.3055651923
1.1350000000	0.3245977194
1.1400000000	0.3462946732
1.1450000000	0.3711459248
1.1500000000	0.3995326804
1.1550000000	0.4326419039
1.1600000000	0.4712241606
1.1650000000	0.5162625499
1.1700000000	0.5679610113
1.1750000000	0.6203930499
1.1800000000	0.6700141444
1.1850000000	0.9312215707
1.1900000000	1.1556472014
1.1950000000	1.5842138207
1.2000000000	2.1575878556
1.2050000000	1.8925755548
1.2100000000	1.8112283194
1.2150000000	2.0164172065
1.2200000000	2.4116540427
1.2250000000	3.0186124872
1.2300000000	3.9415359237
1.2350000000	5.4015044490
1.2400000000	7.8608219979
1.2450000000	12.4917010400
1.2500000000	22.5208802601
1.2550000000	48.7506462686
1.2600000000	117.7531469232
1.2650000000	119.2790651611
1.2700000000	49.6176668689
1.2750000000	22.9035660726
1.2800000000	12.6844073815
1.2850000000	7.9767120452
1.2900000000	5.4673093394
1.2950000000	3.9846575461
1.3000000000	3.0402738256
1.3050000000	2.4044232504
1.3100000000	1.9560461386
1.3150000000	1.6320714489
1.3200000000	1.3919086181
1.3250000000	1.2111773842
1.3300000000	1.0750693123
1.3350000000	0.9744977851
1.3400000000	0.9047452779
1.3450000000	0.8645181302
1.3500000000	0.8596845302
1.3550000000	0.9036039288
1.3600000000	1.0302686896
1.3650000000	1.3261800467
1.3700000000	2.0328567745
1.3750000000	3.7911259248
1.3800000000	6.1925408718
1.3850000000	4.3259602410
1.3900000000	2.2045371457
1.3950000000	1.2791460930
1.4000000000	0.8377117161
1.4050000000	0.5664062407
1.4100000000	0.3208524338
1.4150000000	-0.0454635006
1.4200000000	-0.8655862897
1.4250000000	-3.0386921987
1.4300000000	-4.0857217512
1.4350000000	1.8718389446
1.4400000000	2.3943691675
1.4450000000	1.4355286056
1.4500000000	0.8932442182
1.4550000000	0.6157524973
1.4600000000	0.4546969257
1.4650000000	0.3274134520
1.4700000000	0.1912651106
1.4750000000	0.2247677614
1.4800000000	0.3295210307
1.4850000000	0.2992159657
1.4900000000	0.2649486258
1.4950000000	0.2427842350
1.5000000000	0.2282240123
1.5050000000	0.2185967605
1.5100000000	0.2120474485
1.5150000000	0.2084738140
1.5200000000	0.2058394103
1.5250000000	0.2048887616
1.5300000000	0.2057093362
1.5350000000	0.2086768236
1.5400000000	0.2147285711
1.5450000000	0.2259463143
1.5500000000	0.2470090277
1.5550000000	0.2872432252
1.5600000000	0.3476373656
1.5650000000	0.3573164608
1.5700000000	0.3028176869
1.5750000000	0.2645752181
1.5800000000	0.2480787393
1.5850000000	0.2428891748
1.5900000000	0.2435636742
1.5950000000	0.2477385546
1.6000000000	0.2543840390
1.6050000000	0.2631456422
1.6100000000	0.2737586558
1.6150000000	0.2861836875
1.6200000000	0.3006186765
1.6250000000	0.3172343793
1.6300000000	0.3363114214
1.6350000000	0.3582115819
1.6400000000	0.3833974751
1.6450000000	0.4124599481
1.6500000000	0.4461406529
1.6550000000	0.4853794701
1.6600000000	0.5313941108
1.6650000000	0.5857563799
1.6700000000	0.6499945648
1.6750000000	0.7278590928
1.6800000000	0.8226650427
1.6850000000	0.9396276396
1.6900000000	1.0861515260
1.6950000000	1.2731027597
1.7000000000	1.5168389351
1.7050000000	1.8530796954
1.7100000000	2.3221956783
1.7150000000	3.0040662944
1.7200000000	4.0432612581
1.7250000000	5.6919044190
1.7300000000	8.2254178527
1.7350000000	11.4767260431
1.7400000000	15.5868675446
1.7450000000	22.7994873315
1.7500000000	32.1621473838
1.7550000000	32.6795197114
1.7600000000	22.9267722304
1.7650000000	14.2812444874
1.7700000000	9.1548413385
1.7750000000	6.2397786801
1.7800000000	4.5171006452
1.7850000000	3.4574398542
1.7900000000	2.8002888824
1.7950000000	2.4242744245
1.8000000000	2.2725038745
1.8050000000	2.2244519027
1.8100000000	1.9791217364
1.8150000000	1.5335362281
1.8200000000	1.1775444773
1.8250000000	0.9939966290
1.8300000000	0.8653775854
1.8350000000	0.7510706829
1.8400000000	0.6578618362
1.8450000000	0.5838947178
1.8500000000	0.5242849415
1.8550000000	0.4750404726
1.8600000000	0.4297422393
1.8650000000	0.3914466646
1.8700000000	0.3527430216
1.8750000000	0.2969485489
1.8800000000	0.1697665851
1.8850000000	-0.1089772812
1.8900000000	-0.4839049063
1.8950000000	-0.5482352923
1.9000000000	0.0586670539
1.9050000000	0.6245160372
1.9100000000	0.6905431376
1.9150000000	0.5833806730
1.9200000000	0.4783515078
1.9250000000	0.4038222785
1.9300000000	0.3586867946
1.9350000000	0.3242273818
1.9400000000	0.3013034342
1.9450000000	0.2861282388
1.9500000000	0.2755209768
1.9550000000	0.2666462183
1.9600000000	0.2589843844
1.9650000000	0.2535441573
1.9700000000	0.2506391159
1.9750000000	0.2500759385
1.9800000000	0.2516979862
1.9850000000	0.2555523844
1.9900000000	0.2618921804
1.9950000000	0.2710339015
2.0000000000	0.2827398229
2.0050000000	0.2960196184
2.0100000000	0.3055458601
2.0150000000	0.3118999838
2.0200000000	0.3195619173
2.0250000000	0.3313881832
2.0300000000	0.3482194340
2.0350000000	0.3704765482
2.0400000000	0.3989237500
2.0450000000	0.4348870180
2.0500000000	0.4802706827
2.0550000000	0.5371909900
2.0600000000	0.6066742911
2.0650000000	0.6876281554
2.0700000000	0.7812686250
2.0750000000	0.8980415765
2.0800000000	1.0551930335
2.0850000000	1.2695379974
2.0900000000	1.5508555807
2.0950000000	1.8789344024
2.1000000000	2.1713445990
2.1050000000	2.3130367044
2.1100000000	2.2457511477
2.1150000000	2.0909160310
2.1200000000	1.9814782458
2.1250000000	1.9768124432
2.1300000000	2.0945341028
2.1350000000	2.3486052831
2.1400000000	2.7669911305
2.1450000000	3.3991660829
2.1500000000	4.3144105361
2.1550000000	5.5647648108
2.1600000000	7.0493962919
2.1650000000	8.2972033119
2.1700000000	8.5920427508
2.1750000000	7.6912680941
2.1800000000	6.2093637872
2.1850000000	4.7908165865
2.1900000000	3.6817229810
2.1950000000	2.8804365636
2.2000000000	2.3182687466
2.2050000000	1.9304207814
2.2100000000	1.6611760709
2.2150000000	1.4546627179
2.2200000000	1.2696122534
2.2250000000	1.0935979396
2.2300000000	0.9342284891
2.2350000000	0.7973876240
2.2400000000	0.6814883139
2.2450000000	0.5814137892
2.2500000000	0.4920708942
2.2550000000	0.4106111129
2.2600000000	0.3291497780
2.2650000000	0.2698884550
2.2700000000	0.2376974031
2.2750000000	0.2458005816
2.2800000000	0.2925544605
2.2850000000	0.3520903182
2.2900000000	0.3956691505
2.2950000000	0.4149834828
2.3000000000	0.4171919712
2.3050000000	0.4105265036
2.3100000000	0.4017466796
2.3150000000	0.3939673615
2.3200000000	0.3884200285
2.3250000000	0.3857809051
2.3300000000	0.3865970639
2.3350000000	0.3913216864
2.3400000000	0.4003419418
2.3450000000	0.4140496048
2.3500000000	0.4328597481
2.3550000000	0.4573946313
2.3600000000	0.4872514006
2.3650000000	0.5226158278
2.3700000000	0.5633895806
2.3750000000	0.6100152886
2.3800000000	0.6641760255
2.3850000000	0.7278688966
2.3900000000	0.8015355056
2.3950000000	0.8818956117
2.4000000000	0.9605165152
2.4050000000	1.0282704350
2.4100000000	1.0658249627
2.4150000000	1.0694150268
2.4200000000	1.0482219729
2.4250000000	1.0179023747
2.4300000000	0.9923518024
2.4350000000	0.9799582990
2.4400000000	0.9840691494
2.4450000000	1.0052252997
2.4500000000	1.0434944903
2.4550000000	1.0997294949
2.4600000000	1.1775354246
2.4650000000	1.2806079196
2.4700000000	1.4130623507
2.4750000000	1.5774690544
2.4800000000	1.7725308556
2.4850000000	1.9899249993
2.4900000000	2.2106133994
2.4950000000	2.4030033819
2.5000000000	2.5275613241
2.5050000000	2.5435746776
2.5100000000	2.4347872373
2.5150000000	2.2308927615
2.5200000000	1.9793366419
2.5250000000	1.7218009293
2.5300000000	1.4836933956
2.5350000000	1.2756895352
2.5400000000	1.0993610022
2.5450000000	0.9520916816
2.5500000000	0.8300904004
2.5550000000	0.7299508354
2.5600000000	0.6462170317
2.5650000000	0.5835523324
2.5700000000	0.5385258789
2.5750000000	0.5095319115
2.5800000000	0.4933522309
2.5850000000	0.4855853997
2.5900000000	0.4821007715
2.5950000000	0.4803262264
2.6000000000	0.4794324284
2.6050000000	0.4832550779
2.6100000000	0.4893118211
2.6150000000	0.4985300654
2.6200000000	0.5114025318
2.6250000000	0.5279595751
2.6300000000	0.5477338449
2.6350000000	0.5697334416
2.6400000000	0.5924428047
2.6450000000	0.6139400803
2.6500000000	0.6321899204
2.6550000000	0.6455235479
2.6600000000	0.6531657971
2.6650000000	0.6555719715
2.6700000000	0.6543315325
2.6750000000	0.6517678955
2.6800000000	0.6501324224
2.6850000000	0.6515285633
2.6900000000	0.6574211739
2.6950000000	0.6687104963
2.7000000000	0.6858281734
2.7050000000	0.7114510913
2.7100000000	0.7444266170
2.7150000000	0.7842216474
2.7200000000	0.8297341984
2.7250000000	0.8790936125
2.7300000000	0.9294757990
2.7350000000	0.9770732972
2.7400000000	1.0173571671
2.7450000000	1.0457290067
2.7500000000	1.0584824371
2.7550000000	1.0537501195
2.7600000000	1.0320091486
2.7650000000	0.9959088378
2.7700000000	0.9495032188
2.7750000000	0.8972838911
2.7800000000	0.8433694578
2.7850000000	0.7910547154
2.7900000000	0.7422498025
2.7950000000	0.6990449494
2.8000000000	0.6618725828
2.8050000000	0.6274439896
2.8100000000	0.6002993495
2.8150000000	0.5793700317
2.8200000000	0.5634951329
2.8250000000	0.5516093690
2.8300000000	0.5428073357
2.8350000000	0.5363380304
2.8400000000	0.5315668695
2.8450000000	0.5279550833
2.8500000000	0.5250700411
2.8550000000	0.5226245373
2.8600000000	0.5205213358
2.8650000000	0.5188675322
2.8700000000	0.5179473456
2.8750000000	0.5181516827
2.8800000000	0.5198915740
2.8850000000	0.5235201021
2.8900000000	0.5292780293
2.8950000000	0.5372610130
2.9000000000	0.5474034664
2.9050000000	0.5625744285
2.9100000000	0.5792111453
2.9150000000	0.5962028576
2.9200000000	0.6121458051
2.9250000000	0.6255320088
2.9300000000	0.6349613527
2.9350000000	0.6393869874
2.9400000000	0.6383179128
2.9450000000	0.6319127380
2.9500000000	0.6209203782
2.9550000000	0.6064891782
2.9600000000	0.5899248865
2.9650000000	0.5724643400
2.9700000000	0.5551246995
2.9750000000	0.5386374995
2.9800000000	0.5234531167
2.9850000000	0.5097894060
2.9900000000	0.4976970325
2.9950000000	0.4871229746
3.0000000000	0.4779623518
