# energy (eV)    P(omega), $W$ = 300 nm, $h$ = 300 nm, $s$ = 20 nm, $d/W = 5$, $E_{\rm e}$ = 200 keV
0.2000000000	0.1004549818
0.2050000000	0.1018978064
0.2100000000	0.1032541462
0.2150000000	0.1045267030
0.2200000000	0.1057178059
0.2250000000	0.1068293799
0.2300000000	0.1078628376
0.2350000000	0.1088190605
0.2400000000	0.1096982980
0.2450000000	0.1104999501
0.2500000000	0.1112226893
0.2550000000	0.1118639683
0.2600000000	0.1124200652
0.2650000000	0.1128857948
0.2700000000	0.1132540493
0.2750000000	0.1135155247
0.2800000000	0.1136581624
0.2850000000	0.1136665445
0.2900000000	0.1135208637
0.2950000000	0.1131961431
0.3000000000	0.1126602214
0.3050000000	0.1118724667
0.3100000000	0.1107807152
0.3150000000	0.1167464675
0.3200000000	0.1238326513
0.3250000000	0.1327903223
0.3300000000	0.1447770515
0.3350000000	0.1597023801
0.3400000000	0.1792493804
0.3450000000	0.2029792307
0.3500000000	0.2340351479
0.3550000000	0.2751486675
0.3600000000	0.3288711110
0.3650000000	0.4038017208
0.3700000000	0.5027012952
0.3750000000	0.6403804350
0.3800000000	0.8396486035
0.3850000000	1.1503395213
0.3900000000	1.6415398172
0.3950000000	2.4765223996
0.4000000000	4.0693795391
0.4050000000	7.6429415656
0.4100000000	17.4009449999
0.4150000000	55.8911036615
0.4200000000	35.5758869403
0.4250000000	-67.1583617566
0.4300000000	18.7153066253
0.4350000000	11.6777555226
0.4400000000	7.1495580329
0.4450000000	4.7103525070
0.4500000000	3.3052306812
0.4550000000	2.4399989909
0.4600000000	1.8761531219
0.4650000000	1.4917243056
0.4700000000	1.2198911322
0.4750000000	1.0232312218
0.4800000000	0.8773929118
0.4850000000	0.7676522475
0.4900000000	0.6839038343
0.4950000000	0.6193609078
0.5000000000	0.5693858832
0.5050000000	0.5305721019
0.5100000000	0.5007304577
0.5150000000	0.4782501744
0.5200000000	0.4614374885
0.5250000000	0.4495381173
0.5300000000	0.4417356674
0.5350000000	0.4374347695
0.5400000000	0.4361972316
0.5450000000	0.4376572232
0.5500000000	0.4417058576
0.5550000000	0.4481390919
0.5600000000	0.4568575741
0.5650000000	0.4678193804
0.5700000000	0.4809890619
0.5750000000	0.4964608833
0.5800000000	0.5143880589
0.5850000000	0.5348712814
0.5900000000	0.5581020734
0.5950000000	0.5843179186
0.6000000000	0.6138209428
0.6050000000	0.6470441770
0.6100000000	0.6844047897
0.6150000000	0.7264689215
0.6200000000	0.7739922419
0.6250000000	0.8276982642
0.6300000000	0.8886563800
0.6350000000	0.9581995063
0.6400000000	1.0377151391
0.6450000000	1.1292050231
0.6500000000	1.2353019696
0.6550000000	1.3587472707
0.6600000000	1.5037524889
0.6650000000	1.6757259320
0.6700000000	1.8810257167
0.6750000000	2.1293436638
0.6800000000	2.4337288485
0.6850000000	2.8112629848
0.6900000000	3.2884242592
0.6950000000	3.9022325255
0.7000000000	4.7115284597
0.7050000000	5.8062615655
0.7100000000	7.3388882095
0.7150000000	9.5808324973
0.7200000000	13.0375135272
0.7250000000	18.7775227068
0.7300000000	29.3173949904
0.7350000000	51.8784088620
0.7400000000	113.7775389856
0.7450000000	377.7329030893
0.7500000000	1171.0923655172
0.7550000000	294.8370354196
0.7600000000	97.7183143126
0.7650000000	46.8575438111
0.7700000000	27.2722336362
0.7750000000	17.8140798267
0.7800000000	12.5466968889
0.7850000000	9.3261011011
0.7900000000	7.2111870481
0.7950000000	5.7520487581
0.8000000000	4.7027658469
0.8050000000	3.9210173178
0.8100000000	3.3246851043
0.8150000000	2.8517755004
0.8200000000	2.4784244813
0.8250000000	2.1777214704
0.8300000000	1.9313155159
0.8350000000	1.7286795625
0.8400000000	1.5587713411
0.8450000000	1.4161651136
0.8500000000	1.2956116487
0.8550000000	1.1915497279
0.8600000000	1.1027138750
0.8650000000	1.0268509830
0.8700000000	0.9597994944
0.8750000000	0.9027926569
0.8800000000	0.8544651449
0.8850000000	0.8111322694
0.8900000000	0.7764647725
0.8950000000	0.7449242588
0.9000000000	0.7200286652
0.9050000000	0.7030747949
0.9100000000	0.6875476257
0.9150000000	0.6783638468
0.9200000000	0.6778235638
0.9250000000	0.6775413673
0.9300000000	0.6680707848
0.9350000000	0.6384074767
0.9400000000	0.4709395181
0.9450000000	-0.2922049989
0.9500000000	-4.3236830479
0.9550000000	-24.7867336027
0.9600000000	5.8546299551
0.9650000000	10.2902143914
0.9700000000	4.5671978939
0.9750000000	2.3987578113
0.9800000000	1.5036960672
0.9850000000	1.0849564273
0.9900000000	0.8435642825
0.9950000000	0.6971405913
1.0000000000	0.6036311792
1.0050000000	0.5443741641
1.0100000000	0.4983834204
1.0150000000	0.4647645102
1.0200000000	0.4421305549
1.0250000000	0.4230828013
1.0300000000	0.4085802294
1.0350000000	0.3975695849
1.0400000000	0.3905364997
1.0450000000	0.3846229056
1.0500000000	0.3806428729
1.0550000000	0.3783685177
1.0600000000	0.3783256199
1.0650000000	0.3790511784
1.0700000000	0.3811358785
1.0750000000	0.3845866387
1.0800000000	0.3897906246
1.0850000000	0.3964065223
1.0900000000	0.4062683960
1.0950000000	0.4179963583
1.1000000000	0.4320022236
1.1050000000	0.4481057480
1.1100000000	0.4668330377
1.1150000000	0.4885990881
1.1200000000	0.5139132264
1.1250000000	0.5433562342
1.1300000000	0.5778065335
1.1350000000	0.6183247440
1.1400000000	0.6661386549
1.1450000000	0.7233994766
1.1500000000	0.7925211729
1.1550000000	0.8769584113
1.1600000000	0.9815843140
1.1650000000	1.1127408279
1.1700000000	1.2822124404
1.1750000000	1.5057271243
1.1800000000	1.8092483086
1.1850000000	2.2354279593
1.1900000000	2.8647710390
1.1950000000	3.8515765045
1.2000000000	5.5239934672
1.2050000000	8.6827874413
1.2100000000	15.6298611108
1.2150000000	34.4101411314
1.2200000000	84.3938507286
1.2250000000	75.8979359100
1.2300000000	30.3656754176
1.2350000000	14.3175142099
1.2400000000	8.2419935400
1.2450000000	5.4577331675
1.2500000000	3.9950001486
1.2550000000	3.1576726151
1.2600000000	2.6559411953
1.2650000000	2.3506140787
1.2700000000	2.1801918731
1.2750000000	2.1049989136
1.2800000000	2.1071007238
1.2850000000	2.1799309959
1.2900000000	2.3254799710
1.2950000000	2.5520438366
1.3000000000	2.8856532940
1.3050000000	3.3601971768
1.3100000000	4.0369620418
1.3150000000	5.0215369166
1.3200000000	6.5029621298
1.3250000000	8.8422459965
1.3300000000	12.8273266086
1.3350000000	20.2876830762
1.3400000000	36.2314751235
1.3450000000	75.8209938790
1.3500000000	161.0712218314
1.3550000000	150.3200793632
1.3600000000	69.3463139332
1.3650000000	34.0774260220
1.3700000000	19.5429664437
1.3750000000	12.5666996178
1.3800000000	8.7627183609
1.3850000000	6.4716219363
1.3900000000	4.9957633103
1.3950000000	3.9894871061
1.4000000000	3.2749205708
1.4050000000	2.7516818121
1.4100000000	2.3595787319
1.4150000000	2.0637296199
1.4200000000	1.8412878613
1.4250000000	1.6923807767
1.4300000000	1.6380637971
1.4350000000	1.6688978676
1.4400000000	1.2859732451
1.4450000000	0.1125190775
1.4500000000	-1.7919374387
1.4550000000	-0.5018136423
1.4600000000	2.1721040092
1.4650000000	1.1755060164
1.4700000000	-1.1122307044
1.4750000000	-4.8646193657
1.4800000000	-2.1651749497
1.4850000000	3.5578971954
1.4900000000	2.8840571038
1.4950000000	1.8667352087
1.5000000000	1.3115774961
1.5050000000	1.0126503096
1.5100000000	0.8422726092
1.5150000000	0.7388050008
1.5200000000	0.6719689789
1.5250000000	0.6304434485
1.5300000000	0.5987251901
1.5350000000	0.5768645458
1.5400000000	0.5624680243
1.5450000000	0.5542517597
1.5500000000	0.5513868080
1.5550000000	0.5538951417
1.5600000000	0.5632546339
1.5650000000	0.5787090990
1.5700000000	0.6037273285
1.5750000000	0.6425421160
1.5800000000	0.7031008591
1.5850000000	0.8008735666
1.5900000000	0.9684532502
1.5950000000	1.2779662661
1.6000000000	1.8817668774
1.6050000000	2.8801463998
1.6100000000	3.3425473631
1.6150000000	2.4757694782
1.6200000000	1.6626098095
1.6250000000	1.2333597044
1.6300000000	1.0178198509
1.6350000000	0.9068389980
1.6400000000	0.8505720246
1.6450000000	0.8258515780
1.6500000000	0.8210757424
1.6550000000	0.8308094952
1.6600000000	0.8518084956
1.6650000000	0.8825907301
1.6700000000	0.9225919920
1.6750000000	0.9718142238
1.6800000000	1.0306962102
1.6850000000	1.0999191107
1.6900000000	1.1800838484
1.6950000000	1.2700450976
1.7000000000	1.3682813172
1.7050000000	1.4689097207
1.7100000000	1.5837076621
1.7150000000	1.8694034146
1.7200000000	2.3708467030
1.7250000000	2.8300638039
1.7300000000	3.3227281593
1.7350000000	3.8641011713
1.7400000000	4.3954404045
1.7450000000	5.0779592254
1.7500000000	6.1100434727
1.7550000000	7.6461489459
1.7600000000	9.9444234175
1.7650000000	13.4872225401
1.7700000000	19.1940513775
1.7750000000	28.8085869022
1.7800000000	45.1916019151
1.7850000000	69.3528089748
1.7900000000	86.1872220303
1.7950000000	73.3903576183
1.8000000000	48.8435373214
1.8050000000	30.8459597732
1.8100000000	20.3375898574
1.8150000000	14.1782110970
1.8200000000	10.3876428629
1.8250000000	7.9302053661
1.8300000000	6.2616928227
1.8350000000	5.0839911742
1.8400000000	4.2259852260
1.8450000000	3.5838735762
1.8500000000	3.0922385915
1.8550000000	2.7101471623
1.8600000000	2.4090454499
1.8650000000	2.1695285172
1.8700000000	1.9777962245
1.8750000000	1.8237186735
1.8800000000	1.6992626988
1.8850000000	1.5973327182
1.8900000000	1.5097550980
1.8950000000	1.4243336789
1.9000000000	1.3200063655
1.9050000000	1.1224163011
1.9100000000	0.8505425734
1.9150000000	0.7071939352
1.9200000000	1.7261569117
1.9250000000	4.5402772943
1.9300000000	6.7720293520
1.9350000000	6.6675397044
1.9400000000	5.2439869990
1.9450000000	3.8638524728
1.9500000000	2.8948567849
1.9550000000	2.2599519446
1.9600000000	1.8403936686
1.9650000000	1.5595740549
1.9700000000	1.3568521905
1.9750000000	1.2082495280
1.9800000000	1.0947962506
1.9850000000	1.0027290658
1.9900000000	0.9215158663
1.9950000000	0.8419643300
2.0000000000	0.7627348327
2.0050000000	0.7121123779
2.0100000000	0.7411094033
2.0150000000	0.8209959174
2.0200000000	0.8702462556
2.0250000000	0.8833155563
2.0300000000	0.8862392246
2.0350000000	0.8915706538
2.0400000000	0.9039719659
2.0450000000	0.9246297761
2.0500000000	0.9543122926
2.0550000000	0.9937166595
2.0600000000	1.0428432841
2.0650000000	1.0987214649
2.0700000000	1.1539839678
2.0750000000	1.2031112907
2.0800000000	1.2509790481
2.0850000000	1.3076673402
2.0900000000	1.3799352496
2.0950000000	1.4706319085
2.1000000000	1.5828263323
2.1050000000	1.7155051813
2.1100000000	1.8779933652
2.1150000000	2.0771081152
2.1200000000	2.3224090194
2.1250000000	2.6273044024
2.1300000000	3.0106942774
2.1350000000	3.4995617485
2.1400000000	4.1328696165
2.1450000000	4.9675816418
2.1500000000	6.0866962295
2.1550000000	7.6076791147
2.1600000000	9.6808681306
2.1650000000	12.4335816952
2.1700000000	15.8148852433
2.1750000000	19.1765924853
2.1800000000	21.2536445584
2.1850000000	21.3614062271
2.1900000000	20.4167245478
2.1950000000	19.6814930882
2.2000000000	19.3553574768
2.2050000000	18.4501691591
2.2100000000	16.5286886119
2.2150000000	14.1663467193
2.2200000000	12.0457113016
2.2250000000	10.2929983742
2.2300000000	8.7493978940
2.2350000000	7.3535305277
2.2400000000	6.1544323195
2.2450000000	5.1949730829
2.2500000000	4.4594799424
2.2550000000	3.9070029021
2.2600000000	3.4933809220
2.2650000000	3.1743516883
2.2700000000	2.9020562825
2.2750000000	2.6293326111
2.2800000000	2.3356552064
2.2850000000	2.0561444916
2.2900000000	1.8629368013
2.2950000000	1.7968801484
2.3000000000	1.8203775269
2.3050000000	1.8563167788
2.3100000000	1.8592985782
2.3150000000	1.8296885671
2.3200000000	1.7871386059
2.3250000000	1.7519472323
2.3300000000	1.7344998290
2.3350000000	1.7365777094
2.3400000000	1.7523564310
2.3450000000	1.7686571461
2.3500000000	1.7688856306
2.3550000000	1.7424548360
2.3600000000	1.6923609159
2.3650000000	1.6316965170
2.3700000000	1.5739573596
2.3750000000	1.5272043806
2.3800000000	1.4940574204
2.3850000000	1.4737783397
2.3900000000	1.4646807330
2.3950000000	1.4648101841
2.4000000000	1.4746982087
2.4050000000	1.4976015684
2.4100000000	1.5346105117
2.4150000000	1.5872350189
2.4200000000	1.6563823306
2.4250000000	1.7436425604
2.4300000000	1.8513356729
2.4350000000	1.9825738948
2.4400000000	2.1413733349
2.4450000000	2.3328618940
2.4500000000	2.5635090675
2.4550000000	2.8414463564
2.4600000000	3.1766642895
2.4650000000	3.5811493559
2.4700000000	4.0686486902
2.4750000000	4.6529321581
2.4800000000	5.3482199851
2.4850000000	6.1601401080
2.4900000000	7.0807547029
2.4950000000	8.0771187043
2.5000000000	9.0795638208
2.5050000000	10.0173202206
2.5100000000	10.6508738397
2.5150000000	10.8420732058
2.5200000000	10.5579775812
2.5250000000	9.8862811003
2.5300000000	8.9797910135
2.5350000000	7.9859017925
2.5400000000	7.0087591794
2.5450000000	6.1072137261
2.5500000000	5.3074393205
2.5550000000	4.6153962992
2.5600000000	4.0215701315
2.5650000000	3.5223149417
2.5700000000	3.1058743319
2.5750000000	2.7648883519
2.5800000000	2.4938595607
2.5850000000	2.2868129115
2.5900000000	2.1339221874
2.5950000000	2.0213731717
2.6000000000	1.9347823943
2.6050000000	1.8732437051
2.6100000000	1.8199612803
2.6150000000	1.7740904093
2.6200000000	1.7365369292
2.6250000000	1.7083047617
2.6300000000	1.6900643595
2.6350000000	1.6821578297
2.6400000000	1.6847840019
2.6450000000	1.6981276954
2.6500000000	1.7225508849
2.6550000000	1.7581550431
2.6600000000	1.8054864260
2.6650000000	1.8650969836
2.6700000000	1.9376647480
2.6750000000	2.0240112052
2.6800000000	2.1250468765
2.6850000000	2.2417030148
2.6900000000	2.3747421804
2.6950000000	2.5246062621
2.7000000000	2.6911426856
2.7050000000	2.8932911173
2.7100000000	3.1139021580
2.7150000000	3.3486772076
2.7200000000	3.5913652303
2.7250000000	3.8341146939
2.7300000000	4.0680682106
2.7350000000	4.2838737260
2.7400000000	4.4718077871
2.7450000000	4.6232417295
2.7500000000	4.7247893204
2.7550000000	4.7683485639
2.7600000000	4.7477716525
2.7650000000	4.6623451578
2.7700000000	4.5177924705
2.7750000000	4.3255792207
2.7800000000	4.1006497567
2.7850000000	3.8588579157
2.7900000000	3.6144286330
2.7950000000	3.3787689945
2.8000000000	3.1599449567
2.8050000000	2.9385475121
2.8100000000	2.7490621434
2.8150000000	2.5909807013
2.8200000000	2.4617584442
2.8250000000	2.3580415141
2.8300000000	2.2764514257
2.8350000000	2.2140967046
2.8400000000	2.1679336490
2.8450000000	2.1380680649
2.8500000000	2.1222879382
2.8550000000	2.1197503648
2.8600000000	2.1298258811
2.8650000000	2.1519473323
2.8700000000	2.1854801942
2.8750000000	2.2296192799
2.8800000000	2.2833090238
2.8850000000	2.3451766131
2.8900000000	2.4135717762
2.8950000000	2.4866282795
2.9000000000	2.5623836773
2.9050000000	2.6534097124
2.9100000000	2.7407257850
2.9150000000	2.8215860948
2.9200000000	2.8931093939
2.9250000000	2.9520267997
2.9300000000	2.9953283819
2.9350000000	3.0183321546
2.9400000000	3.0190178103
2.9450000000	2.9965249981
2.9500000000	2.9521512591
2.9550000000	2.8892685130
2.9600000000	2.8127434508
2.9650000000	2.7280903661
2.9700000000	2.6406413892
2.9750000000	2.5549533210
2.9800000000	2.4745176945
2.9850000000	2.4017166390
2.9900000000	2.3379828657
2.9950000000	2.2839888042
3.0000000000	2.2398758522
